{
  "AcquisitionMatrixPE": 106,
  "AcquisitionNumber": 1,
  "AcquisitionTime": "11:29:6.280000",
  "BandwidthPerPixelPhaseEncode": 16.846,
  "BaseResolution": 106,
  "BodyPartExamined": "BRAIN",
  "CoilCombinationMethod": "Sum of Squares",
  "ConsistencyInfo": "N4_VE11C_LATEST_20160120",
  "ConversionSoftware": "dcm2niix",
  "ConversionSoftwareVersion": "v1.0.20220720",
  "DerivedVendorReportedEchoSpacing": 0.000560012,
  "DeviceSerialNumber": "166108",
  "DwellTime": 1.8e-06,
  "EchoTime": 0.0352,
  "EchoTrainLength": 106,
  "EffectiveEchoSpacing": 0.000560012,
  "FlipAngle": 60,
  "HeudiconvVersion": "1.3.0",
  "ImageComments": "Unaliased MB4/PE3/LB",
  "ImageOrientationPatientDICOM": [1, 0, 0, 0, 0.917755, -0.397148],
  "ImageOrientationText": "Tra>Cor(-23.4)",
  "ImageType": [
    "ORIGINAL",
    "PRIMARY",
    "M",
    "MB",
    "ND",
    "MOSAIC"
],
  "ImagingFrequency": 123.244,
  "InPlanePhaseEncodingDirectionDICOM": "COL",
  "InstitutionAddress": "Bedford Way 26,London,London,GB,WC1H 0AP",
  "InstitutionName": "University College",
  "InstitutionalDepartmentName": "Department",
  "MRAcquisitionType": "2D",
  "MagneticFieldStrength": 3,
  "Manufacturer": "Siemens",
  "ManufacturersModelName": "Prisma",
  "MatrixCoilMode": "SENSE",
  "Modality": "MR",
  "MultibandAccelerationFactor": 4,
  "NonlinearGradientCorrection": false,
  "PartialFourier": 1,
  "PatientPosition": "HFS",
  "PercentPhaseFOV": 100,
  "PercentSampling": 100,
  "PhaseEncodingDirection": "j-",
  "PhaseEncodingSteps": 106,
  "PhaseResolution": 1,
  "PixelBandwidth": 2620,
  "ProcedureStepDescription": "Egor^MovieProject2",
  "ProtocolName": "func-bold_task-pRF_run-01",
  "PulseSequenceDetails": "%CustomerSeq%\\cmrr_mbep2d_bold",
  "ReceiveCoilActiveElements": "HEA;HEP",
  "ReceiveCoilName": "Head_32",
  "ReconMatrixPE": 106,
  "RepetitionTime": 1,
  "SAR": 0.0744536,
  "ScanOptions": "FS\\EXT",
  "ScanningSequence": "EP",
  "SequenceName": "epfid2d1_106",
  "SequenceVariant": "SK\\SS",
  "SeriesDescription": "func-bold_task-pRF_run-01",
  "SeriesNumber": 10,
  "ShimSetting": [-1515, 676, 7353, -18, -90, 248, 154, -58],
  "SliceThickness": 2,
  "SliceTiming": [0, 0.4075, 0.8175, 0.245, 0.6525, 0.0825, 0.49, 0.8975, 0.3275, 0.735, 0.1625, 0.5725, 0, 0.4075, 0.8175, 0.245, 0.6525, 0.0825, 0.49, 0.8975, 0.3275, 0.735, 0.1625, 0.5725, 0, 0.4075, 0.8175, 0.245, 0.6525, 0.0825, 0.49, 0.8975, 0.3275, 0.735, 0.1625, 0.5725, 0, 0.4075, 0.8175, 0.245, 0.6525, 0.0825, 0.49, 0.8975, 0.3275, 0.735, 0.1625, 0.5725],
  "SoftwareVersions": "syngo MR E11",
  "SpacingBetweenSlices": 2,
  "StationName": "AWP166108",
  "TaskName": "retinotopy",
  "TotalReadoutTime": 0.0588013,
  "TxRefAmp": 243.532,
  "WipMemBlock": "bfd598db-d733-4d47-87e5-4e6379874155||Sequence: R016 ve11c/master r/e634e98; Dec 19 2017 11:00:25 by eja",
  "dcmmeta_affine": [
    [-2.0, 0.0, 0.0, 106.0],
    [0.0, 1.8355093002319336, -0.7942957282066345, -77.39739990234375],
    [0.0, 0.7942957282066345, 1.8355093002319336, -51.12700271606445],
    [0.0, 0.0, 0.0, 1.0]
],
  "dcmmeta_reorient_transform": [
    [0.0, -1.0, 0.0, 105.0],
    [1.0, 0.0, 0.0, 0.0],
    [0.0, 0.0, 1.0, 0.0],
    [0.0, 0.0, 0.0, 1.0]
],
  "dcmmeta_shape": [106, 106, 48, 356],
  "dcmmeta_slice_dim": 2,
  "dcmmeta_version": 0.6,
  "global": {
    "const": {
      "AcquisitionMatrix": [106, 0, 0, 106],
      "AngioFlag": "N",
      "BitsAllocated": 16,
      "BitsStored": 16,
      "BodyPartExamined": "BRAIN",
      "CardiacNumberOfImages": 1,
      "Columns": 742,
      "EchoNumbers": 1,
      "EchoTime": 35.2,
      "EchoTrainLength": 106,
      "FlipAngle": 60.0,
      "HighBit": 15,
      "ImageOrientationPatient": [1.0, 0.0, 0.0, 0.0, 0.9177546397099, -0.3971478582228],
      "ImagePositionPatient": [-742.0, -699.02302637446, 284.86008714408],
      "ImageType": [
        "ORIGINAL",
        "PRIMARY",
        "M",
        "MB",
        "ND",
        "MOSAIC"
],
      "ImagedNucleus": "1H",
      "ImagingFrequency": 123.243643,
      "InPlanePhaseEncodingDirection": "COL",
      "MRAcquisitionType": "2D",
      "MagneticFieldStrength": 3.0,
      "Manufacturer": "SIEMENS",
      "ManufacturerModelName": "Prisma",
      "Modality": "MR",
      "NominalInterval": 0,
      "NumberOfAverages": 1.0,
      "NumberOfPhaseEncodingSteps": 106,
      "PercentPhaseFieldOfView": 100.0,
      "PercentSampling": 100.0,
      "PerformedProcedureStepStartTime": "103952.020000",
      "PhotometricInterpretation": "MONOCHROME2",
      "PixelBandwidth": 2620.0,
      "PixelRepresentation": 0,
      "PixelSpacing": [2.0, 2.0],
      "ProtocolName": "func-bold_task-pRF_run-01",
      "RepetitionTime": 1000.0,
      "Rows": 742,
      "SAR": 0.07445358742554,
      "SamplesPerPixel": 1,
      "ScanOptions": [
        "FS",
        "EXT"
],
      "ScanningSequence": "EP",
      "SequenceName": "epfid2d1_106",
      "SequenceVariant": [
        "SK",
        "SS"
],
      "SeriesDescription": "func-bold_task-pRF_run-01",
      "SeriesNumber": 10,
      "SeriesTime": "112930.841000",
      "SliceLocation": -16.183831128382,
      "SliceThickness": 2.0,
      "SmallestImagePixelValue": 0,
      "SoftwareVersions": "syngo MR E11",
      "SpacingBetweenSlices": 2.0000000247918,
      "SpecificCharacterSet": "ISO_IR 100",
      "StudyID": "1",
      "StudyTime": "103951.965000",
      "TransmitCoilName": "Body",
      "VariableFlipAngleFlag": "N",
      "WindowCenterWidthExplanation": "Algo1",
      "dBdt": 0.0},
    "slices": {}
  },
  "time": {
    "samples": {
      "AcquisitionNumber": [1, 2, 3, 4, 5, 6, 7, 8, 9, 10, 11, 12, 13, 14, 15, 16, 17, 18, 19, 20, 21, 22, 23, 24, 25, 26, 27, 28, 29, 30, 31, 32, 33, 34, 35, 36, 37, 38, 39, 40, 41, 42, 43, 44, 45, 46, 47, 48, 49, 50, 51, 52, 53, 54, 55, 56, 57, 58, 59, 60, 61, 62, 63, 64, 65, 66, 67, 68, 69, 70, 71, 72, 73, 74, 75, 76, 77, 78, 79, 80, 81, 82, 83, 84, 85, 86, 87, 88, 89, 90, 91, 92, 93, 94, 95, 96, 97, 98, 99, 100, 101, 102, 103, 104, 105, 106, 107, 108, 109, 110, 111, 112, 113, 114, 115, 116, 117, 118, 119, 120, 121, 122, 123, 124, 125, 126, 127, 128, 129, 130, 131, 132, 133, 134, 135, 136, 137, 138, 139, 140, 141, 142, 143, 144, 145, 146, 147, 148, 149, 150, 151, 152, 153, 154, 155, 156, 157, 158, 159, 160, 161, 162, 163, 164, 165, 166, 167, 168, 169, 170, 171, 172, 173, 174, 175, 176, 177, 178, 179, 180, 181, 182, 183, 184, 185, 186, 187, 188, 189, 190, 191, 192, 193, 194, 195, 196, 197, 198, 199, 200, 201, 202, 203, 204, 205, 206, 207, 208, 209, 210, 211, 212, 213, 214, 215, 216, 217, 218, 219, 220, 221, 222, 223, 224, 225, 226, 227, 228, 229, 230, 231, 232, 233, 234, 235, 236, 237, 238, 239, 240, 241, 242, 243, 244, 245, 246, 247, 248, 249, 250, 251, 252, 253, 254, 255, 256, 257, 258, 259, 260, 261, 262, 263, 264, 265, 266, 267, 268, 269, 270, 271, 272, 273, 274, 275, 276, 277, 278, 279, 280, 281, 282, 283, 284, 285, 286, 287, 288, 289, 290, 291, 292, 293, 294, 295, 296, 297, 298, 299, 300, 301, 302, 303, 304, 305, 306, 307, 308, 309, 310, 311, 312, 313, 314, 315, 316, 317, 318, 319, 320, 321, 322, 323, 324, 325, 326, 327, 328, 329, 330, 331, 332, 333, 334, 335, 336, 337, 338, 339, 340, 341, 342, 343, 344, 345, 346, 347, 348, 349, 350, 351, 352, 353, 354, 355, 356],
      "AcquisitionTime": ["112906.280000", "112907.280000", "112908.280000", "112909.280000", "112910.280000", "112911.280000", "112912.280000", "112913.280000", "112914.280000", "112915.280000", "112916.280000", "112917.280000", "112918.280000", "112919.280000", "112920.280000", "112921.280000", "112922.280000", "112923.280000", "112924.280000", "112925.280000", "112926.280000", "112927.280000", "112928.280000", "112929.280000", "112930.280000", "112931.280000", "112932.280000", "112933.280000", "112934.280000", "112935.280000", "112936.280000", "112937.280000", "112938.280000", "112939.280000", "112940.280000", "112941.280000", "112942.280000", "112943.280000", "112944.280000", "112945.280000", "112946.280000", "112947.280000", "112948.280000", "112949.280000", "112950.280000", "112951.280000", "112952.280000", "112953.280000", "112954.280000", "112955.280000", "112956.280000", "112957.280000", "112958.280000", "112959.280000", "113000.280000", "113001.280000", "113002.280000", "113003.280000", "113004.280000", "113005.280000", "113006.280000", "113007.280000", "113008.280000", "113009.280000", "113010.280000", "113011.280000", "113012.280000", "113013.280000", "113014.280000", "113015.280000", "113016.280000", "113017.280000", "113018.280000", "113019.280000", "113020.280000", "113021.280000", "113022.280000", "113023.280000", "113024.280000", "113025.280000", "113026.280000", "113027.280000", "113028.280000", "113029.280000", "113030.280000", "113031.280000", "113032.280000", "113033.280000", "113034.280000", "113035.280000", "113036.280000", "113037.280000", "113038.280000", "113039.280000", "113040.280000", "113041.280000", "113042.280000", "113043.280000", "113044.280000", "113045.280000", "113046.280000", "113047.280000", "113048.280000", "113049.280000", "113050.280000", "113051.280000", "113052.280000", "113053.280000", "113054.280000", "113055.280000", "113056.280000", "113057.280000", "113058.280000", "113059.280000", "113100.280000", "113101.280000", "113102.280000", "113103.280000", "113104.280000", "113105.280000", "113106.280000", "113107.280000", "113108.280000", "113109.280000", "113110.280000", "113111.280000", "113112.280000", "113113.280000", "113114.280000", "113115.280000", "113116.280000", "113117.280000", "113118.280000", "113119.280000", "113120.280000", "113121.280000", "113122.280000", "113123.280000", "113124.280000", "113125.280000", "113126.280000", "113127.280000", "113128.280000", "113129.280000", "113130.280000", "113131.280000", "113132.280000", "113133.280000", "113134.280000", "113135.280000", "113136.280000", "113137.280000", "113138.280000", "113139.280000", "113140.280000", "113141.280000", "113142.280000", "113143.280000", "113144.280000", "113145.280000", "113146.280000", "113147.280000", "113148.280000", "113149.280000", "113150.280000", "113151.280000", "113152.280000", "113153.280000", "113154.280000", "113155.280000", "113156.280000", "113157.280000", "113158.280000", "113159.280000", "113200.280000", "113201.280000", "113202.280000", "113203.280000", "113204.280000", "113205.280000", "113206.280000", "113207.280000", "113208.280000", "113209.280000", "113210.280000", "113211.280000", "113212.280000", "113213.280000", "113214.280000", "113215.280000", "113216.280000", "113217.280000", "113218.280000", "113219.280000", "113220.280000", "113221.280000", "113222.280000", "113223.280000", "113224.280000", "113225.280000", "113226.280000", "113227.280000", "113228.280000", "113229.280000", "113230.280000", "113231.280000", "113232.280000", "113233.280000", "113234.280000", "113235.280000", "113236.280000", "113237.280000", "113238.280000", "113239.280000", "113240.280000", "113241.280000", "113242.280000", "113243.280000", "113244.280000", "113245.280000", "113246.280000", "113247.280000", "113248.280000", "113249.280000", "113250.280000", "113251.280000", "113252.280000", "113253.280000", "113254.280000", "113255.280000", "113256.280000", "113257.280000", "113258.280000", "113259.280000", "113300.280000", "113301.280000", "113302.280000", "113303.280000", "113304.280000", "113305.280000", "113306.280000", "113307.280000", "113308.280000", "113309.280000", "113310.280000", "113311.280000", "113312.280000", "113313.280000", "113314.280000", "113315.280000", "113316.280000", "113317.280000", "113318.280000", "113319.280000", "113320.280000", "113321.280000", "113322.280000", "113323.280000", "113324.280000", "113325.280000", "113326.280000", "113327.280000", "113328.280000", "113329.280000", "113330.280000", "113331.280000", "113332.280000", "113333.280000", "113334.280000", "113335.280000", "113336.280000", "113337.280000", "113338.280000", "113339.280000", "113340.280000", "113341.280000", "113342.280000", "113343.280000", "113344.280000", "113345.280000", "113346.280000", "113347.280000", "113348.280000", "113349.280000", "113350.280000", "113351.280000", "113352.280000", "113353.280000", "113354.280000", "113355.280000", "113356.280000", "113357.280000", "113358.280000", "113359.280000", "113400.280000", "113401.280000", "113402.280000", "113403.280000", "113404.280000", "113405.280000", "113406.280000", "113407.280000", "113408.280000", "113409.280000", "113410.280000", "113411.280000", "113412.280000", "113413.280000", "113414.280000", "113415.280000", "113416.280000", "113417.280000", "113418.280000", "113419.280000", "113420.280000", "113421.280000", "113422.280000", "113423.280000", "113424.280000", "113425.280000", "113426.280000", "113427.280000", "113428.280000", "113429.280000", "113430.280000", "113431.280000", "113432.280000", "113433.280000", "113434.280000", "113435.280000", "113436.280000", "113437.280000", "113438.280000", "113439.280000", "113440.280000", "113441.280000", "113442.280000", "113443.280000", "113444.280000", "113445.280000", "113446.280000", "113447.280000", "113448.280000", "113449.280000", "113450.280000", "113451.280000", "113452.280000", "113453.280000", "113454.280000", "113455.280000", "113456.280000", "113457.280000", "113458.280000", "113459.280000", "113500.280000", "113501.280000"],
      "ContentTime": ["112930.844000", "112930.847000", "112930.849000", "112930.852000", "112930.855000", "112930.857000", "112930.869000", "112930.872000", "112930.874000", "112930.877000", "112930.880000", "112930.882000", "112930.885000", "112930.888000", "112930.891000", "112930.893000", "112930.896000", "112930.898000", "112930.901000", "112930.903000", "112930.906000", "112930.908000", "112950.805000", "112950.808000", "112950.811000", "112950.813000", "112950.816000", "112950.818000", "112950.820000", "112950.823000", "112950.825000", "112950.828000", "112950.830000", "112950.833000", "112950.835000", "112950.837000", "112950.840000", "112950.842000", "112950.845000", "112950.847000", "112950.850000", "112950.852000", "112950.855000", "112950.860000", "113010.805000", "113010.808000", "113010.813000", "113010.815000", "113010.818000", "113010.820000", "113010.823000", "113010.825000", "113010.828000", "113010.830000", "113010.833000", "113010.835000", "113010.837000", "113010.840000", "113010.842000", "113010.845000", "113010.847000", "113010.850000", "113010.852000", "113010.855000", "113030.805000", "113030.808000", "113030.810000", "113030.813000", "113030.815000", "113030.818000", "113030.820000", "113030.823000", "113030.825000", "113030.828000", "113030.830000", "113030.833000", "113030.835000", "113030.838000", "113030.840000", "113030.849000", "113030.851000", "113030.853000", "113030.856000", "113030.858000", "113110.806000", "113110.808000", "113110.811000", "113110.813000", "113110.816000", "113110.818000", "113110.821000", "113110.839000", "113110.841000", "113110.844000", "113110.847000", "113110.850000", "113110.852000", "113110.855000", "113110.857000", "113110.859000", "113110.862000", "113110.864000", "113110.867000", "113110.869000", "113110.872000", "113110.874000", "113110.877000", "113110.893000", "113110.896000", "113110.898000", "113110.901000", "113110.903000", "113110.906000", "113110.908000", "113110.911000", "113110.913000", "113110.916000", "113110.918000", "113110.921000", "113110.923000", "113110.926000", "113110.928000", "113110.931000", "113110.933000", "113130.806000", "113130.808000", "113130.811000", "113130.813000", "113130.816000", "113130.818000", "113130.821000", "113130.823000", "113130.826000", "113130.828000", "113130.831000", "113130.833000", "113130.836000", "113130.838000", "113130.841000", "113130.843000", "113130.846000", "113130.848000", "113130.851000", "113130.853000", "113210.806000", "113210.808000", "113210.811000", "113210.813000", "113210.816000", "113210.818000", "113210.821000", "113210.824000", "113210.826000", "113210.829000", "113210.831000", "113210.838000", "113210.841000", "113210.843000", "113210.846000", "113210.848000", "113210.851000", "113210.853000", "113210.856000", "113210.858000", "113210.861000", "113210.863000", "113210.866000", "113210.868000", "113210.871000", "113210.873000", "113210.876000", "113210.878000", "113210.881000", "113210.883000", "113210.886000", "113210.888000", "113210.891000", "113210.893000", "113210.896000", "113210.898000", "113210.901000", "113210.903000", "113210.906000", "113210.908000", "113230.806000", "113230.809000", "113230.811000", "113230.814000", "113230.816000", "113230.818000", "113230.821000", "113230.823000", "113230.826000", "113230.828000", "113230.831000", "113230.833000", "113230.836000", "113230.838000", "113230.841000", "113230.843000", "113230.846000", "113230.848000", "113230.851000", "113230.853000", "113250.805000", "113250.808000", "113250.811000", "113250.813000", "113250.816000", "113250.818000", "113250.821000", "113250.823000", "113250.825000", "113250.828000", "113250.830000", "113250.833000", "113250.835000", "113250.838000", "113250.840000", "113250.843000", "113250.845000", "113250.848000", "113250.850000", "113250.853000", "113310.805000", "113310.808000", "113310.811000", "113310.813000", "113310.816000", "113310.818000", "113310.821000", "113310.823000", "113310.826000", "113310.828000", "113310.830000", "113310.833000", "113310.835000", "113310.838000", "113310.840000", "113310.843000", "113310.845000", "113310.848000", "113310.850000", "113310.853000", "113330.806000", "113330.809000", "113330.812000", "113330.814000", "113330.817000", "113330.819000", "113330.822000", "113330.824000", "113330.827000", "113330.829000", "113330.831000", "113330.834000", "113330.836000", "113330.839000", "113330.841000", "113330.844000", "113330.846000", "113330.849000", "113330.862000", "113330.864000", "113350.805000", "113350.808000", "113350.811000", "113350.813000", "113350.816000", "113350.818000", "113350.821000", "113350.823000", "113350.826000", "113350.828000", "113350.831000", "113350.833000", "113350.836000", "113350.838000", "113350.841000", "113350.843000", "113350.846000", "113350.848000", "113350.851000", "113350.853000", "113430.805000", "113430.808000", "113430.811000", "113430.813000", "113430.816000", "113430.818000", "113430.821000", "113430.823000", "113430.826000", "113430.828000", "113430.831000", "113430.833000", "113430.836000", "113430.838000", "113430.841000", "113430.844000", "113430.846000", "113430.848000", "113430.851000", "113430.853000", "113430.856000", "113430.858000", "113430.861000", "113430.863000", "113430.866000", "113430.868000", "113430.871000", "113430.873000", "113430.876000", "113430.878000", "113430.881000", "113430.883000", "113430.886000", "113430.888000", "113430.891000", "113430.893000", "113430.896000", "113430.898000", "113430.901000", "113450.816000", "113450.819000", "113450.821000", "113450.824000", "113450.826000", "113450.829000", "113450.831000", "113450.834000", "113450.836000", "113450.839000", "113450.841000", "113450.844000", "113450.846000", "113450.849000", "113450.851000", "113450.853000", "113450.856000", "113450.859000", "113450.861000", "113450.863000", "113450.866000", "113502.830000", "113502.833000", "113502.835000", "113502.838000", "113502.840000", "113502.842000", "113502.845000", "113502.848000", "113502.850000", "113502.852000", "113502.855000", "113502.858000"],
      "InstanceCreationTime": ["112930.844000", "112930.847000", "112930.849000", "112930.852000", "112930.855000", "112930.857000", "112930.869000", "112930.872000", "112930.874000", "112930.877000", "112930.880000", "112930.882000", "112930.885000", "112930.888000", "112930.891000", "112930.893000", "112930.896000", "112930.898000", "112930.901000", "112930.903000", "112930.906000", "112930.908000", "112950.805000", "112950.808000", "112950.811000", "112950.813000", "112950.816000", "112950.818000", "112950.820000", "112950.823000", "112950.825000", "112950.828000", "112950.830000", "112950.833000", "112950.835000", "112950.837000", "112950.840000", "112950.842000", "112950.845000", "112950.847000", "112950.850000", "112950.852000", "112950.855000", "112950.860000", "113010.805000", "113010.808000", "113010.813000", "113010.815000", "113010.818000", "113010.820000", "113010.823000", "113010.825000", "113010.828000", "113010.830000", "113010.833000", "113010.835000", "113010.837000", "113010.840000", "113010.842000", "113010.845000", "113010.847000", "113010.850000", "113010.852000", "113010.855000", "113030.805000", "113030.808000", "113030.810000", "113030.813000", "113030.815000", "113030.818000", "113030.820000", "113030.823000", "113030.825000", "113030.828000", "113030.830000", "113030.833000", "113030.835000", "113030.838000", "113030.840000", "113030.849000", "113030.851000", "113030.853000", "113030.856000", "113030.858000", "113110.806000", "113110.808000", "113110.811000", "113110.813000", "113110.816000", "113110.818000", "113110.821000", "113110.839000", "113110.841000", "113110.844000", "113110.847000", "113110.850000", "113110.852000", "113110.855000", "113110.857000", "113110.859000", "113110.862000", "113110.864000", "113110.867000", "113110.869000", "113110.872000", "113110.874000", "113110.877000", "113110.893000", "113110.896000", "113110.898000", "113110.901000", "113110.903000", "113110.906000", "113110.908000", "113110.911000", "113110.913000", "113110.916000", "113110.918000", "113110.921000", "113110.923000", "113110.926000", "113110.928000", "113110.931000", "113110.933000", "113130.806000", "113130.808000", "113130.811000", "113130.813000", "113130.816000", "113130.818000", "113130.821000", "113130.823000", "113130.826000", "113130.828000", "113130.831000", "113130.833000", "113130.836000", "113130.838000", "113130.841000", "113130.843000", "113130.846000", "113130.848000", "113130.851000", "113130.853000", "113210.806000", "113210.808000", "113210.811000", "113210.813000", "113210.816000", "113210.818000", "113210.821000", "113210.824000", "113210.826000", "113210.829000", "113210.831000", "113210.838000", "113210.841000", "113210.843000", "113210.846000", "113210.848000", "113210.851000", "113210.853000", "113210.856000", "113210.858000", "113210.861000", "113210.863000", "113210.866000", "113210.868000", "113210.871000", "113210.873000", "113210.876000", "113210.878000", "113210.881000", "113210.883000", "113210.886000", "113210.888000", "113210.891000", "113210.893000", "113210.896000", "113210.898000", "113210.901000", "113210.903000", "113210.906000", "113210.908000", "113230.806000", "113230.809000", "113230.811000", "113230.814000", "113230.816000", "113230.818000", "113230.821000", "113230.823000", "113230.826000", "113230.828000", "113230.831000", "113230.833000", "113230.836000", "113230.838000", "113230.841000", "113230.843000", "113230.846000", "113230.848000", "113230.851000", "113230.853000", "113250.805000", "113250.808000", "113250.811000", "113250.813000", "113250.816000", "113250.818000", "113250.821000", "113250.823000", "113250.825000", "113250.828000", "113250.830000", "113250.833000", "113250.835000", "113250.838000", "113250.840000", "113250.843000", "113250.845000", "113250.848000", "113250.850000", "113250.853000", "113310.805000", "113310.808000", "113310.811000", "113310.813000", "113310.816000", "113310.818000", "113310.821000", "113310.823000", "113310.826000", "113310.828000", "113310.830000", "113310.833000", "113310.835000", "113310.838000", "113310.840000", "113310.843000", "113310.845000", "113310.848000", "113310.850000", "113310.853000", "113330.806000", "113330.809000", "113330.812000", "113330.814000", "113330.817000", "113330.819000", "113330.822000", "113330.824000", "113330.827000", "113330.829000", "113330.831000", "113330.834000", "113330.836000", "113330.839000", "113330.841000", "113330.844000", "113330.846000", "113330.849000", "113330.862000", "113330.864000", "113350.805000", "113350.808000", "113350.811000", "113350.813000", "113350.816000", "113350.818000", "113350.821000", "113350.823000", "113350.826000", "113350.828000", "113350.831000", "113350.833000", "113350.836000", "113350.838000", "113350.841000", "113350.843000", "113350.846000", "113350.848000", "113350.851000", "113350.853000", "113430.805000", "113430.808000", "113430.811000", "113430.813000", "113430.816000", "113430.818000", "113430.821000", "113430.823000", "113430.826000", "113430.828000", "113430.831000", "113430.833000", "113430.836000", "113430.838000", "113430.841000", "113430.844000", "113430.846000", "113430.848000", "113430.851000", "113430.853000", "113430.856000", "113430.858000", "113430.861000", "113430.863000", "113430.866000", "113430.868000", "113430.871000", "113430.873000", "113430.876000", "113430.878000", "113430.881000", "113430.883000", "113430.886000", "113430.888000", "113430.891000", "113430.893000", "113430.896000", "113430.898000", "113430.901000", "113450.816000", "113450.819000", "113450.821000", "113450.824000", "113450.826000", "113450.829000", "113450.831000", "113450.834000", "113450.836000", "113450.839000", "113450.841000", "113450.844000", "113450.846000", "113450.849000", "113450.851000", "113450.853000", "113450.856000", "113450.859000", "113450.861000", "113450.863000", "113450.866000", "113502.830000", "113502.833000", "113502.835000", "113502.838000", "113502.840000", "113502.842000", "113502.845000", "113502.848000", "113502.850000", "113502.852000", "113502.855000", "113502.858000"],
      "InstanceNumber": [1, 2, 3, 4, 5, 6, 7, 8, 9, 10, 11, 12, 13, 14, 15, 16, 17, 18, 19, 20, 21, 22, 23, 24, 25, 26, 27, 28, 29, 30, 31, 32, 33, 34, 35, 36, 37, 38, 39, 40, 41, 42, 43, 44, 45, 46, 47, 48, 49, 50, 51, 52, 53, 54, 55, 56, 57, 58, 59, 60, 61, 62, 63, 64, 65, 66, 67, 68, 69, 70, 71, 72, 73, 74, 75, 76, 77, 78, 79, 80, 81, 82, 83, 84, 85, 86, 87, 88, 89, 90, 91, 92, 93, 94, 95, 96, 97, 98, 99, 100, 101, 102, 103, 104, 105, 106, 107, 108, 109, 110, 111, 112, 113, 114, 115, 116, 117, 118, 119, 120, 121, 122, 123, 124, 125, 126, 127, 128, 129, 130, 131, 132, 133, 134, 135, 136, 137, 138, 139, 140, 141, 142, 143, 144, 145, 146, 147, 148, 149, 150, 151, 152, 153, 154, 155, 156, 157, 158, 159, 160, 161, 162, 163, 164, 165, 166, 167, 168, 169, 170, 171, 172, 173, 174, 175, 176, 177, 178, 179, 180, 181, 182, 183, 184, 185, 186, 187, 188, 189, 190, 191, 192, 193, 194, 195, 196, 197, 198, 199, 200, 201, 202, 203, 204, 205, 206, 207, 208, 209, 210, 211, 212, 213, 214, 215, 216, 217, 218, 219, 220, 221, 222, 223, 224, 225, 226, 227, 228, 229, 230, 231, 232, 233, 234, 235, 236, 237, 238, 239, 240, 241, 242, 243, 244, 245, 246, 247, 248, 249, 250, 251, 252, 253, 254, 255, 256, 257, 258, 259, 260, 261, 262, 263, 264, 265, 266, 267, 268, 269, 270, 271, 272, 273, 274, 275, 276, 277, 278, 279, 280, 281, 282, 283, 284, 285, 286, 287, 288, 289, 290, 291, 292, 293, 294, 295, 296, 297, 298, 299, 300, 301, 302, 303, 304, 305, 306, 307, 308, 309, 310, 311, 312, 313, 314, 315, 316, 317, 318, 319, 320, 321, 322, 323, 324, 325, 326, 327, 328, 329, 330, 331, 332, 333, 334, 335, 336, 337, 338, 339, 340, 341, 342, 343, 344, 345, 346, 347, 348, 349, 350, 351, 352, 353, 354, 355, 356],
      "LargestImagePixelValue": [11166, 10917, 10651, 10587, 10594, 10467, 10517, 10475, 10522, 10559, 10403, 10330, 10387, 10461, 10611, 10551, 10598, 10500, 10489, 10407, 10651, 10507, 10449, 10464, 10606, 10574, 10475, 10583, 10596, 10487, 10540, 10543, 10720, 10659, 10713, 10692, 10751, 10711, 10766, 10629, 10603, 10658, 10562, 10678, 10645, 10615, 10560, 10515, 10607, 10537, 10466, 10561, 10652, 10611, 10666, 10477, 10556, 10470, 10547, 10411, 10503, 10395, 10400, 10379, 10545, 10646, 10580, 10561, 10484, 10555, 10600, 10587, 10527, 10550, 10545, 10565, 10507, 10496, 10508, 10415, 10448, 10402, 10486, 10560, 10419, 10620, 10670, 10640, 10453, 10520, 10561, 10570, 10368, 10521, 10627, 10585, 10421, 10501, 10536, 10500, 10399, 10477, 10548, 10549, 10529, 10508, 10579, 10442, 10532, 10447, 10383, 10445, 10378, 10555, 10352, 10419, 10355, 10343, 10575, 10409, 10334, 10456, 10495, 10409, 10412, 10615, 10441, 10486, 10492, 10502, 10453, 10533, 10508, 10356, 10552, 10356, 10562, 10523, 10535, 10642, 10531, 10584, 10418, 10358, 10388, 10338, 10449, 10410, 10396, 10451, 10535, 10532, 10667, 10466, 10530, 10475, 10567, 10487, 10443, 10447, 10452, 10434, 10377, 10263, 10506, 10476, 10587, 10445, 10392, 10440, 10252, 10289, 10285, 10281, 10367, 10417, 10588, 10623, 10618, 10645, 10665, 10575, 10566, 10568, 10603, 10518, 10475, 10456, 10462, 10411, 10275, 10304, 10395, 10551, 10440, 10377, 10481, 10429, 10524, 10546, 10466, 10351, 10435, 10379, 10588, 10408, 10522, 10611, 10526, 10199, 10440, 10585, 10459, 10372, 10414, 10572, 10332, 10378, 10411, 10404, 10411, 10419, 10395, 10423, 10359, 10257, 10309, 10378, 10344, 10451, 10583, 10484, 10577, 10662, 10628, 10580, 10622, 10624, 10590, 10562, 10519, 10502, 10487, 10471, 10354, 10633, 10499, 10390, 10500, 10466, 10313, 10330, 10436, 10418, 10281, 10358, 10421, 10471, 10464, 10451, 10353, 10393, 10387, 10364, 10402, 10454, 10599, 10433, 10439, 10575, 10503, 10281, 10473, 10460, 10381, 10445, 10381, 10451, 10361, 10458, 10560, 10553, 10478, 10403, 10418, 10455, 10347, 10227, 10329, 10476, 10374, 10526, 10550, 10427, 10376, 10510, 10445, 10339, 10403, 10395, 10505, 10443, 10414, 10357, 10410, 10306, 10181, 10264, 10191, 10299, 10370, 10313, 10266, 10189, 10235, 10366, 10453, 10318, 10302, 10211, 10281, 10321, 10435, 10245, 10349, 10326, 10425, 10488, 10404, 10567, 10532, 10473, 10285, 10340, 10207, 10324, 10358, 10158, 10288, 10168, 10365, 10265, 10160, 10400, 10438, 10469, 10317, 10418, 10400, 10523, 10609, 10434, 10401, 10383, 10442, 10449],
