{
  "AcquisitionMatrixPE": 106,
  "AcquisitionNumber": 1,
  "AcquisitionTime": "11:55:43.830000",
  "BandwidthPerPixelPhaseEncode": 13.477,
  "BaseResolution": 106,
  "BodyPartExamined": "BRAIN",
  "CoilCombinationMethod": "Sum of Squares",
  "ConsistencyInfo": "N4_VE11C_LATEST_20160120",
  "ConversionSoftware": "dcm2niix",
  "ConversionSoftwareVersion": "v1.0.20220720",
  "DerivedVendorReportedEchoSpacing": 0.000700005,
  "DeviceSerialNumber": "166108",
  "DwellTime": 2.6e-06,
  "EchoTime": 0.03,
  "EchoTrainLength": 80,
  "EffectiveEchoSpacing": 0.000700005,
  "FlipAngle": 62,
  "HeudiconvVersion": "1.3.0",
  "ImageComments": "Unaliased MB4/PE3/LB",
  "ImageOrientationPatientDICOM": [1, 0, 0, 0, 0.91496, -0.403545],
  "ImageOrientationText": "Tra>Cor(-23.8)",
  "ImageType": [
    "ORIGINAL",
    "PRIMARY",
    "M",
    "MB",
    "ND",
    "MOSAIC"
],
  "ImagingFrequency": 123.244,
  "InPlanePhaseEncodingDirectionDICOM": "COL",
  "InstitutionAddress": "Bedford Way 26,London,London,GB,WC1H 0AP",
  "InstitutionName": "University College",
  "InstitutionalDepartmentName": "Department",
  "MRAcquisitionType": "2D",
  "MagneticFieldStrength": 3,
  "Manufacturer": "Siemens",
  "ManufacturersModelName": "Prisma",
  "MatrixCoilMode": "SENSE",
  "Modality": "MR",
  "MultibandAccelerationFactor": 4,
  "NonlinearGradientCorrection": false,
  "PartialFourier": 0.75,
  "PatientPosition": "HFS",
  "PercentPhaseFOV": 100,
  "PercentSampling": 100,
  "PhaseEncodingDirection": "j-",
  "PhaseEncodingSteps": 80,
  "PhaseResolution": 1,
  "PixelBandwidth": 1815,
  "ProcedureStepDescription": "Egor^MovieProject2",
  "ProtocolName": "func-bold_task-tono_run-01",
  "PulseSequenceDetails": "%CustomerSeq%\\cmrr_mbep2d_bold",
  "ReceiveCoilActiveElements": "HEA;HEP",
  "ReceiveCoilName": "Head_32",
  "ReconMatrixPE": 106,
  "RepetitionTime": 1,
  "SAR": 0.0414253,
  "ScanOptions": "PFP\\FS\\EXT",
  "ScanningSequence": "EP",
  "SequenceName": "epfid2d1_106",
  "SequenceVariant": "SK\\SS",
  "SeriesDescription": "func-bold_task-tono_run-01",
  "SeriesNumber": 18,
  "ShimSetting": [-1517, 681, 7361, 23, -155, 341, 176, -78],
  "SliceThickness": 2,
  "SliceTiming": [0, 0.535, 0.09, 0.625, 0.1775, 0.7125, 0.2675, 0.8025, 0.3575, 0.89, 0.445, 0, 0.535, 0.09, 0.625, 0.1775, 0.7125, 0.2675, 0.8025, 0.3575, 0.89, 0.445, 0, 0.535, 0.09, 0.625, 0.1775, 0.7125, 0.2675, 0.8025, 0.3575, 0.89, 0.445, 0, 0.535, 0.09, 0.625, 0.1775, 0.7125, 0.2675, 0.8025, 0.3575, 0.89, 0.445],
  "SoftwareVersions": "syngo MR E11",
  "SpacingBetweenSlices": 2,
  "StationName": "AWP166108",
  "TaskName": "tonotopy",
  "TotalReadoutTime": 0.0735005,
  "TxRefAmp": 243.532,
  "WipMemBlock": "1f5c68f5-2432-4c3c-91e9-af6386d37d88||Sequence: R016 ve11c/master r/e634e98; Dec 19 2017 11:00:25 by eja",
  "dcmmeta_affine": [
    [-2.0, 0.0, 0.0, 106.0],
    [0.0, 1.8299193382263184, -0.8070906400680542, -70.46380615234375],
    [0.0, 0.8070906400680542, 1.8299193382263184, -64.94629669189453],
    [0.0, 0.0, 0.0, 1.0]
],
  "dcmmeta_reorient_transform": [
    [0.0, -1.0, 0.0, 105.0],
    [1.0, 0.0, 0.0, 0.0],
    [0.0, 0.0, 1.0, 0.0],
    [0.0, 0.0, 0.0, 1.0]
],
  "dcmmeta_shape": [106, 106, 44, 264],
  "dcmmeta_slice_dim": 2,
  "dcmmeta_version": 0.6,
  "global": {
    "const": {
      "AcquisitionMatrix": [106, 0, 0, 106],
      "AngioFlag": "N",
      "BitsAllocated": 16,
      "BitsStored": 16,
      "BodyPartExamined": "BRAIN",
      "CardiacNumberOfImages": 1,
      "Columns": 742,
      "EchoNumbers": 1,
      "EchoTime": 30.0,
      "EchoTrainLength": 80,
      "FlipAngle": 62.0,
      "HighBit": 15,
      "ImageOrientationPatient": [1.0, 0.0, 0.0, 0.0, 0.91495965822336, -0.4035453181785],
      "ImagePositionPatient": [-742.0, -703.59206392981, 276.45304124959],
      "ImageType": [
        "ORIGINAL",
        "PRIMARY",
        "M",
        "MB",
        "ND",
        "MOSAIC"
],
      "ImagedNucleus": "1H",
      "ImagingFrequency": 123.243654,
      "InPlanePhaseEncodingDirection": "COL",
      "MRAcquisitionType": "2D",
      "MagneticFieldStrength": 3.0,
      "Manufacturer": "SIEMENS",
      "ManufacturerModelName": "Prisma",
      "Modality": "MR",
      "NominalInterval": 0,
      "NumberOfAverages": 1.0,
      "NumberOfPhaseEncodingSteps": 80,
      "PercentPhaseFieldOfView": 100.0,
      "PercentSampling": 100.0,
      "PerformedProcedureStepStartTime": "103952.020000",
      "PhotometricInterpretation": "MONOCHROME2",
      "PixelBandwidth": 1815.0,
      "PixelRepresentation": 0,
      "PixelSpacing": [2.0, 2.0],
      "ProtocolName": "func-bold_task-tono_run-01",
      "RepetitionTime": 1000.0,
      "Rows": 742,
      "SAR": 0.04142530722985,
      "SamplesPerPixel": 1,
      "ScanOptions": [
        "PFP",
        "FS",
        "EXT"
],
      "ScanningSequence": "EP",
      "SequenceName": "epfid2d1_106",
      "SequenceVariant": [
        "SK",
        "SS"
],
      "SeriesDescription": "func-bold_task-tono_run-01",
      "SeriesNumber": 18,
      "SeriesTime": "115611.957000",
      "SliceLocation": -30.987903169899,
      "SliceThickness": 2.0,
      "SmallestImagePixelValue": 0,
      "SoftwareVersions": "syngo MR E11",
      "SpacingBetweenSlices": 1.999999996735,
      "SpecificCharacterSet": "ISO_IR 100",
      "StudyID": "1",
      "StudyTime": "103951.965000",
      "TransmitCoilName": "Body",
      "VariableFlipAngleFlag": "N",
      "WindowCenterWidthExplanation": "Algo1",
      "dBdt": 0.0},
    "slices": {}
  },
  "time": {
    "samples": {
      "AcquisitionNumber": [1, 2, 3, 4, 5, 6, 7, 8, 9, 10, 11, 12, 13, 14, 15, 16, 17, 18, 19, 20, 21, 22, 23, 24, 25, 26, 27, 28, 29, 30, 31, 32, 33, 34, 35, 36, 37, 38, 39, 40, 41, 42, 43, 44, 45, 46, 47, 48, 49, 50, 51, 52, 53, 54, 55, 56, 57, 58, 59, 60, 61, 62, 63, 64, 65, 66, 67, 68, 69, 70, 71, 72, 73, 74, 75, 76, 77, 78, 79, 80, 81, 82, 83, 84, 85, 86, 87, 88, 89, 90, 91, 92, 93, 94, 95, 96, 97, 98, 99, 100, 101, 102, 103, 104, 105, 106, 107, 108, 109, 110, 111, 112, 113, 114, 115, 116, 117, 118, 119, 120, 121, 122, 123, 124, 125, 126, 127, 128, 129, 130, 131, 132, 133, 134, 135, 136, 137, 138, 139, 140, 141, 142, 143, 144, 145, 146, 147, 148, 149, 150, 151, 152, 153, 154, 155, 156, 157, 158, 159, 160, 161, 162, 163, 164, 165, 166, 167, 168, 169, 170, 171, 172, 173, 174, 175, 176, 177, 178, 179, 180, 181, 182, 183, 184, 185, 186, 187, 188, 189, 190, 191, 192, 193, 194, 195, 196, 197, 198, 199, 200, 201, 202, 203, 204, 205, 206, 207, 208, 209, 210, 211, 212, 213, 214, 215, 216, 217, 218, 219, 220, 221, 222, 223, 224, 225, 226, 227, 228, 229, 230, 231, 232, 233, 234, 235, 236, 237, 238, 239, 240, 241, 242, 243, 244, 245, 246, 247, 248, 249, 250, 251, 252, 253, 254, 255, 256, 257, 258, 259, 260, 261, 262, 263, 264],
      "AcquisitionTime": ["115543.830000", "115544.830000", "115545.830000", "115546.830000", "115547.830000", "115548.830000", "115549.830000", "115550.830000", "115551.830000", "115552.830000", "115553.830000", "115554.830000", "115555.830000", "115556.830000", "115557.830000", "115558.830000", "115559.830000", "115600.830000", "115601.830000", "115602.830000", "115603.830000", "115604.830000", "115605.830000", "115606.830000", "115607.830000", "115608.830000", "115609.830000", "115610.830000", "115611.830000", "115612.830000", "115613.830000", "115614.830000", "115615.830000", "115616.830000", "115617.830000", "115618.830000", "115619.830000", "115620.830000", "115621.830000", "115622.830000", "115623.830000", "115624.830000", "115625.830000", "115626.830000", "115627.830000", "115628.830000", "115629.830000", "115630.830000", "115631.830000", "115632.830000", "115633.830000", "115634.830000", "115635.830000", "115636.830000", "115637.830000", "115638.830000", "115639.830000", "115640.830000", "115641.830000", "115642.830000", "115643.830000", "115644.830000", "115645.830000", "115646.830000", "115647.830000", "115648.830000", "115649.830000", "115650.830000", "115651.830000", "115652.830000", "115653.830000", "115654.830000", "115655.830000", "115656.830000", "115657.830000", "115658.830000", "115659.830000", "115700.830000", "115701.830000", "115702.830000", "115703.830000", "115704.830000", "115705.830000", "115706.830000", "115707.830000", "115708.830000", "115709.830000", "115710.830000", "115711.830000", "115712.830000", "115713.830000", "115714.830000", "115715.830000", "115716.830000", "115717.830000", "115718.830000", "115719.830000", "115720.830000", "115721.830000", "115722.830000", "115723.830000", "115724.830000", "115725.830000", "115726.830000", "115727.830000", "115728.830000", "115729.830000", "115730.830000", "115731.830000", "115732.830000", "115733.830000", "115734.830000", "115735.830000", "115736.830000", "115737.830000", "115738.830000", "115739.830000", "115740.830000", "115741.830000", "115742.830000", "115743.830000", "115744.830000", "115745.830000", "115746.830000", "115747.830000", "115748.830000", "115749.830000", "115750.830000", "115751.830000", "115752.830000", "115753.830000", "115754.830000", "115755.830000", "115756.830000", "115757.830000", "115758.830000", "115759.830000", "115800.830000", "115801.830000", "115802.830000", "115803.830000", "115804.830000", "115805.830000", "115806.830000", "115807.830000", "115808.830000", "115809.830000", "115810.830000", "115811.830000", "115812.830000", "115813.830000", "115814.830000", "115815.830000", "115816.830000", "115817.830000", "115818.830000", "115819.830000", "115820.830000", "115821.830000", "115822.830000", "115823.830000", "115824.830000", "115825.830000", "115826.830000", "115827.830000", "115828.830000", "115829.830000", "115830.830000", "115831.830000", "115832.830000", "115833.830000", "115834.830000", "115835.830000", "115836.830000", "115837.830000", "115838.830000", "115839.830000", "115840.830000", "115841.830000", "115842.830000", "115843.830000", "115844.830000", "115845.830000", "115846.830000", "115847.830000", "115848.830000", "115849.830000", "115850.830000", "115851.830000", "115852.830000", "115853.830000", "115854.830000", "115855.830000", "115856.830000", "115857.830000", "115858.830000", "115859.830000", "115900.830000", "115901.830000", "115902.830000", "115903.830000", "115904.830000", "115905.830000", "115906.830000", "115907.830000", "115908.830000", "115909.830000", "115910.830000", "115911.830000", "115912.830000", "115913.830000", "115914.830000", "115915.830000", "115916.830000", "115917.830000", "115918.830000", "115919.830000", "115920.830000", "115921.830000", "115922.830000", "115923.830000", "115924.830000", "115925.830000", "115926.830000", "115927.830000", "115928.830000", "115929.830000", "115930.830000", "115931.830000", "115932.830000", "115933.830000", "115934.830000", "115935.830000", "115936.830000", "115937.830000", "115938.830000", "115939.830000", "115940.830000", "115941.830000", "115942.830000", "115943.830000", "115944.830000", "115945.830000", "115946.830000", "115947.830000", "115948.830000", "115949.830000", "115950.830000", "115951.830000", "115952.830000", "115953.830000", "115954.830000", "115955.830000", "115956.830000", "115957.830000", "115958.830000", "115959.830000", "120000.830000", "120001.830000", "120002.830000", "120003.830000", "120004.830000", "120005.830000", "120006.830000"],
      "ContentTime": ["115611.959000", "115611.962000", "115611.964000", "115611.967000", "115611.978000", "115611.980000", "115611.983000", "115611.985000", "115611.987000", "115611.990000", "115611.992000", "115611.995000", "115611.997000", "115612.001000", "115612.003000", "115612.006000", "115612.008000", "115612.011000", "115612.013000", "115612.015000", "115612.018000", "115612.020000", "115612.022000", "115612.025000", "115612.027000", "115612.030000", "115612.032000", "115631.901000", "115631.903000", "115631.906000", "115631.908000", "115631.911000", "115631.914000", "115631.916000", "115631.919000", "115631.921000", "115631.924000", "115631.926000", "115631.929000", "115631.931000", "115631.933000", "115631.936000", "115631.938000", "115631.950000", "115631.953000", "115631.955000", "115631.958000", "115651.901000", "115651.904000", "115651.906000", "115651.909000", "115651.911000", "115651.914000", "115651.916000", "115651.918000", "115651.921000", "115651.923000", "115651.926000", "115651.928000", "115651.931000", "115651.933000", "115651.935000", "115651.938000", "115651.940000", "115651.943000", "115651.945000", "115651.948000", "115711.900000", "115711.903000", "115711.905000", "115711.908000", "115711.910000", "115711.913000", "115711.915000", "115711.917000", "115711.920000", "115711.922000", "115711.925000", "115711.927000", "115711.930000", "115711.932000", "115711.935000", "115711.937000", "115711.940000", "115711.942000", "115711.944000", "115711.947000", "115731.900000", "115731.903000", "115731.905000", "115731.908000", "115731.910000", "115731.912000", "115731.915000", "115731.917000", "115731.920000", "115731.922000", "115731.925000", "115731.927000", "115731.930000", "115731.932000", "115731.935000", "115731.937000", "115731.939000", "115731.942000", "115731.944000", "115731.947000", "115751.900000", "115751.903000", "115751.906000", "115751.908000", "115751.911000", "115751.913000", "115751.915000", "115751.918000", "115751.920000", "115751.923000", "115751.925000", "115751.928000", "115751.930000", "115751.933000", "115751.935000", "115751.938000", "115751.940000", "115751.942000", "115751.947000", "115751.949000", "115811.900000", "115811.903000", "115811.905000", "115811.908000", "115811.910000", "115811.913000", "115811.915000", "115811.917000", "115811.920000", "115811.922000", "115811.925000", "115811.927000", "115811.930000", "115811.932000", "115811.934000", "115811.937000", "115811.939000", "115811.942000", "115811.944000", "115811.947000", "115831.900000", "115831.903000", "115831.905000", "115831.908000", "115831.910000", "115831.913000", "115831.915000", "115831.917000", "115831.920000", "115831.922000", "115831.925000", "115831.927000", "115831.930000", "115831.932000", "115831.935000", "115831.937000", "115831.940000", "115831.942000", "115831.944000", "115831.947000", "115851.901000", "115851.904000", "115851.907000", "115851.909000", "115851.912000", "115851.914000", "115851.916000", "115851.919000", "115851.921000", "115851.924000", "115851.926000", "115851.929000", "115851.931000", "115851.934000", "115851.936000", "115851.938000", "115851.941000", "115851.943000", "115851.946000", "115851.948000", "115911.901000", "115911.904000", "115911.906000", "115911.909000", "115911.912000", "115911.914000", "115911.916000", "115911.919000", "115911.921000", "115911.924000", "115911.926000", "115911.929000", "115911.931000", "115911.934000", "115911.936000", "115911.939000", "115911.941000", "115911.944000", "115911.946000", "115911.949000", "115931.900000", "115931.903000", "115931.906000", "115931.908000", "115931.910000", "115931.913000", "115931.915000", "115931.918000", "115931.920000", "115931.923000", "115931.925000", "115931.928000", "115931.930000", "115931.933000", "115931.935000", "115931.937000", "115931.940000", "115931.942000", "115931.945000", "115931.947000", "115951.900000", "115951.903000", "115951.906000", "115951.908000", "115951.910000", "115951.913000", "115951.915000", "115951.918000", "115951.920000", "115951.923000", "115951.925000", "115951.928000", "115951.930000", "115951.933000", "115951.935000", "115951.937000", "115951.940000", "115951.942000", "115951.959000", "115951.962000", "120008.784000", "120008.787000", "120008.789000", "120008.792000", "120008.794000", "120008.797000", "120008.800000", "120008.802000", "120008.805000", "120008.807000", "120008.810000", "120008.812000", "120008.815000", "120008.817000", "120008.819000", "120008.822000", "120008.824000"],
      "InstanceCreationTime": ["115611.959000", "115611.962000", "115611.964000", "115611.967000", "115611.978000", "115611.980000", "115611.983000", "115611.985000", "115611.987000", "115611.990000", "115611.992000", "115611.995000", "115611.997000", "115612.001000", "115612.003000", "115612.006000", "115612.008000", "115612.011000", "115612.013000", "115612.015000", "115612.018000", "115612.020000", "115612.022000", "115612.025000", "115612.027000", "115612.030000", "115612.032000", "115631.901000", "115631.903000", "115631.906000", "115631.908000", "115631.911000", "115631.914000", "115631.916000", "115631.919000", "115631.921000", "115631.924000", "115631.926000", "115631.929000", "115631.931000", "115631.933000", "115631.936000", "115631.938000", "115631.950000", "115631.953000", "115631.955000", "115631.958000", "115651.901000", "115651.904000", "115651.906000", "115651.909000", "115651.911000", "115651.914000", "115651.916000", "115651.918000", "115651.921000", "115651.923000", "115651.926000", "115651.928000", "115651.931000", "115651.933000", "115651.935000", "115651.938000", "115651.940000", "115651.943000", "115651.945000", "115651.948000", "115711.900000", "115711.903000", "115711.905000", "115711.908000", "115711.910000", "115711.913000", "115711.915000", "115711.917000", "115711.920000", "115711.922000", "115711.925000", "115711.927000", "115711.930000", "115711.932000", "115711.935000", "115711.937000", "115711.940000", "115711.942000", "115711.944000", "115711.947000", "115731.900000", "115731.903000", "115731.905000", "115731.908000", "115731.910000", "115731.912000", "115731.915000", "115731.917000", "115731.920000", "115731.922000", "115731.925000", "115731.927000", "115731.930000", "115731.932000", "115731.935000", "115731.937000", "115731.939000", "115731.942000", "115731.944000", "115731.947000", "115751.900000", "115751.903000", "115751.906000", "115751.908000", "115751.911000", "115751.913000", "115751.915000", "115751.918000", "115751.920000", "115751.923000", "115751.925000", "115751.928000", "115751.930000", "115751.933000", "115751.935000", "115751.938000", "115751.940000", "115751.942000", "115751.947000", "115751.949000", "115811.900000", "115811.903000", "115811.905000", "115811.908000", "115811.910000", "115811.913000", "115811.915000", "115811.917000", "115811.920000", "115811.922000", "115811.925000", "115811.927000", "115811.930000", "115811.932000", "115811.934000", "115811.937000", "115811.939000", "115811.942000", "115811.944000", "115811.947000", "115831.900000", "115831.903000", "115831.905000", "115831.908000", "115831.910000", "115831.913000", "115831.915000", "115831.917000", "115831.920000", "115831.922000", "115831.925000", "115831.927000", "115831.930000", "115831.932000", "115831.935000", "115831.937000", "115831.940000", "115831.942000", "115831.944000", "115831.947000", "115851.901000", "115851.904000", "115851.907000", "115851.909000", "115851.912000", "115851.914000", "115851.916000", "115851.919000", "115851.921000", "115851.924000", "115851.926000", "115851.929000", "115851.931000", "115851.934000", "115851.936000", "115851.938000", "115851.941000", "115851.943000", "115851.946000", "115851.948000", "115911.901000", "115911.904000", "115911.906000", "115911.909000", "115911.912000", "115911.914000", "115911.916000", "115911.919000", "115911.921000", "115911.924000", "115911.926000", "115911.929000", "115911.931000", "115911.934000", "115911.936000", "115911.939000", "115911.941000", "115911.944000", "115911.946000", "115911.949000", "115931.900000", "115931.903000", "115931.906000", "115931.908000", "115931.910000", "115931.913000", "115931.915000", "115931.918000", "115931.920000", "115931.923000", "115931.925000", "115931.928000", "115931.930000", "115931.933000", "115931.935000", "115931.937000", "115931.940000", "115931.942000", "115931.945000", "115931.947000", "115951.900000", "115951.903000", "115951.906000", "115951.908000", "115951.910000", "115951.913000", "115951.915000", "115951.918000", "115951.920000", "115951.923000", "115951.925000", "115951.928000", "115951.930000", "115951.933000", "115951.935000", "115951.937000", "115951.940000", "115951.942000", "115951.959000", "115951.962000", "120008.784000", "120008.787000", "120008.789000", "120008.792000", "120008.794000", "120008.797000", "120008.800000", "120008.802000", "120008.805000", "120008.807000", "120008.810000", "120008.812000", "120008.815000", "120008.817000", "120008.819000", "120008.822000", "120008.824000"],
      "InstanceNumber": [1, 2, 3, 4, 5, 6, 7, 8, 9, 10, 11, 12, 13, 14, 15, 16, 17, 18, 19, 20, 21, 22, 23, 24, 25, 26, 27, 28, 29, 30, 31, 32, 33, 34, 35, 36, 37, 38, 39, 40, 41, 42, 43, 44, 45, 46, 47, 48, 49, 50, 51, 52, 53, 54, 55, 56, 57, 58, 59, 60, 61, 62, 63, 64, 65, 66, 67, 68, 69, 70, 71, 72, 73, 74, 75, 76, 77, 78, 79, 80, 81, 82, 83, 84, 85, 86, 87, 88, 89, 90, 91, 92, 93, 94, 95, 96, 97, 98, 99, 100, 101, 102, 103, 104, 105, 106, 107, 108, 109, 110, 111, 112, 113, 114, 115, 116, 117, 118, 119, 120, 121, 122, 123, 124, 125, 126, 127, 128, 129, 130, 131, 132, 133, 134, 135, 136, 137, 138, 139, 140, 141, 142, 143, 144, 145, 146, 147, 148, 149, 150, 151, 152, 153, 154, 155, 156, 157, 158, 159, 160, 161, 162, 163, 164, 165, 166, 167, 168, 169, 170, 171, 172, 173, 174, 175, 176, 177, 178, 179, 180, 181, 182, 183, 184, 185, 186, 187, 188, 189, 190, 191, 192, 193, 194, 195, 196, 197, 198, 199, 200, 201, 202, 203, 204, 205, 206, 207, 208, 209, 210, 211, 212, 213, 214, 215, 216, 217, 218, 219, 220, 221, 222, 223, 224, 225, 226, 227, 228, 229, 230, 231, 232, 233, 234, 235, 236, 237, 238, 239, 240, 241, 242, 243, 244, 245, 246, 247, 248, 249, 250, 251, 252, 253, 254, 255, 256, 257, 258, 259, 260, 261, 262, 263, 264],
      "LargestImagePixelValue": [11737, 11677, 11568, 11443, 11353, 11267, 11238, 11142, 11123, 11110, 10948, 10964, 11046, 11063, 11172, 11172, 11262, 11224, 11331, 11189, 11301, 11164, 11139, 11031, 11055, 11062, 11051, 11127, 11044, 11096, 11146, 10996, 11039, 11017, 11138, 11247, 11264, 11257, 11230, 11273, 11434, 11458, 11350, 11265, 11564, 11520, 11392, 11427, 11535, 11498, 11402, 11504, 11314, 11399, 11347, 11277, 11197, 11228, 11294, 11028, 11017, 10976, 11053, 11125, 10942, 10867, 11058, 11022, 10903, 10921, 11036, 10879, 10977, 11244, 11146, 11021, 11198, 11219, 11192, 11200, 11209, 11269, 11075, 11137, 11115, 11195, 11223, 11268, 11300, 11220, 11214, 11299, 11235, 11357, 11344, 11252, 11408, 11348, 11347, 11241, 11338, 11280, 11239, 11289, 11224, 11110, 11076, 11197, 11171, 11041, 11212, 11108, 11159, 11193, 11191, 11376, 11203, 11275, 11266, 11385, 11417, 11349, 11435, 11366, 11227, 11398, 11093, 11043, 11056, 11030, 10983, 10962, 11066, 11039, 11186, 11200, 11260, 11177, 11212, 11335, 11195, 11167, 11203, 11234, 11145, 11111, 11039, 11117, 10986, 11053, 11105, 11010, 11086, 11005, 11014, 11038, 11114, 11053, 11021, 11105, 11090, 11079, 11245, 11130, 11106, 11091, 11178, 11135, 11175, 11156, 11272, 11151, 11161, 11158, 10961, 10939, 11017, 11090, 11149, 11180, 10973, 10906, 11035, 11115, 11243, 11262, 11322, 11255, 11159, 11213, 11171, 11028, 11121, 11041, 11032, 11053, 11096, 11154, 11136, 11140, 11268, 11283, 11218, 11340, 11358, 11401, 11420, 11281, 11173, 11312, 11277, 11205, 11266, 11260, 11074, 11120, 11207, 11094, 11173, 11176, 11236, 11200, 11198, 11347, 11390, 11215, 11356, 11444, 11212, 11309, 11323, 11200, 11279, 11388, 11267, 11216, 11255, 11310, 11042, 11225, 11230, 11093, 11109, 11145, 11007, 11031, 11201, 11164, 11173, 11300, 11174, 11025, 11084, 11127, 11264, 11072, 11232, 11111, 11151, 11218, 11196, 11108, 11225, 11195],
      "TriggerTime": [8102.5, 9102.5, 10102.5, 11102.5, 12102.5, 13102.5, 14102.5, 15102.5, 16102.5, 17102.5, 18102.5, 19102.5, 20102.5, 21102.5, 22102.5, 23102.5, 24102.5, 25102.5, 26102.5, 27102.5, 28102.5, 29102.5, 30102.5, 31102.5, 32102.5, 33102.5, 34102.5, 35102.5, 36102.5, 37102.5, 38102.5, 39102.5, 40102.5, 41102.5, 42102.5, 43102.5, 44102.5, 45102.5, 46102.5, 47102.5, 48102.5, 49102.5, 50102.5, 51102.5, 52102.5, 53102.5, 54102.5, 55102.5, 56102.5, 57102.5, 58102.5, 59102.5, 60102.5, 61102.5, 62102.5, 63102.5, 64102.5, 65102.5, 66102.5, 67102.5, 68102.5, 69102.5, 70102.5, 71102.5, 72102.5, 73102.5, 74102.5, 75102.5, 76102.5, 77102.5, 78102.5, 79102.5, 80102.5, 81102.5, 82102.5, 83102.5, 84102.5, 85102.5, 86102.5, 87102.5, 88102.5, 89102.5, 90102.5, 91102.5, 92102.5, 93102.5, 94102.5, 95102.5, 96102.5, 97102.5, 98102.5, 99102.5, 100102.5, 101102.5, 102102.5, 103102.5, 104102.5, 105102.5, 106102.5, 107102.5, 108102.5, 109102.5, 110102.5, 111102.5, 112102.5, 113102.5, 114102.5, 115102.5, 116102.5, 117102.5, 118102.5, 119102.5, 120102.5, 121102.5, 122102.5, 123102.5, 124102.5, 125102.5, 126102.5, 127102.5, 128102.5, 129102.5, 130102.5, 131102.5, 132102.5, 133102.5, 134102.5, 135102.5, 136102.5, 137102.5, 138102.5, 139102.5, 140102.5, 141102.5, 142102.5, 143102.5, 144102.5, 145102.5, 146102.5, 147102.5, 148102.5, 149102.5, 150102.5, 151102.5, 152102.5, 153102.5, 154102.5, 155102.5, 156102.5, 157102.5, 158102.5, 159102.5, 160102.5, 161102.5, 162102.5, 163102.5, 164102.5, 165102.5, 166102.5, 167102.5, 168102.5, 169102.5, 170102.5, 171102.5, 172102.5, 173102.5, 174102.5, 175102.5, 176102.5, 177102.5, 178102.5, 179102.5, 180102.5, 181102.5, 182102.5, 183102.5, 184102.5, 185102.5, 186102.5, 187102.5, 188102.5, 189102.5, 190102.5, 191102.5, 192102.5, 193102.5, 194102.5, 195102.5, 196102.5, 197102.5, 198102.5, 199102.5, 200102.5, 201102.5, 202102.5, 203102.5, 204102.5, 205102.5, 206102.5, 207102.5, 208102.5, 209102.5, 210102.5, 211102.5, 212102.5, 213102.5, 214102.5, 215102.5, 216102.5, 217102.5, 218102.5, 219102.5, 220102.5, 221102.5, 222102.5, 223102.5, 224102.5, 225102.5, 226102.5, 227102.5, 228102.5, 229102.5, 230102.5, 231102.5, 232102.5, 233102.5, 234102.5, 235102.5, 236102.5, 237102.5, 238102.5, 239102.5, 240102.5, 241102.5, 242102.5, 243102.5, 244102.5, 245102.5, 246102.5, 247102.5, 248102.5, 249102.5, 250102.5, 251102.5, 252102.5, 253102.5, 254102.5, 255102.5, 256102.5, 257102.5, 258102.5, 259102.5, 260102.5, 261102.5, 262102.5, 263102.5, 264102.5, 265102.5, 266102.5, 267102.5, 268102.5, 269102.5, 270102.5, 271102.5],
      "WindowCenter": [4629.0, 4629.0, 4626.0, 4611.0, 4586.0, 4582.0, 4572.0, 4558.0, 4568.0, 4558.0, 4556.0, 4558.0, 4557.0, 4554.0, 4567.0, 4567.0, 4567.0, 4567.0, 4556.0, 4555.0, 4552.0, 4541.0, 4541.0, 4542.0, 4552.0, 4555.0, 4554.0, 4566.0, 4567.0, 4570.0, 4569.0, 4559.0, 4570.0, 4572.0, 4584.0, 4586.0, 4597.0, 4599.0, 4598.0, 4587.0, 4597.0, 4599.0, 4598.0, 4599.0, 4610.0, 4612.0, 4612.0, 4612.0, 4611.0, 4613.0, 4624.0, 4610.0, 4601.0, 4613.0, 4602.0, 4610.0, 4601.0, 4599.0, 4599.0, 4586.0, 4572.0, 4569.0, 4568.0, 4565.0, 4555.0, 4541.0, 4552.0, 4541.0, 4541.0, 4542.0, 4543.0, 4542.0, 4554.0, 4565.0, 4568.0, 4571.0, 4596.0, 4600.0, 4597.0, 4586.0, 4584.0, 4583.0, 4583.0, 4586.0, 4586.0, 4587.0, 4597.0, 4599.0, 4599.0, 4600.0, 4599.0, 4601.0, 4599.0, 4598.0, 4597.0, 4603.0, 4610.0, 4601.0, 4601.0, 4601.0, 4600.0, 4599.0, 4598.0, 4601.0, 4598.0, 4598.0, 4589.0, 4585.0, 4584.0, 4584.0, 4584.0, 4584.0, 4584.0, 4597.0, 4585.0, 4596.0, 4585.0, 4588.0, 4585.0, 4596.0, 4595.0, 4598.0, 4609.0, 4599.0, 4598.0, 4599.0, 4588.0, 4599.0, 4585.0, 4587.0, 4575.0, 4587.0, 4584.0, 4574.0, 4587.0, 4589.0, 4598.0, 4597.0, 4597.0, 4599.0, 4600.0, 4601.0, 4597.0, 4597.0, 4598.0, 4597.0, 4586.0, 4596.0, 4585.0, 4585.0, 4586.0, 4586.0, 4595.0, 4586.0, 4574.0, 4586.0, 4585.0, 4584.0, 4574.0, 4584.0, 4585.0, 4586.0, 4586.0, 4598.0, 4599.0, 4602.0, 4601.0, 4598.0, 4586.0, 4586.0, 4585.0, 4585.0, 4583.0, 4584.0, 4586.0, 4588.0, 4585.0, 4586.0, 4587.0, 4587.0, 4584.0, 4572.0, 4574.0, 4584.0, 4585.0, 4597.0, 4600.0, 4599.0, 4584.0, 4574.0, 4573.0, 4570.0, 4570.0, 4571.0, 4574.0, 4584.0, 4586.0, 4587.0, 4598.0, 4587.0, 4584.0, 4585.0, 4586.0, 4586.0, 4586.0, 4596.0, 4599.0, 4588.0, 4588.0, 4588.0, 4586.0, 4587.0, 4588.0, 4585.0, 4585.0, 4586.0, 4597.0, 4586.0, 4598.0, 4599.0, 4599.0, 4600.0, 4602.0, 4602.0, 4612.0, 4601.0, 4599.0, 4598.0, 4599.0, 4599.0, 4598.0, 4589.0, 4587.0, 4598.0, 4589.0, 4599.0, 4588.0, 4587.0, 4587.0, 4597.0, 4599.0, 4586.0, 4587.0, 4587.0, 4588.0, 4585.0, 4586.0, 4583.0, 4586.0, 4583.0, 4583.0, 4572.0, 4583.0, 4586.0, 4587.0, 4586.0, 4585.0, 4587.0, 4586.0, 4597.0, 4590.0, 4588.0, 4586.0, 4586.0],
