{
  "AcquisitionMatrixPE": 106,
  "AcquisitionNumber": 1,
  "AcquisitionTime": "11:44:54.150000",
  "BandwidthPerPixelPhaseEncode": 16.846,
  "BaseResolution": 106,
  "BodyPartExamined": "BRAIN",
  "CoilCombinationMethod": "Sum of Squares",
  "ConsistencyInfo": "N4_VE11C_LATEST_20160120",
  "ConversionSoftware": "dcm2niix",
  "ConversionSoftwareVersion": "v1.0.20220720",
  "DerivedVendorReportedEchoSpacing": 0.000560012,
  "DeviceSerialNumber": "166108",
  "DwellTime": 1.8e-06,
  "EchoTime": 0.0352,
  "EchoTrainLength": 106,
  "EffectiveEchoSpacing": 0.000560012,
  "FlipAngle": 60,
  "HeudiconvVersion": "1.3.0",
  "ImageComments": "Unaliased MB4/PE3/LB",
  "ImageOrientationPatientDICOM": [1, 0, 0, 0, 0.917755, -0.397148],
  "ImageOrientationText": "Tra>Cor(-23.4)",
  "ImageType": [
    "ORIGINAL",
    "PRIMARY",
    "M",
    "MB",
    "ND",
    "MOSAIC"
],
  "ImagingFrequency": 123.244,
  "InPlanePhaseEncodingDirectionDICOM": "COL",
  "InstitutionAddress": "Bedford Way 26,London,London,GB,WC1H 0AP",
  "InstitutionName": "University College",
  "InstitutionalDepartmentName": "Department",
  "MRAcquisitionType": "2D",
  "MagneticFieldStrength": 3,
  "Manufacturer": "Siemens",
  "ManufacturersModelName": "Prisma",
  "MatrixCoilMode": "SENSE",
  "Modality": "MR",
  "MultibandAccelerationFactor": 4,
  "NonlinearGradientCorrection": false,
  "PartialFourier": 1,
  "PatientPosition": "HFS",
  "PercentPhaseFOV": 100,
  "PercentSampling": 100,
  "PhaseEncodingDirection": "j-",
  "PhaseEncodingSteps": 106,
  "PhaseResolution": 1,
  "PixelBandwidth": 2620,
  "ProcedureStepDescription": "Egor^MovieProject2",
  "ProtocolName": "func-bold_task-pRF_run-03",
  "PulseSequenceDetails": "%CustomerSeq%\\cmrr_mbep2d_bold",
  "ReceiveCoilActiveElements": "HEA;HEP",
  "ReceiveCoilName": "Head_32",
  "ReconMatrixPE": 106,
  "RepetitionTime": 1,
  "SAR": 0.0744536,
  "ScanOptions": "FS\\EXT",
  "ScanningSequence": "EP",
  "SequenceName": "epfid2d1_106",
  "SequenceVariant": "SK\\SS",
  "SeriesDescription": "func-bold_task-pRF_run-03",
  "SeriesNumber": 14,
  "ShimSetting": [-1515, 676, 7353, -18, -90, 248, 154, -58],
  "SliceThickness": 2,
  "SliceTiming": [0, 0.4075, 0.815, 0.245, 0.6525, 0.08, 0.49, 0.8975, 0.325, 0.735, 0.1625, 0.57, 0, 0.4075, 0.815, 0.245, 0.6525, 0.08, 0.49, 0.8975, 0.325, 0.735, 0.1625, 0.57, 0, 0.4075, 0.815, 0.245, 0.6525, 0.08, 0.49, 0.8975, 0.325, 0.735, 0.1625, 0.57, 0, 0.4075, 0.815, 0.245, 0.6525, 0.08, 0.49, 0.8975, 0.325, 0.735, 0.1625, 0.57],
  "SoftwareVersions": "syngo MR E11",
  "SpacingBetweenSlices": 2,
  "StationName": "AWP166108",
  "TaskName": "retinotopy",
  "TotalReadoutTime": 0.0588013,
  "TxRefAmp": 243.532,
  "WipMemBlock": "fc91863f-634b-477b-b1e1-a4f78a64cb16||Sequence: R016 ve11c/master r/e634e98; Dec 19 2017 11:00:25 by eja",
  "dcmmeta_affine": [
    [-2.0, 0.0, 0.0, 106.0],
    [0.0, 1.8355093002319336, -0.7942957282066345, -77.39739990234375],
    [0.0, 0.7942957282066345, 1.8355093002319336, -51.12700271606445],
    [0.0, 0.0, 0.0, 1.0]
],
  "dcmmeta_reorient_transform": [
    [0.0, -1.0, 0.0, 105.0],
    [1.0, 0.0, 0.0, 0.0],
    [0.0, 0.0, 1.0, 0.0],
    [0.0, 0.0, 0.0, 1.0]
],
  "dcmmeta_shape": [106, 106, 48, 356],
  "dcmmeta_slice_dim": 2,
  "dcmmeta_version": 0.6,
  "global": {
    "const": {
      "AcquisitionMatrix": [106, 0, 0, 106],
      "AngioFlag": "N",
      "BitsAllocated": 16,
      "BitsStored": 16,
      "BodyPartExamined": "BRAIN",
      "CardiacNumberOfImages": 1,
      "Columns": 742,
      "EchoNumbers": 1,
      "EchoTime": 35.2,
      "EchoTrainLength": 106,
      "FlipAngle": 60.0,
      "HighBit": 15,
      "ImageOrientationPatient": [1.0, 0.0, 0.0, 0.0, 0.9177546397099, -0.3971478582228],
      "ImagePositionPatient": [-742.0, -699.02302637446, 284.86008714408],
      "ImageType": [
        "ORIGINAL",
        "PRIMARY",
        "M",
        "MB",
        "ND",
        "MOSAIC"
],
      "ImagedNucleus": "1H",
      "ImagingFrequency": 123.243653,
      "InPlanePhaseEncodingDirection": "COL",
      "MRAcquisitionType": "2D",
      "MagneticFieldStrength": 3.0,
      "Manufacturer": "SIEMENS",
      "ManufacturerModelName": "Prisma",
      "Modality": "MR",
      "NominalInterval": 0,
      "NumberOfAverages": 1.0,
      "NumberOfPhaseEncodingSteps": 106,
      "PercentPhaseFieldOfView": 100.0,
      "PercentSampling": 100.0,
      "PerformedProcedureStepStartTime": "103952.020000",
      "PhotometricInterpretation": "MONOCHROME2",
      "PixelBandwidth": 2620.0,
      "PixelRepresentation": 0,
      "PixelSpacing": [2.0, 2.0],
      "ProtocolName": "func-bold_task-pRF_run-03",
      "RepetitionTime": 1000.0,
      "Rows": 742,
      "SAR": 0.07445358742554,
      "SamplesPerPixel": 1,
      "ScanOptions": [
        "FS",
        "EXT"
],
      "ScanningSequence": "EP",
      "SequenceName": "epfid2d1_106",
      "SequenceVariant": [
        "SK",
        "SS"
],
      "SeriesDescription": "func-bold_task-pRF_run-03",
      "SeriesNumber": 14,
      "SeriesTime": "114531.989000",
      "SliceLocation": -16.183831128382,
      "SliceThickness": 2.0,
      "SmallestImagePixelValue": 0,
      "SoftwareVersions": "syngo MR E11",
      "SpacingBetweenSlices": 2.0000000247918,
      "SpecificCharacterSet": "ISO_IR 100",
      "StudyID": "1",
      "StudyTime": "103951.965000",
      "TransmitCoilName": "Body",
      "VariableFlipAngleFlag": "N",
      "WindowCenterWidthExplanation": "Algo1",
      "dBdt": 0.0},
    "slices": {}
  },
  "time": {
    "samples": {
      "AcquisitionNumber": [1, 2, 3, 4, 5, 6, 7, 8, 9, 10, 11, 12, 13, 14, 15, 16, 17, 18, 19, 20, 21, 22, 23, 24, 25, 26, 27, 28, 29, 30, 31, 32, 33, 34, 35, 36, 37, 38, 39, 40, 41, 42, 43, 44, 45, 46, 47, 48, 49, 50, 51, 52, 53, 54, 55, 56, 57, 58, 59, 60, 61, 62, 63, 64, 65, 66, 67, 68, 69, 70, 71, 72, 73, 74, 75, 76, 77, 78, 79, 80, 81, 82, 83, 84, 85, 86, 87, 88, 89, 90, 91, 92, 93, 94, 95, 96, 97, 98, 99, 100, 101, 102, 103, 104, 105, 106, 107, 108, 109, 110, 111, 112, 113, 114, 115, 116, 117, 118, 119, 120, 121, 122, 123, 124, 125, 126, 127, 128, 129, 130, 131, 132, 133, 134, 135, 136, 137, 138, 139, 140, 141, 142, 143, 144, 145, 146, 147, 148, 149, 150, 151, 152, 153, 154, 155, 156, 157, 158, 159, 160, 161, 162, 163, 164, 165, 166, 167, 168, 169, 170, 171, 172, 173, 174, 175, 176, 177, 178, 179, 180, 181, 182, 183, 184, 185, 186, 187, 188, 189, 190, 191, 192, 193, 194, 195, 196, 197, 198, 199, 200, 201, 202, 203, 204, 205, 206, 207, 208, 209, 210, 211, 212, 213, 214, 215, 216, 217, 218, 219, 220, 221, 222, 223, 224, 225, 226, 227, 228, 229, 230, 231, 232, 233, 234, 235, 236, 237, 238, 239, 240, 241, 242, 243, 244, 245, 246, 247, 248, 249, 250, 251, 252, 253, 254, 255, 256, 257, 258, 259, 260, 261, 262, 263, 264, 265, 266, 267, 268, 269, 270, 271, 272, 273, 274, 275, 276, 277, 278, 279, 280, 281, 282, 283, 284, 285, 286, 287, 288, 289, 290, 291, 292, 293, 294, 295, 296, 297, 298, 299, 300, 301, 302, 303, 304, 305, 306, 307, 308, 309, 310, 311, 312, 313, 314, 315, 316, 317, 318, 319, 320, 321, 322, 323, 324, 325, 326, 327, 328, 329, 330, 331, 332, 333, 334, 335, 336, 337, 338, 339, 340, 341, 342, 343, 344, 345, 346, 347, 348, 349, 350, 351, 352, 353, 354, 355, 356],
      "AcquisitionTime": ["114454.150000", "114455.150000", "114456.150000", "114457.150000", "114458.150000", "114459.150000", "114500.150000", "114501.150000", "114502.150000", "114503.150000", "114504.150000", "114505.150000", "114506.150000", "114507.150000", "114508.150000", "114509.150000", "114510.150000", "114511.150000", "114512.150000", "114513.150000", "114514.150000", "114515.150000", "114516.150000", "114517.150000", "114518.150000", "114519.150000", "114520.150000", "114521.150000", "114522.150000", "114523.150000", "114524.150000", "114525.150000", "114526.150000", "114527.150000", "114528.150000", "114529.150000", "114530.150000", "114531.150000", "114532.150000", "114533.150000", "114534.150000", "114535.150000", "114536.150000", "114537.150000", "114538.150000", "114539.150000", "114540.150000", "114541.150000", "114542.150000", "114543.150000", "114544.150000", "114545.150000", "114546.150000", "114547.150000", "114548.150000", "114549.150000", "114550.150000", "114551.150000", "114552.150000", "114553.150000", "114554.150000", "114555.150000", "114556.150000", "114557.150000", "114558.150000", "114559.150000", "114600.150000", "114601.150000", "114602.150000", "114603.150000", "114604.150000", "114605.150000", "114606.150000", "114607.150000", "114608.150000", "114609.150000", "114610.150000", "114611.150000", "114612.150000", "114613.150000", "114614.150000", "114615.150000", "114616.150000", "114617.150000", "114618.150000", "114619.150000", "114620.150000", "114621.150000", "114622.150000", "114623.150000", "114624.150000", "114625.150000", "114626.150000", "114627.150000", "114628.150000", "114629.150000", "114630.150000", "114631.150000", "114632.150000", "114633.150000", "114634.150000", "114635.150000", "114636.150000", "114637.150000", "114638.150000", "114639.150000", "114640.150000", "114641.150000", "114642.150000", "114643.150000", "114644.150000", "114645.150000", "114646.150000", "114647.150000", "114648.150000", "114649.150000", "114650.150000", "114651.150000", "114652.150000", "114653.150000", "114654.150000", "114655.150000", "114656.150000", "114657.150000", "114658.150000", "114659.150000", "114700.150000", "114701.150000", "114702.150000", "114703.150000", "114704.150000", "114705.150000", "114706.150000", "114707.150000", "114708.150000", "114709.150000", "114710.150000", "114711.150000", "114712.150000", "114713.150000", "114714.150000", "114715.150000", "114716.150000", "114717.150000", "114718.150000", "114719.150000", "114720.150000", "114721.150000", "114722.150000", "114723.150000", "114724.150000", "114725.150000", "114726.150000", "114727.150000", "114728.150000", "114729.150000", "114730.150000", "114731.150000", "114732.150000", "114733.150000", "114734.150000", "114735.150000", "114736.150000", "114737.150000", "114738.150000", "114739.150000", "114740.150000", "114741.150000", "114742.150000", "114743.150000", "114744.150000", "114745.150000", "114746.150000", "114747.150000", "114748.150000", "114749.150000", "114750.150000", "114751.150000", "114752.150000", "114753.150000", "114754.150000", "114755.150000", "114756.150000", "114757.150000", "114758.150000", "114759.150000", "114800.150000", "114801.150000", "114802.150000", "114803.150000", "114804.150000", "114805.150000", "114806.150000", "114807.150000", "114808.150000", "114809.150000", "114810.150000", "114811.150000", "114812.150000", "114813.150000", "114814.150000", "114815.150000", "114816.150000", "114817.150000", "114818.150000", "114819.150000", "114820.150000", "114821.150000", "114822.150000", "114823.150000", "114824.150000", "114825.150000", "114826.150000", "114827.150000", "114828.150000", "114829.150000", "114830.150000", "114831.150000", "114832.150000", "114833.150000", "114834.150000", "114835.150000", "114836.150000", "114837.150000", "114838.150000", "114839.150000", "114840.150000", "114841.150000", "114842.150000", "114843.150000", "114844.150000", "114845.150000", "114846.150000", "114847.150000", "114848.150000", "114849.150000", "114850.150000", "114851.150000", "114852.150000", "114853.150000", "114854.150000", "114855.150000", "114856.150000", "114857.150000", "114858.150000", "114859.150000", "114900.150000", "114901.150000", "114902.150000", "114903.150000", "114904.150000", "114905.150000", "114906.150000", "114907.150000", "114908.150000", "114909.150000", "114910.150000", "114911.150000", "114912.150000", "114913.150000", "114914.150000", "114915.150000", "114916.150000", "114917.150000", "114918.150000", "114919.150000", "114920.150000", "114921.150000", "114922.150000", "114923.150000", "114924.150000", "114925.150000", "114926.150000", "114927.150000", "114928.150000", "114929.150000", "114930.150000", "114931.150000", "114932.150000", "114933.150000", "114934.150000", "114935.150000", "114936.150000", "114937.150000", "114938.150000", "114939.150000", "114940.150000", "114941.150000", "114942.150000", "114943.150000", "114944.150000", "114945.150000", "114946.150000", "114947.150000", "114948.150000", "114949.150000", "114950.150000", "114951.150000", "114952.150000", "114953.150000", "114954.150000", "114955.150000", "114956.150000", "114957.150000", "114958.150000", "114959.150000", "115000.150000", "115001.150000", "115002.150000", "115003.150000", "115004.150000", "115005.150000", "115006.150000", "115007.150000", "115008.150000", "115009.150000", "115010.150000", "115011.150000", "115012.150000", "115013.150000", "115014.150000", "115015.150000", "115016.150000", "115017.150000", "115018.150000", "115019.150000", "115020.150000", "115021.150000", "115022.150000", "115023.150000", "115024.150000", "115025.150000", "115026.150000", "115027.150000", "115028.150000", "115029.150000", "115030.150000", "115031.150000", "115032.150000", "115033.150000", "115034.150000", "115035.150000", "115036.150000", "115037.150000", "115038.150000", "115039.150000", "115040.150000", "115041.150000", "115042.150000", "115043.150000", "115044.150000", "115045.150000", "115046.150000", "115047.150000", "115048.150000", "115049.150000"],
      "ContentTime": ["114531.991000", "114531.994000", "114531.996000", "114532.000000", "114532.003000", "114532.005000", "114532.007000", "114532.010000", "114532.012000", "114532.015000", "114532.017000", "114532.020000", "114532.022000", "114532.025000", "114532.027000", "114532.030000", "114532.033000", "114532.035000", "114532.037000", "114532.040000", "114532.048000", "114532.050000", "114532.053000", "114532.055000", "114532.058000", "114532.060000", "114532.063000", "114532.065000", "114532.068000", "114532.070000", "114532.073000", "114532.075000", "114532.083000", "114532.085000", "114532.088000", "114532.090000", "114532.093000", "114551.962000", "114551.965000", "114551.968000", "114551.970000", "114551.972000", "114551.975000", "114551.977000", "114551.980000", "114551.982000", "114551.985000", "114551.987000", "114551.990000", "114551.992000", "114551.995000", "114551.997000", "114552.001000", "114552.003000", "114552.006000", "114552.008000", "114552.010000", "114611.962000", "114611.965000", "114611.968000", "114611.970000", "114611.973000", "114611.975000", "114611.977000", "114611.980000", "114611.982000", "114611.985000", "114611.987000", "114611.990000", "114611.992000", "114611.995000", "114611.997000", "114612.001000", "114612.003000", "114612.006000", "114612.008000", "114612.010000", "114631.962000", "114631.965000", "114631.968000", "114631.970000", "114631.972000", "114631.982000", "114631.984000", "114631.987000", "114631.989000", "114631.992000", "114631.994000", "114631.997000", "114632.000000", "114632.003000", "114632.005000", "114632.007000", "114632.010000", "114632.012000", "114632.015000", "114632.017000", "114651.962000", "114651.965000", "114651.968000", "114651.970000", "114651.973000", "114651.975000", "114651.978000", "114651.988000", "114651.991000", "114651.993000", "114651.996000", "114651.998000", "114652.002000", "114652.004000", "114652.007000", "114652.009000", "114652.012000", "114652.014000", "114652.017000", "114652.019000", "114711.963000", "114711.965000", "114711.968000", "114711.970000", "114711.973000", "114711.975000", "114711.978000", "114711.987000", "114711.989000", "114711.992000", "114711.994000", "114711.997000", "114712.000000", "114712.003000", "114712.005000", "114712.008000", "114712.010000", "114712.013000", "114712.015000", "114712.018000", "114731.964000", "114731.966000", "114731.969000", "114731.971000", "114731.974000", "114731.976000", "114731.979000", "114731.981000", "114731.984000", "114731.986000", "114731.989000", "114731.991000", "114731.994000", "114731.996000", "114732.000000", "114732.002000", "114732.005000", "114732.007000", "114732.010000", "114732.012000", "114751.962000", "114751.965000", "114751.968000", "114751.970000", "114751.973000", "114751.975000", "114751.977000", "114751.980000", "114751.982000", "114751.985000", "114751.987000", "114751.990000", "114751.992000", "114751.995000", "114751.997000", "114752.001000", "114752.004000", "114752.006000", "114752.008000", "114752.011000", "114811.963000", "114811.965000", "114811.968000", "114811.970000", "114811.973000", "114811.975000", "114811.978000", "114811.980000", "114811.983000", "114811.985000", "114811.988000", "114811.990000", "114811.993000", "114811.995000", "114811.998000", "114812.001000", "114812.004000", "114812.006000", "114812.009000", "114812.011000", "114831.962000", "114831.965000", "114831.968000", "114831.970000", "114831.972000", "114831.975000", "114831.977000", "114831.980000", "114831.982000", "114831.985000", "114831.987000", "114831.990000", "114831.992000", "114831.995000", "114831.997000", "114832.001000", "114832.003000", "114832.006000", "114832.020000", "114832.022000", "114851.963000", "114851.965000", "114851.968000", "114851.970000", "114851.973000", "114851.975000", "114851.978000", "114851.980000", "114851.983000", "114851.985000", "114851.988000", "114851.990000", "114851.993000", "114851.995000", "114851.998000", "114852.001000", "114852.004000", "114852.006000", "114852.009000", "114852.011000", "114911.963000", "114911.965000", "114911.968000", "114911.970000", "114911.973000", "114911.975000", "114911.978000", "114911.980000", "114911.983000", "114911.985000", "114911.988000", "114911.990000", "114911.993000", "114911.995000", "114911.998000", "114912.001000", "114912.004000", "114912.006000", "114912.009000", "114912.011000", "114931.962000", "114931.965000", "114931.968000", "114931.970000", "114931.973000", "114931.975000", "114931.978000", "114931.980000", "114931.983000", "114931.985000", "114931.988000", "114931.990000", "114931.993000", "114931.995000", "114931.998000", "114932.001000", "114932.004000", "114932.006000", "114932.009000", "114932.011000", "114951.963000", "114951.966000", "114951.968000", "114951.971000", "114951.973000", "114951.976000", "114951.978000", "114951.981000", "114951.983000", "114951.986000", "114951.988000", "114951.991000", "114951.993000", "114951.996000", "114951.998000", "114952.002000", "114952.004000", "114952.007000", "114952.009000", "114952.012000", "115011.963000", "115011.965000", "115011.968000", "115011.970000", "115011.973000", "115011.975000", "115011.978000", "115011.980000", "115011.982000", "115011.985000", "115011.988000", "115011.990000", "115011.993000", "115011.995000", "115011.998000", "115012.001000", "115012.004000", "115012.006000", "115012.008000", "115012.011000", "115031.962000", "115031.965000", "115031.968000", "115031.970000", "115031.973000", "115031.975000", "115031.978000", "115031.980000", "115031.983000", "115031.985000", "115031.988000", "115031.990000", "115031.993000", "115031.995000", "115031.998000", "115032.001000", "115032.004000", "115032.006000", "115032.009000", "115032.011000", "115050.716000", "115050.719000", "115050.722000", "115050.725000", "115050.728000", "115050.730000", "115050.733000", "115050.735000", "115050.738000", "115050.740000", "115050.743000", "115050.745000", "115050.748000", "115050.750000", "115050.753000", "115050.755000", "115050.758000", "115050.760000", "115050.763000"],
      "InstanceCreationTime": ["114531.991000", "114531.994000", "114531.996000", "114532.000000", "114532.003000", "114532.005000", "114532.007000", "114532.010000", "114532.012000", "114532.015000", "114532.017000", "114532.020000", "114532.022000", "114532.025000", "114532.027000", "114532.030000", "114532.033000", "114532.035000", "114532.037000", "114532.040000", "114532.048000", "114532.050000", "114532.053000", "114532.055000", "114532.058000", "114532.060000", "114532.063000", "114532.065000", "114532.068000", "114532.070000", "114532.073000", "114532.075000", "114532.083000", "114532.085000", "114532.088000", "114532.090000", "114532.093000", "114551.962000", "114551.965000", "114551.968000", "114551.970000", "114551.972000", "114551.975000", "114551.977000", "114551.980000", "114551.982000", "114551.985000", "114551.987000", "114551.990000", "114551.992000", "114551.995000", "114551.997000", "114552.001000", "114552.003000", "114552.006000", "114552.008000", "114552.010000", "114611.962000", "114611.965000", "114611.968000", "114611.970000", "114611.973000", "114611.975000", "114611.977000", "114611.980000", "114611.982000", "114611.985000", "114611.987000", "114611.990000", "114611.992000", "114611.995000", "114611.997000", "114612.001000", "114612.003000", "114612.006000", "114612.008000", "114612.010000", "114631.962000", "114631.965000", "114631.968000", "114631.970000", "114631.972000", "114631.982000", "114631.984000", "114631.987000", "114631.989000", "114631.992000", "114631.994000", "114631.997000", "114632.000000", "114632.003000", "114632.005000", "114632.007000", "114632.010000", "114632.012000", "114632.015000", "114632.017000", "114651.962000", "114651.965000", "114651.968000", "114651.970000", "114651.973000", "114651.975000", "114651.978000", "114651.988000", "114651.991000", "114651.993000", "114651.996000", "114651.998000", "114652.002000", "114652.004000", "114652.007000", "114652.009000", "114652.012000", "114652.014000", "114652.017000", "114652.019000", "114711.963000", "114711.965000", "114711.968000", "114711.970000", "114711.973000", "114711.975000", "114711.978000", "114711.987000", "114711.989000", "114711.992000", "114711.994000", "114711.997000", "114712.000000", "114712.003000", "114712.005000", "114712.008000", "114712.010000", "114712.013000", "114712.015000", "114712.018000", "114731.964000", "114731.966000", "114731.969000", "114731.971000", "114731.974000", "114731.976000", "114731.979000", "114731.981000", "114731.984000", "114731.986000", "114731.989000", "114731.991000", "114731.994000", "114731.996000", "114732.000000", "114732.002000", "114732.005000", "114732.007000", "114732.010000", "114732.012000", "114751.962000", "114751.965000", "114751.968000", "114751.970000", "114751.973000", "114751.975000", "114751.977000", "114751.980000", "114751.982000", "114751.985000", "114751.987000", "114751.990000", "114751.992000", "114751.995000", "114751.997000", "114752.001000", "114752.004000", "114752.006000", "114752.008000", "114752.011000", "114811.963000", "114811.965000", "114811.968000", "114811.970000", "114811.973000", "114811.975000", "114811.978000", "114811.980000", "114811.983000", "114811.985000", "114811.988000", "114811.990000", "114811.993000", "114811.995000", "114811.998000", "114812.001000", "114812.004000", "114812.006000", "114812.009000", "114812.011000", "114831.962000", "114831.965000", "114831.968000", "114831.970000", "114831.972000", "114831.975000", "114831.977000", "114831.980000", "114831.982000", "114831.985000", "114831.987000", "114831.990000", "114831.992000", "114831.995000", "114831.997000", "114832.001000", "114832.003000", "114832.006000", "114832.020000", "114832.022000", "114851.963000", "114851.965000", "114851.968000", "114851.970000", "114851.973000", "114851.975000", "114851.978000", "114851.980000", "114851.983000", "114851.985000", "114851.988000", "114851.990000", "114851.993000", "114851.995000", "114851.998000", "114852.001000", "114852.004000", "114852.006000", "114852.009000", "114852.011000", "114911.963000", "114911.965000", "114911.968000", "114911.970000", "114911.973000", "114911.975000", "114911.978000", "114911.980000", "114911.983000", "114911.985000", "114911.988000", "114911.990000", "114911.993000", "114911.995000", "114911.998000", "114912.001000", "114912.004000", "114912.006000", "114912.009000", "114912.011000", "114931.962000", "114931.965000", "114931.968000", "114931.970000", "114931.973000", "114931.975000", "114931.978000", "114931.980000", "114931.983000", "114931.985000", "114931.988000", "114931.990000", "114931.993000", "114931.995000", "114931.998000", "114932.001000", "114932.004000", "114932.006000", "114932.009000", "114932.011000", "114951.963000", "114951.966000", "114951.968000", "114951.971000", "114951.973000", "114951.976000", "114951.978000", "114951.981000", "114951.983000", "114951.986000", "114951.988000", "114951.991000", "114951.993000", "114951.996000", "114951.998000", "114952.002000", "114952.004000", "114952.007000", "114952.009000", "114952.012000", "115011.963000", "115011.965000", "115011.968000", "115011.970000", "115011.973000", "115011.975000", "115011.978000", "115011.980000", "115011.982000", "115011.985000", "115011.988000", "115011.990000", "115011.993000", "115011.995000", "115011.998000", "115012.001000", "115012.004000", "115012.006000", "115012.008000", "115012.011000", "115031.962000", "115031.965000", "115031.968000", "115031.970000", "115031.973000", "115031.975000", "115031.978000", "115031.980000", "115031.983000", "115031.985000", "115031.988000", "115031.990000", "115031.993000", "115031.995000", "115031.998000", "115032.001000", "115032.004000", "115032.006000", "115032.009000", "115032.011000", "115050.716000", "115050.719000", "115050.722000", "115050.725000", "115050.728000", "115050.730000", "115050.733000", "115050.735000", "115050.738000", "115050.740000", "115050.743000", "115050.745000", "115050.748000", "115050.750000", "115050.753000", "115050.755000", "115050.758000", "115050.760000", "115050.763000"],
      "InstanceNumber": [1, 2, 3, 4, 5, 6, 7, 8, 9, 10, 11, 12, 13, 14, 15, 16, 17, 18, 19, 20, 21, 22, 23, 24, 25, 26, 27, 28, 29, 30, 31, 32, 33, 34, 35, 36, 37, 38, 39, 40, 41, 42, 43, 44, 45, 46, 47, 48, 49, 50, 51, 52, 53, 54, 55, 56, 57, 58, 59, 60, 61, 62, 63, 64, 65, 66, 67, 68, 69, 70, 71, 72, 73, 74, 75, 76, 77, 78, 79, 80, 81, 82, 83, 84, 85, 86, 87, 88, 89, 90, 91, 92, 93, 94, 95, 96, 97, 98, 99, 100, 101, 102, 103, 104, 105, 106, 107, 108, 109, 110, 111, 112, 113, 114, 115, 116, 117, 118, 119, 120, 121, 122, 123, 124, 125, 126, 127, 128, 129, 130, 131, 132, 133, 134, 135, 136, 137, 138, 139, 140, 141, 142, 143, 144, 145, 146, 147, 148, 149, 150, 151, 152, 153, 154, 155, 156, 157, 158, 159, 160, 161, 162, 163, 164, 165, 166, 167, 168, 169, 170, 171, 172, 173, 174, 175, 176, 177, 178, 179, 180, 181, 182, 183, 184, 185, 186, 187, 188, 189, 190, 191, 192, 193, 194, 195, 196, 197, 198, 199, 200, 201, 202, 203, 204, 205, 206, 207, 208, 209, 210, 211, 212, 213, 214, 215, 216, 217, 218, 219, 220, 221, 222, 223, 224, 225, 226, 227, 228, 229, 230, 231, 232, 233, 234, 235, 236, 237, 238, 239, 240, 241, 242, 243, 244, 245, 246, 247, 248, 249, 250, 251, 252, 253, 254, 255, 256, 257, 258, 259, 260, 261, 262, 263, 264, 265, 266, 267, 268, 269, 270, 271, 272, 273, 274, 275, 276, 277, 278, 279, 280, 281, 282, 283, 284, 285, 286, 287, 288, 289, 290, 291, 292, 293, 294, 295, 296, 297, 298, 299, 300, 301, 302, 303, 304, 305, 306, 307, 308, 309, 310, 311, 312, 313, 314, 315, 316, 317, 318, 319, 320, 321, 322, 323, 324, 325, 326, 327, 328, 329, 330, 331, 332, 333, 334, 335, 336, 337, 338, 339, 340, 341, 342, 343, 344, 345, 346, 347, 348, 349, 350, 351, 352, 353, 354, 355, 356],
      "LargestImagePixelValue": [11159, 11031, 10706, 10667, 10478, 10482, 10422, 10588, 10524, 10411, 10552, 10405, 10363, 10345, 10396, 10423, 10561, 10721, 10718, 10725, 10881, 10759, 10857, 10648, 10730, 10685, 10418, 10511, 10499, 10452, 10558, 10395, 10506, 10482, 10395, 10375, 10513, 10325, 10170, 10472, 10409, 10517, 10438, 10457, 10408, 10537, 10449, 10390, 10628, 10549, 10475, 10627, 10413, 10423, 10432, 10424, 10393, 10386, 10579, 10428, 10311, 10325, 10434, 10422, 10493, 10493, 10397, 10331, 10451, 10292, 10237, 10290, 10371, 10431, 10525, 10516, 10512, 10505, 10541, 10450, 10432, 10330, 10393, 10403, 10489, 10512, 10569, 10482, 10626, 10471, 10346, 10496, 10751, 10829, 10861, 10664, 10668, 10418, 10475, 10458, 10494, 10499, 10412, 10399, 10375, 10461, 10487, 10401, 10549, 10620, 10289, 10314, 10786, 10457, 10577, 10563, 10592, 10452, 10479, 10514, 10571, 10595, 10585, 10756, 10724, 10634, 10586, 10335, 10382, 10506, 10562, 10486, 10407, 10370, 10299, 10339, 10360, 10449, 10478, 10526, 10443, 10348, 10403, 10437, 10424, 10527, 10440, 10468, 10491, 10344, 10487, 10616, 10400, 10437, 10445, 10500, 10456, 10411, 10261, 10507, 10329, 10309, 10250, 10558, 10381, 10344, 10267, 10543, 10339, 10346, 10384, 10518, 10321, 10587, 10507, 10430, 10422, 10452, 10606, 10520, 10533, 10509, 10356, 10408, 10481, 10366, 10351, 10394, 10413, 10556, 10505, 10493, 10485, 10465, 10486, 10371, 10500, 10461, 10439, 10625, 10425, 10502, 10596, 10576, 10620, 10599, 10614, 10654, 10600, 10485, 10592, 10404, 10331, 10461, 10702, 10737, 10687, 10517, 10617, 10439, 10582, 10572, 10644, 10629, 10681, 10604, 10699, 10570, 10548, 10468, 10709, 10580, 10569, 10579, 10582, 10561, 10523, 10398, 10436, 10560, 10624, 10439, 10678, 10621, 10610, 10533, 10491, 10281, 10306, 10277, 10466, 10261, 10439, 10530, 10470, 10430, 10501, 10523, 10622, 10630, 10607, 10575, 10376, 10311, 10435, 10459, 10656, 10392, 10595, 10471, 10586, 10421, 10486, 10586, 10497, 10552, 10344, 10327, 10565, 10542, 10430, 10468, 10417, 10606, 10556, 10663, 10443, 10525, 10503, 10441, 10495, 10412, 10550, 10430, 10278, 10529, 10511, 10364, 10624, 10586, 10607, 10393, 10685, 10757, 10712, 10614, 10478, 10531, 10433, 10478, 10359, 10312, 10581, 10591, 10438, 10301, 10333, 10639, 10577, 10549, 10467, 10422, 10556, 10490, 10273, 10465, 10617, 10456, 10498, 10268, 10763, 10662, 10560, 10341, 10686, 10448, 10306, 10431, 10610, 10507, 10438, 10509, 10507, 10454, 10395, 10303, 10441, 10473, 10636, 10774, 10607, 10472, 10511, 10559, 10489, 10507],
