{
  "AcquisitionMatrixPE": 106,
  "AcquisitionNumber": 1,
  "AcquisitionTime": "16:55:45.497500",
  "BandwidthPerPixelPhaseEncode": 16.846,
  "BaseResolution": 106,
  "BodyPartExamined": "BRAIN",
  "CoilCombinationMethod": "Sum of Squares",
  "ConsistencyInfo": "N4_VE11C_LATEST_20160120",
  "ConversionSoftware": "dcm2niix",
  "ConversionSoftwareVersion": "v1.0.20220720",
  "DerivedVendorReportedEchoSpacing": 0.000560012,
  "DeviceSerialNumber": "166108",
  "DwellTime": 1.8e-06,
  "EchoTime": 0.0352,
  "EchoTrainLength": 106,
  "EffectiveEchoSpacing": 0.000560012,
  "FlipAngle": 60,
  "HeudiconvVersion": "1.3.0",
  "ImageComments": "Unaliased MB4/PE3/LB",
  "ImageOrientationPatientDICOM": [1, 0, 0, 0, 1, 0],
  "ImageOrientationText": "Tra",
  "ImageType": [
    "ORIGINAL",
    "PRIMARY",
    "M",
    "MB",
    "ND",
    "MOSAIC"
],
  "ImagingFrequency": 123.244,
  "InPlanePhaseEncodingDirectionDICOM": "COL",
  "InstitutionAddress": "Bedford Way 26,London,London,GB,WC1H 0AP",
  "InstitutionName": "University College",
  "InstitutionalDepartmentName": "Department",
  "MRAcquisitionType": "2D",
  "MagneticFieldStrength": 3,
  "Manufacturer": "Siemens",
  "ManufacturersModelName": "Prisma",
  "MatrixCoilMode": "SENSE",
  "Modality": "MR",
  "MultibandAccelerationFactor": 4,
  "NonlinearGradientCorrection": false,
  "PartialFourier": 1,
  "PatientPosition": "HFS",
  "PercentPhaseFOV": 100,
  "PercentSampling": 100,
  "PhaseEncodingDirection": "j-",
  "PhaseEncodingSteps": 106,
  "PhaseResolution": 1,
  "PixelBandwidth": 2620,
  "ProcedureStepDescription": "Egor^MovieProject2",
  "ProtocolName": "task-backtothefuture_run-3",
  "PulseSequenceDetails": "%CustomerSeq%\\cmrr_mbep2d_bold",
  "ReceiveCoilActiveElements": "HEA;HEP",
  "ReceiveCoilName": "Head_32",
  "ReconMatrixPE": 106,
  "RepetitionTime": 1.5,
  "SAR": 0.0857606,
  "ScanOptions": "FS\\EXT",
  "ScanningSequence": "EP",
  "SequenceName": "epfid2d1_106",
  "SequenceVariant": "SK\\SS",
  "SeriesDescription": "task-backtothefuture_run-3",
  "SeriesNumber": 11,
  "ShimSetting": [-1542, 674, 7386, 76, -63, 43, -16, -52],
  "SliceThickness": 2,
  "SliceTiming": [0, 1.07, 0.66, 0.2475, 1.3175, 0.905, 0.495, 0.0825, 1.1525, 0.74, 0.33, 1.4, 0.9875, 0.5775, 0.165, 1.235, 0.8225, 0.4125, 0, 1.07, 0.66, 0.2475, 1.3175, 0.905, 0.495, 0.0825, 1.1525, 0.74, 0.33, 1.4, 0.9875, 0.5775, 0.165, 1.235, 0.8225, 0.4125, 0, 1.07, 0.66, 0.2475, 1.3175, 0.905, 0.495, 0.0825, 1.1525, 0.74, 0.33, 1.4, 0.9875, 0.5775, 0.165, 1.235, 0.8225, 0.4125, 0, 1.07, 0.66, 0.2475, 1.3175, 0.905, 0.495, 0.0825, 1.1525, 0.74, 0.33, 1.4, 0.9875, 0.5775, 0.165, 1.235, 0.8225, 0.4125],
  "SoftwareVersions": "syngo MR E11",
  "SpacingBetweenSlices": 2,
  "StationName": "AWP166108",
  "TaskName": "backtothefuture",
  "TotalReadoutTime": 0.0588013,
  "TxRefAmp": 235.156,
  "WipMemBlock": "994ab338-72aa-41ee-8b12-9e0ec1770536||Sequence: R016 ve11c/master r/e634e98; Dec 19 2017 11:00:25 by eja",
  "dcmmeta_affine": [
    [-2.0, 0.0, 0.0, 106.0],
    [0.0, 2.0, 0.0, -86.53012084960938],
    [0.0, 0.0, 2.0, -59.55421829223633],
    [0.0, 0.0, 0.0, 1.0]
],
  "dcmmeta_reorient_transform": [
    [0.0, -1.0, 0.0, 105.0],
    [1.0, 0.0, 0.0, 0.0],
    [0.0, 0.0, 1.0, 0.0],
    [0.0, 0.0, 0.0, 1.0]
],
  "dcmmeta_shape": [106, 106, 72, 1608],
  "dcmmeta_slice_dim": 2,
  "dcmmeta_version": 0.6,
  "global": {
    "const": {
      "AcquisitionMatrix": [106, 0, 0, 106],
      "AngioFlag": "N",
      "BitsAllocated": 16,
      "BitsStored": 16,
      "BodyPartExamined": "BRAIN",
      "CardiacNumberOfImages": 1,
      "Columns": 954,
      "EchoNumbers": 1,
      "EchoTime": 35.2,
      "EchoTrainLength": 106,
      "FlipAngle": 60.0,
      "HighBit": 15,
      "ImageOrientationPatient": [1.0, 0.0, 0.0, 0.0, 1.0, 0.0],
      "ImagePositionPatient": [-954.0, -971.46987915039, -59.554218292236],
      "ImageType": [
        "ORIGINAL",
        "PRIMARY",
        "M",
        "MB",
        "ND",
        "MOSAIC"
],
      "ImagedNucleus": "1H",
      "ImagingFrequency": 123.243696,
      "InPlanePhaseEncodingDirection": "COL",
      "MRAcquisitionType": "2D",
      "MagneticFieldStrength": 3.0,
      "Manufacturer": "SIEMENS",
      "ManufacturerModelName": "Prisma",
      "Modality": "MR",
      "NominalInterval": 0,
      "NumberOfAverages": 1.0,
      "NumberOfPhaseEncodingSteps": 106,
      "PercentPhaseFieldOfView": 100.0,
      "PercentSampling": 100.0,
      "PerformedProcedureStepStartTime": "150813.247000",
      "PhotometricInterpretation": "MONOCHROME2",
      "PixelBandwidth": 2620.0,
      "PixelRepresentation": 0,
      "PixelSpacing": [2.0, 2.0],
      "ProtocolName": "task-backtothefuture_run-3",
      "RepetitionTime": 1500.0,
      "Rows": 954,
      "SAR": 0.08576063241081,
      "SamplesPerPixel": 1,
      "ScanOptions": [
        "FS",
        "EXT"
],
      "ScanningSequence": "EP",
      "SequenceName": "epfid2d1_106",
      "SequenceVariant": [
        "SK",
        "SS"
],
      "SeriesDescription": "task-backtothefuture_run-3",
      "SeriesNumber": 11,
      "SeriesTime": "165634.945000",
      "SliceLocation": -59.554218292236,
      "SliceThickness": 2.0,
      "SmallestImagePixelValue": 0,
      "SoftwareVersions": "syngo MR E11",
      "SpacingBetweenSlices": 2.0000000537281,
      "SpecificCharacterSet": "ISO_IR 100",
      "StudyID": "1",
      "StudyTime": "150813.175000",
      "TransmitCoilName": "Body",
      "VariableFlipAngleFlag": "N",
      "WindowCenterWidthExplanation": "Algo1",
      "dBdt": 0.0},
    "slices": {}
  },
  "time": {
    "samples": {
      "AcquisitionNumber": [1, 2, 3, 4, 5, 6, 7, 8, 9, 10, 11, 12, 13, 14, 15, 16, 17, 18, 19, 20, 21, 22, 23, 24, 25, 26, 27, 28, 29, 30, 31, 32, 33, 34, 35, 36, 37, 38, 39, 40, 41, 42, 43, 44, 45, 46, 47, 48, 49, 50, 51, 52, 53, 54, 55, 56, 57, 58, 59, 60, 61, 62, 63, 64, 65, 66, 67, 68, 69, 70, 71, 72, 73, 74, 75, 76, 77, 78, 79, 80, 81, 82, 83, 84, 85, 86, 87, 88, 89, 90, 91, 92, 93, 94, 95, 96, 97, 98, 99, 100, 101, 102, 103, 104, 105, 106, 107, 108, 109, 110, 111, 112, 113, 114, 115, 116, 117, 118, 119, 120, 121, 122, 123, 124, 125, 126, 127, 128, 129, 130, 131, 132, 133, 134, 135, 136, 137, 138, 139, 140, 141, 142, 143, 144, 145, 146, 147, 148, 149, 150, 151, 152, 153, 154, 155, 156, 157, 158, 159, 160, 161, 162, 163, 164, 165, 166, 167, 168, 169, 170, 171, 172, 173, 174, 175, 176, 177, 178, 179, 180, 181, 182, 183, 184, 185, 186, 187, 188, 189, 190, 191, 192, 193, 194, 195, 196, 197, 198, 199, 200, 201, 202, 203, 204, 205, 206, 207, 208, 209, 210, 211, 212, 213, 214, 215, 216, 217, 218, 219, 220, 221, 222, 223, 224, 225, 226, 227, 228, 229, 230, 231, 232, 233, 234, 235, 236, 237, 238, 239, 240, 241, 242, 243, 244, 245, 246, 247, 248, 249, 250, 251, 252, 253, 254, 255, 256, 257, 258, 259, 260, 261, 262, 263, 264, 265, 266, 267, 268, 269, 270, 271, 272, 273, 274, 275, 276, 277, 278, 279, 280, 281, 282, 283, 284, 285, 286, 287, 288, 289, 290, 291, 292, 293, 294, 295, 296, 297, 298, 299, 300, 301, 302, 303, 304, 305, 306, 307, 308, 309, 310, 311, 312, 313, 314, 315, 316, 317, 318, 319, 320, 321, 322, 323, 324, 325, 326, 327, 328, 329, 330, 331, 332, 333, 334, 335, 336, 337, 338, 339, 340, 341, 342, 343, 344, 345, 346, 347, 348, 349, 350, 351, 352, 353, 354, 355, 356, 357, 358, 359, 360, 361, 362, 363, 364, 365, 366, 367, 368, 369, 370, 371, 372, 373, 374, 375, 376, 377, 378, 379, 380, 381, 382, 383, 384, 385, 386, 387, 388, 389, 390, 391, 392, 393, 394, 395, 396, 397, 398, 399, 400, 401, 402, 403, 404, 405, 406, 407, 408, 409, 410, 411, 412, 413, 414, 415, 416, 417, 418, 419, 420, 421, 422, 423, 424, 425, 426, 427, 428, 429, 430, 431, 432, 433, 434, 435, 436, 437, 438, 439, 440, 441, 442, 443, 444, 445, 446, 447, 448, 449, 450, 451, 452, 453, 454, 455, 456, 457, 458, 459, 460, 461, 462, 463, 464, 465, 466, 467, 468, 469, 470, 471, 472, 473, 474, 475, 476, 477, 478, 479, 480, 481, 482, 483, 484, 485, 486, 487, 488, 489, 490, 491, 492, 493, 494, 495, 496, 497, 498, 499, 500, 501, 502, 503, 504, 505, 506, 507, 508, 509, 510, 511, 512, 513, 514, 515, 516, 517, 518, 519, 520, 521, 522, 523, 524, 525, 526, 527, 528, 529, 530, 531, 532, 533, 534, 535, 536, 537, 538, 539, 540, 541, 542, 543, 544, 545, 546, 547, 548, 549, 550, 551, 552, 553, 554, 555, 556, 557, 558, 559, 560, 561, 562, 563, 564, 565, 566, 567, 568, 569, 570, 571, 572, 573, 574, 575, 576, 577, 578, 579, 580, 581, 582, 583, 584, 585, 586, 587, 588, 589, 590, 591, 592, 593, 594, 595, 596, 597, 598, 599, 600, 601, 602, 603, 604, 605, 606, 607, 608, 609, 610, 611, 612, 613, 614, 615, 616, 617, 618, 619, 620, 621, 622, 623, 624, 625, 626, 627, 628, 629, 630, 631, 632, 633, 634, 635, 636, 637, 638, 639, 640, 641, 642, 643, 644, 645, 646, 647, 648, 649, 650, 651, 652, 653, 654, 655, 656, 657, 658, 659, 660, 661, 662, 663, 664, 665, 666, 667, 668, 669, 670, 671, 672, 673, 674, 675, 676, 677, 678, 679, 680, 681, 682, 683, 684, 685, 686, 687, 688, 689, 690, 691, 692, 693, 694, 695, 696, 697, 698, 699, 700, 701, 702, 703, 704, 705, 706, 707, 708, 709, 710, 711, 712, 713, 714, 715, 716, 717, 718, 719, 720, 721, 722, 723, 724, 725, 726, 727, 728, 729, 730, 731, 732, 733, 734, 735, 736, 737, 738, 739, 740, 741, 742, 743, 744, 745, 746, 747, 748, 749, 750, 751, 752, 753, 754, 755, 756, 757, 758, 759, 760, 761, 762, 763, 764, 765, 766, 767, 768, 769, 770, 771, 772, 773, 774, 775, 776, 777, 778, 779, 780, 781, 782, 783, 784, 785, 786, 787, 788, 789, 790, 791, 792, 793, 794, 795, 796, 797, 798, 799, 800, 801, 802, 803, 804, 805, 806, 807, 808, 809, 810, 811, 812, 813, 814, 815, 816, 817, 818, 819, 820, 821, 822, 823, 824, 825, 826, 827, 828, 829, 830, 831, 832, 833, 834, 835, 836, 837, 838, 839, 840, 841, 842, 843, 844, 845, 846, 847, 848, 849, 850, 851, 852, 853, 854, 855, 856, 857, 858, 859, 860, 861, 862, 863, 864, 865, 866, 867, 868, 869, 870, 871, 872, 873, 874, 875, 876, 877, 878, 879, 880, 881, 882, 883, 884, 885, 886, 887, 888, 889, 890, 891, 892, 893, 894, 895, 896, 897, 898, 899, 900, 901, 902, 903, 904, 905, 906, 907, 908, 909, 910, 911, 912, 913, 914, 915, 916, 917, 918, 919, 920, 921, 922, 923, 924, 925, 926, 927, 928, 929, 930, 931, 932, 933, 934, 935, 936, 937, 938, 939, 940, 941, 942, 943, 944, 945, 946, 947, 948, 949, 950, 951, 952, 953, 954, 955, 956, 957, 958, 959, 960, 961, 962, 963, 964, 965, 966, 967, 968, 969, 970, 971, 972, 973, 974, 975, 976, 977, 978, 979, 980, 981, 982, 983, 984, 985, 986, 987, 988, 989, 990, 991, 992, 993, 994, 995, 996, 997, 998, 999, 1000, 1001, 1002, 1003, 1004, 1005, 1006, 1007, 1008, 1009, 1010, 1011, 1012, 1013, 1014, 1015, 1016, 1017, 1018, 1019, 1020, 1021, 1022, 1023, 1024, 1025, 1026, 1027, 1028, 1029, 1030, 1031, 1032, 1033, 1034, 1035, 1036, 1037, 1038, 1039, 1040, 1041, 1042, 1043, 1044, 1045, 1046, 1047, 1048, 1049, 1050, 1051, 1052, 1053, 1054, 1055, 1056, 1057, 1058, 1059, 1060, 1061, 1062, 1063, 1064, 1065, 1066, 1067, 1068, 1069, 1070, 1071, 1072, 1073, 1074, 1075, 1076, 1077, 1078, 1079, 1080, 1081, 1082, 1083, 1084, 1085, 1086, 1087, 1088, 1089, 1090, 1091, 1092, 1093, 1094, 1095, 1096, 1097, 1098, 1099, 1100, 1101, 1102, 1103, 1104, 1105, 1106, 1107, 1108, 1109, 1110, 1111, 1112, 1113, 1114, 1115, 1116, 1117, 1118, 1119, 1120, 1121, 1122, 1123, 1124, 1125, 1126, 1127, 1128, 1129, 1130, 1131, 1132, 1133, 1134, 1135, 1136, 1137, 1138, 1139, 1140, 1141, 1142, 1143, 1144, 1145, 1146, 1147, 1148, 1149, 1150, 1151, 1152, 1153, 1154, 1155, 1156, 1157, 1158, 1159, 1160, 1161, 1162, 1163, 1164, 1165, 1166, 1167, 1168, 1169, 1170, 1171, 1172, 1173, 1174, 1175, 1176, 1177, 1178, 1179, 1180, 1181, 1182, 1183, 1184, 1185, 1186, 1187, 1188, 1189, 1190, 1191, 1192, 1193, 1194, 1195, 1196, 1197, 1198, 1199, 1200, 1201, 1202, 1203, 1204, 1205, 1206, 1207, 1208, 1209, 1210, 1211, 1212, 1213, 1214, 1215, 1216, 1217, 1218, 1219, 1220, 1221, 1222, 1223, 1224, 1225, 1226, 1227, 1228, 1229, 1230, 1231, 1232, 1233, 1234, 1235, 1236, 1237, 1238, 1239, 1240, 1241, 1242, 1243, 1244, 1245, 1246, 1247, 1248, 1249, 1250, 1251, 1252, 1253, 1254, 1255, 1256, 1257, 1258, 1259, 1260, 1261, 1262, 1263, 1264, 1265, 1266, 1267, 1268, 1269, 1270, 1271, 1272, 1273, 1274, 1275, 1276, 1277, 1278, 1279, 1280, 1281, 1282, 1283, 1284, 1285, 1286, 1287, 1288, 1289, 1290, 1291, 1292, 1293, 1294, 1295, 1296, 1297, 1298, 1299, 1300, 1301, 1302, 1303, 1304, 1305, 1306, 1307, 1308, 1309, 1310, 1311, 1312, 1313, 1314, 1315, 1316, 1317, 1318, 1319, 1320, 1321, 1322, 1323, 1324, 1325, 1326, 1327, 1328, 1329, 1330, 1331, 1332, 1333, 1334, 1335, 1336, 1337, 1338, 1339, 1340, 1341, 1342, 1343, 1344, 1345, 1346, 1347, 1348, 1349, 1350, 1351, 1352, 1353, 1354, 1355, 1356, 1357, 1358, 1359, 1360, 1361, 1362, 1363, 1364, 1365, 1366, 1367, 1368, 1369, 1370, 1371, 1372, 1373, 1374, 1375, 1376, 1377, 1378, 1379, 1380, 1381, 1382, 1383, 1384, 1385, 1386, 1387, 1388, 1389, 1390, 1391, 1392, 1393, 1394, 1395, 1396, 1397, 1398, 1399, 1400, 1401, 1402, 1403, 1404, 1405, 1406, 1407, 1408, 1409, 1410, 1411, 1412, 1413, 1414, 1415, 1416, 1417, 1418, 1419, 1420, 1421, 1422, 1423, 1424, 1425, 1426, 1427, 1428, 1429, 1430, 1431, 1432, 1433, 1434, 1435, 1436, 1437, 1438, 1439, 1440, 1441, 1442, 1443, 1444, 1445, 1446, 1447, 1448, 1449, 1450, 1451, 1452, 1453, 1454, 1455, 1456, 1457, 1458, 1459, 1460, 1461, 1462, 1463, 1464, 1465, 1466, 1467, 1468, 1469, 1470, 1471, 1472, 1473, 1474, 1475, 1476, 1477, 1478, 1479, 1480, 1481, 1482, 1483, 1484, 1485, 1486, 1487, 1488, 1489, 1490, 1491, 1492, 1493, 1494, 1495, 1496, 1497, 1498, 1499, 1500, 1501, 1502, 1503, 1504, 1505, 1506, 1507, 1508, 1509, 1510, 1511, 1512, 1513, 1514, 1515, 1516, 1517, 1518, 1519, 1520, 1521, 1522, 1523, 1524, 1525, 1526, 1527, 1528, 1529, 1530, 1531, 1532, 1533, 1534, 1535, 1536, 1537, 1538, 1539, 1540, 1541, 1542, 1543, 1544, 1545, 1546, 1547, 1548, 1549, 1550, 1551, 1552, 1553, 1554, 1555, 1556, 1557, 1558, 1559, 1560, 1561, 1562, 1563, 1564, 1565, 1566, 1567, 1568, 1569, 1570, 1571, 1572, 1573, 1574, 1575, 1576, 1577, 1578, 1579, 1580, 1581, 1582, 1583, 1584, 1585, 1586, 1587, 1588, 1589, 1590, 1591, 1592, 1593, 1594, 1595, 1596, 1597, 1598, 1599, 1600, 1601, 1602, 1603, 1604, 1605, 1606, 1607, 1608],
      "AcquisitionTime": ["165545.497500", "165546.997500", "165548.497500", "165549.997500", "165551.497500", "165552.997500", "165554.497500", "165555.997500", "165557.497500", "165558.997500", "165600.497500", "165601.997500", "165603.497500", "165604.997500", "165606.497500", "165607.997500", "165609.497500", "165610.997500", "165612.497500", "165613.997500", "165615.497500", "165616.997500", "165618.497500", "165619.997500", "165621.497500", "165622.997500", "165624.497500", "165625.997500", "165627.497500", "165628.997500", "165630.497500", "165631.997500", "165633.497500", "165634.997500", "165636.497500", "165637.997500", "165639.497500", "165640.997500", "165642.497500", "165643.997500", "165645.497500", "165646.997500", "165648.497500", "165649.997500", "165651.497500", "165652.997500", "165654.497500", "165655.997500", "165657.497500", "165658.997500", "165700.497500", "165701.997500", "165703.497500", "165704.997500", "165706.497500", "165707.997500", "165709.497500", "165710.997500", "165712.497500", "165713.997500", "165715.497500", "165716.997500", "165718.497500", "165719.997500", "165721.497500", "165722.997500", "165724.497500", "165725.997500", "165727.497500", "165728.997500", "165730.497500", "165731.997500", "165733.497500", "165734.997500", "165736.497500", "165737.997500", "165739.497500", "165740.997500", "165742.497500", "165743.997500", "165745.497500", "165746.997500", "165748.497500", "165749.997500", "165751.497500", "165752.997500", "165754.497500", "165755.997500", "165757.497500", "165758.997500", "165800.497500", "165801.997500", "165803.497500", "165804.997500", "165806.497500", "165807.997500", "165809.497500", "165810.997500", "165812.497500", "165813.997500", "165815.497500", "165816.997500", "165818.497500", "165819.997500", "165821.497500", "165822.997500", "165824.497500", "165825.997500", "165827.497500", "165828.997500", "165830.497500", "165831.997500", "165833.497500", "165834.997500", "165836.497500", "165837.997500", "165839.497500", "165840.997500", "165842.497500", "165843.997500", "165845.497500", "165846.997500", "165848.497500", "165849.997500", "165851.497500", "165852.997500", "165854.497500", "165855.997500", "165857.497500", "165858.997500", "165900.497500", "165901.997500", "165903.497500", "165904.997500", "165906.497500", "165907.997500", "165909.497500", "165910.997500", "165912.497500", "165913.997500", "165915.497500", "165916.997500", "165918.497500", "165919.997500", "165921.497500", "165922.997500", "165924.497500", "165925.997500", "165927.497500", "165928.997500", "165930.497500", "165931.997500", "165933.497500", "165934.997500", "165936.497500", "165937.997500", "165939.497500", "165940.997500", "165942.497500", "165943.997500", "165945.497500", "165946.997500", "165948.497500", "165949.997500", "165951.497500", "165952.997500", "165954.497500", "165955.997500", "165957.497500", "165958.997500", "170000.497500", "170001.997500", "170003.497500", "170004.997500", "170006.497500", "170007.997500", "170009.497500", "170010.997500", "170012.497500", "170013.997500", "170015.497500", "170016.997500", "170018.497500", "170019.997500", "170021.497500", "170022.997500", "170024.497500", "170025.997500", "170027.497500", "170028.997500", "170030.497500", "170031.997500", "170033.497500", "170034.997500", "170036.497500", "170037.997500", "170039.497500", "170040.997500", "170042.497500", "170043.997500", "170045.497500", "170046.997500", "170048.497500", "170049.997500", "170051.497500", "170052.997500", "170054.497500", "170055.997500", "170057.497500", "170058.997500", "170100.497500", "170101.997500", "170103.497500", "170104.997500", "170106.497500", "170107.997500", "170109.497500", "170110.997500", "170112.497500", "170113.997500", "170115.497500", "170116.997500", "170118.497500", "170119.997500", "170121.497500", "170122.997500", "170124.497500", "170125.997500", "170127.497500", "170128.997500", "170130.497500", "170131.997500", "170133.497500", "170134.997500", "170136.497500", "170137.997500", "170139.497500", "170140.997500", "170142.497500", "170143.997500", "170145.497500", "170146.997500", "170148.497500", "170149.997500", "170151.497500", "170152.997500", "170154.497500", "170155.997500", "170157.497500", "170158.997500", "170200.497500", "170201.997500", "170203.497500", "170204.997500", "170206.497500", "170207.997500", "170209.497500", "170210.997500", "170212.497500", "170213.997500", "170215.497500", "170216.997500", "170218.497500", "170219.997500", "170221.497500", "170222.997500", "170224.497500", "170225.997500", "170227.497500", "170228.997500", "170230.497500", "170231.997500", "170233.497500", "170234.997500", "170236.497500", "170237.997500", "170239.497500", "170240.997500", "170242.497500", "170243.997500", "170245.497500", "170246.997500", "170248.497500", "170249.997500", "170251.497500", "170252.997500", "170254.497500", "170255.997500", "170257.497500", "170258.997500", "170300.497500", "170301.997500", "170303.497500", "170304.997500", "170306.497500", "170307.997500", "170309.497500", "170310.997500", "170312.497500", "170313.997500", "170315.497500", "170316.997500", "170318.497500", "170319.997500", "170321.497500", "170322.997500", "170324.497500", "170325.997500", "170327.497500", "170328.997500", "170330.497500", "170331.997500", "170333.497500", "170334.997500", "170336.497500", "170337.997500", "170339.497500", "170340.997500", "170342.497500", "170343.997500", "170345.497500", "170346.997500", "170348.497500", "170349.997500", "170351.497500", "170352.997500", "170354.497500", "170355.997500", "170357.497500", "170358.997500", "170400.497500", "170401.997500", "170403.497500", "170404.997500", "170406.497500", "170407.997500", "170409.497500", "170410.997500", "170412.497500", "170413.997500", "170415.497500", "170416.997500", "170418.497500", "170419.997500", "170421.497500", "170422.997500", "170424.497500", "170425.997500", "170427.497500", "170428.997500", "170430.497500", "170431.997500", "170433.497500", "170434.997500", "170436.497500", "170437.997500", "170439.497500", "170440.997500", "170442.497500", "170443.997500", "170445.497500", "170446.997500", "170448.497500", "170449.997500", "170451.497500", "170452.997500", "170454.497500", "170455.997500", "170457.497500", "170458.997500", "170500.497500", "170501.997500", "170503.497500", "170504.997500", "170506.497500", "170507.997500", "170509.497500", "170510.997500", "170512.497500", "170513.997500", "170515.497500", "170516.997500", "170518.497500", "170519.997500", "170521.497500", "170522.997500", "170524.497500", "170525.997500", "170527.497500", "170528.997500", "170530.497500", "170531.997500", "170533.497500", "170534.997500", "170536.497500", "170537.997500", "170539.497500", "170540.997500", "170542.497500", "170543.997500", "170545.497500", "170546.997500", "170548.497500", "170549.997500", "170551.497500", "170552.997500", "170554.497500", "170555.997500", "170557.497500", "170558.997500", "170600.497500", "170601.997500", "170603.497500", "170604.997500", "170606.497500", "170607.997500", "170609.497500", "170610.997500", "170612.497500", "170613.997500", "170615.497500", "170616.997500", "170618.497500", "170619.997500", "170621.497500", "170622.997500", "170624.497500", "170625.997500", "170627.497500", "170628.997500", "170630.497500", "170631.997500", "170633.497500", "170634.997500", "170636.497500", "170637.997500", "170639.497500", "170640.997500", "170642.497500", "170643.997500", "170645.497500", "170646.997500", "170648.497500", "170649.997500", "170651.497500", "170652.997500", "170654.497500", "170655.997500", "170657.497500", "170658.997500", "170700.497500", "170701.997500", "170703.497500", "170704.997500", "170706.497500", "170707.997500", "170709.497500", "170710.997500", "170712.497500", "170713.997500", "170715.497500", "170716.997500", "170718.497500", "170719.997500", "170721.497500", "170722.997500", "170724.497500", "170725.997500", "170727.497500", "170728.997500", "170730.497500", "170731.997500", "170733.497500", "170734.997500", "170736.497500", "170737.997500", "170739.497500", "170740.997500", "170742.497500", "170743.997500", "170745.497500", "170746.997500", "170748.497500", "170749.997500", "170751.497500", "170752.997500", "170754.497500", "170755.997500", "170757.497500", "170758.997500", "170800.497500", "170801.997500", "170803.497500", "170804.997500", "170806.497500", "170807.997500", "170809.497500", "170810.997500", "170812.497500", "170813.997500", "170815.497500", "170816.997500", "170818.497500", "170819.997500", "170821.497500", "170822.997500", "170824.497500", "170825.997500", "170827.497500", "170828.997500", "170830.497500", "170831.997500", "170833.497500", "170834.997500", "170836.497500", "170837.997500", "170839.497500", "170840.997500", "170842.497500", "170843.997500", "170845.497500", "170846.997500", "170848.497500", "170849.997500", "170851.497500", "170852.997500", "170854.497500", "170855.997500", "170857.497500", "170858.997500", "170900.497500", "170901.997500", "170903.497500", "170904.997500", "170906.497500", "170907.997500", "170909.497500", "170910.997500", "170912.497500", "170913.997500", "170915.497500", "170916.997500", "170918.497500", "170919.997500", "170921.497500", "170922.997500", "170924.497500", "170925.997500", "170927.497500", "170928.997500", "170930.497500", "170931.997500", "170933.497500", "170934.997500", "170936.497500", "170937.997500", "170939.497500", "170940.997500", "170942.497500", "170943.997500", "170945.497500", "170946.997500", "170948.497500", "170949.997500", "170951.497500", "170952.997500", "170954.497500", "170955.997500", "170957.497500", "170958.997500", "171000.497500", "171001.997500", "171003.497500", "171004.997500", "171006.497500", "171007.997500", "171009.497500", "171010.997500", "171012.497500", "171013.997500", "171015.497500", "171016.997500", "171018.497500", "171019.997500", "171021.497500", "171022.997500", "171024.497500", "171025.997500", "171027.497500", "171028.997500", "171030.497500", "171031.997500", "171033.497500", "171034.997500", "171036.497500", "171037.997500", "171039.497500", "171040.997500", "171042.497500", "171043.997500", "171045.497500", "171046.997500", "171048.497500", "171049.997500", "171051.497500", "171052.997500", "171054.497500", "171055.997500", "171057.497500", "171058.997500", "171100.497500", "171101.997500", "171103.497500", "171104.997500", "171106.497500", "171107.997500", "171109.497500", "171110.997500", "171112.497500", "171113.997500", "171115.497500", "171116.997500", "171118.497500", "171119.997500", "171121.497500", "171122.997500", "171124.497500", "171125.997500", "171127.497500", "171128.997500", "171130.497500", "171131.997500", "171133.497500", "171134.997500", "171136.497500", "171137.997500", "171139.497500", "171140.997500", "171142.497500", "171143.997500", "171145.497500", "171146.997500", "171148.497500", "171149.997500", "171151.497500", "171152.997500", "171154.497500", "171155.997500", "171157.497500", "171158.997500", "171200.497500", "171201.997500", "171203.497500", "171204.997500", "171206.497500", "171207.997500", "171209.497500", "171210.997500", "171212.497500", "171213.997500", "171215.497500", "171216.997500", "171218.497500", "171219.997500", "171221.497500", "171222.997500", "171224.497500", "171225.997500", "171227.497500", "171228.997500", "171230.497500", "171231.997500", "171233.497500", "171234.997500", "171236.497500", "171237.997500", "171239.497500", "171240.997500", "171242.497500", "171243.997500", "171245.497500", "171246.997500", "171248.497500", "171249.997500", "171251.497500", "171252.997500", "171254.497500", "171255.997500", "171257.497500", "171258.997500", "171300.497500", "171301.997500", "171303.497500", "171304.997500", "171306.497500", "171307.997500", "171309.497500", "171310.997500", "171312.497500", "171313.997500", "171315.497500", "171316.997500", "171318.497500", "171319.997500", "171321.497500", "171322.997500", "171324.497500", "171325.997500", "171327.497500", "171328.997500", "171330.497500", "171331.997500", "171333.497500", "171334.997500", "171336.497500", "171337.997500", "171339.497500", "171340.997500", "171342.497500", "171343.997500", "171345.497500", "171346.997500", "171348.497500", "171349.997500", "171351.497500", "171352.997500", "171354.497500", "171355.997500", "171357.497500", "171358.997500", "171400.497500", "171401.997500", "171403.497500", "171404.997500", "171406.497500", "171407.997500", "171409.497500", "171410.997500", "171412.497500", "171413.997500", "171415.497500", "171416.997500", "171418.497500", "171419.997500", "171421.497500", "171422.997500", "171424.497500", "171425.997500", "171427.497500", "171428.997500", "171430.497500", "171431.997500", "171433.497500", "171434.997500", "171436.497500", "171437.997500", "171439.497500", "171440.997500", "171442.497500", "171443.997500", "171445.497500", "171446.997500", "171448.497500", "171449.997500", "171451.497500", "171452.997500", "171454.497500", "171455.997500", "171457.497500", "171458.997500", "171500.497500", "171501.997500", "171503.497500", "171504.997500", "171506.497500", "171507.997500", "171509.497500", "171510.997500", "171512.497500", "171513.997500", "171515.497500", "171516.997500", "171518.497500", "171519.997500", "171521.497500", "171522.997500", "171524.497500", "171525.997500", "171527.497500", "171528.997500", "171530.497500", "171531.997500", "171533.497500", "171534.997500", "171536.497500", "171537.997500", "171539.497500", "171540.997500", "171542.497500", "171543.997500", "171545.497500", "171546.997500", "171548.497500", "171549.997500", "171551.497500", "171552.997500", "171554.497500", "171555.997500", "171557.497500", "171558.997500", "171600.497500", "171601.997500", "171603.497500", "171604.997500", "171606.497500", "171607.997500", "171609.497500", "171610.997500", "171612.497500", "171613.997500", "171615.497500", "171616.997500", "171618.497500", "171619.997500", "171621.497500", "171622.997500", "171624.497500", "171625.997500", "171627.497500", "171628.997500", "171630.497500", "171631.997500", "171633.497500", "171634.997500", "171636.497500", "171637.997500", "171639.497500", "171640.997500", "171642.497500", "171643.997500", "171645.497500", "171646.997500", "171648.497500", "171649.997500", "171651.497500", "171652.997500", "171654.497500", "171655.997500", "171657.497500", "171658.997500", "171700.497500", "171701.997500", "171703.497500", "171704.997500", "171706.497500", "171707.997500", "171709.497500", "171710.997500", "171712.497500", "171713.997500", "171715.497500", "171716.997500", "171718.497500", "171719.997500", "171721.497500", "171722.997500", "171724.497500", "171725.997500", "171727.497500", "171728.997500", "171730.497500", "171731.997500", "171733.497500", "171734.997500", "171736.497500", "171737.997500", "171739.497500", "171740.997500", "171742.497500", "171743.997500", "171745.497500", "171746.997500", "171748.497500", "171749.997500", "171751.497500", "171752.997500", "171754.497500", "171755.997500", "171757.497500", "171758.997500", "171800.497500", "171801.997500", "171803.497500", "171804.997500", "171806.497500", "171807.997500", "171809.497500", "171810.997500", "171812.497500", "171813.997500", "171815.497500", "171816.997500", "171818.497500", "171819.997500", "171821.497500", "171822.997500", "171824.497500", "171825.997500", "171827.497500", "171828.997500", "171830.497500", "171831.997500", "171833.497500", "171834.997500", "171836.497500", "171837.997500", "171839.497500", "171840.997500", "171842.497500", "171843.997500", "171845.497500", "171846.997500", "171848.497500", "171849.997500", "171851.497500", "171852.997500", "171854.497500", "171855.997500", "171857.497500", "171858.997500", "171900.49