{
  "AcquisitionMatrixPE": 106,
  "AcquisitionNumber": 1,
  "AcquisitionTime": "16:13:50.357500",
  "BandwidthPerPixelPhaseEncode": 16.846,
  "BaseResolution": 106,
  "BodyPartExamined": "BRAIN",
  "CoilCombinationMethod": "Sum of Squares",
  "ConsistencyInfo": "N4_VE11C_LATEST_20160120",
  "ConversionSoftware": "dcm2niix",
  "ConversionSoftwareVersion": "v1.0.20220720",
  "DerivedVendorReportedEchoSpacing": 0.000560012,
  "DeviceSerialNumber": "166108",
  "DwellTime": 1.8e-06,
  "EchoTime": 0.0352,
  "EchoTrainLength": 106,
  "EffectiveEchoSpacing": 0.000560012,
  "FlipAngle": 60,
  "HeudiconvVersion": "1.3.0",
  "ImageComments": "Unaliased MB4/PE3/LB",
  "ImageOrientationPatientDICOM": [1, 0, 0, 0, 1, 0],
  "ImageOrientationText": "Tra",
  "ImageType": [
    "ORIGINAL",
    "PRIMARY",
    "M",
    "MB",
    "ND",
    "MOSAIC"
],
  "ImagingFrequency": 123.244,
  "InPlanePhaseEncodingDirectionDICOM": "COL",
  "InstitutionAddress": "Bedford Way 26,London,London,GB,WC1H 0AP",
  "InstitutionName": "University College",
  "InstitutionalDepartmentName": "Department",
  "MRAcquisitionType": "2D",
  "MagneticFieldStrength": 3,
  "Manufacturer": "Siemens",
  "ManufacturersModelName": "Prisma",
  "MatrixCoilMode": "SENSE",
  "Modality": "MR",
  "MultibandAccelerationFactor": 4,
  "NonlinearGradientCorrection": false,
  "PartialFourier": 1,
  "PatientPosition": "HFS",
  "PercentPhaseFOV": 100,
  "PercentSampling": 100,
  "PhaseEncodingDirection": "j-",
  "PhaseEncodingSteps": 106,
  "PhaseResolution": 1,
  "PixelBandwidth": 2620,
  "ProcedureStepDescription": "Egor^MovieProject2",
  "ProtocolName": "task-backtothefuture_run-2",
  "PulseSequenceDetails": "%CustomerSeq%\\cmrr_mbep2d_bold",
  "ReceiveCoilActiveElements": "HEA;HEP",
  "ReceiveCoilName": "Head_32",
  "ReconMatrixPE": 106,
  "RepetitionTime": 1.5,
  "SAR": 0.0857533,
  "ScanOptions": "FS\\EXT",
  "ScanningSequence": "EP",
  "SequenceName": "epfid2d1_106",
  "SequenceVariant": "SK\\SS",
  "SeriesDescription": "task-backtothefuture_run-2",
  "SeriesNumber": 7,
  "ShimSetting": [-1542, 674, 7386, 76, -63, 43, -16, -52],
  "SliceThickness": 2,
  "SliceTiming": [0, 1.07, 0.6575, 0.2475, 1.315, 0.905, 0.4925, 0.0825, 1.1525, 0.74, 0.33, 1.3975, 0.9875, 0.575, 0.165, 1.2325, 0.8225, 0.4125, 0, 1.07, 0.6575, 0.2475, 1.315, 0.905, 0.4925, 0.0825, 1.1525, 0.74, 0.33, 1.3975, 0.9875, 0.575, 0.165, 1.2325, 0.8225, 0.4125, 0, 1.07, 0.6575, 0.2475, 1.315, 0.905, 0.4925, 0.0825, 1.1525, 0.74, 0.33, 1.3975, 0.9875, 0.575, 0.165, 1.2325, 0.8225, 0.4125, 0, 1.07, 0.6575, 0.2475, 1.315, 0.905, 0.4925, 0.0825, 1.1525, 0.74, 0.33, 1.3975, 0.9875, 0.575, 0.165, 1.2325, 0.8225, 0.4125],
  "SoftwareVersions": "syngo MR E11",
  "SpacingBetweenSlices": 2,
  "StationName": "AWP166108",
  "TaskName": "backtothefuture",
  "TotalReadoutTime": 0.0588013,
  "TxRefAmp": 235.156,
  "WipMemBlock": "89e26b34-041f-49d8-ae13-758cacb3d226||Sequence: R016 ve11c/master r/e634e98; Dec 19 2017 11:00:25 by eja",
  "dcmmeta_affine": [
    [-2.0, 0.0, 0.0, 106.0],
    [0.0, 2.0, 0.0, -86.53012084960938],
    [0.0, 0.0, 2.0, -59.55421829223633],
    [0.0, 0.0, 0.0, 1.0]
],
  "dcmmeta_reorient_transform": [
    [0.0, -1.0, 0.0, 105.0],
    [1.0, 0.0, 0.0, 0.0],
    [0.0, 0.0, 1.0, 0.0],
    [0.0, 0.0, 0.0, 1.0]
],
  "dcmmeta_shape": [106, 106, 72, 1522],
  "dcmmeta_slice_dim": 2,
  "dcmmeta_version": 0.6,
  "global": {
    "const": {
      "AcquisitionMatrix": [106, 0, 0, 106],
      "AngioFlag": "N",
      "BitsAllocated": 16,
      "BitsStored": 16,
      "BodyPartExamined": "BRAIN",
      "CardiacNumberOfImages": 1,
      "Columns": 954,
      "EchoNumbers": 1,
      "EchoTime": 35.2,
      "EchoTrainLength": 106,
      "FlipAngle": 60.0,
      "HighBit": 15,
      "ImageOrientationPatient": [1.0, 0.0, 0.0, 0.0, 1.0, 0.0],
      "ImagePositionPatient": [-954.0, -971.46987915039, -59.554218292236],
      "ImageType": [
        "ORIGINAL",
        "PRIMARY",
        "M",
        "MB",
        "ND",
        "MOSAIC"
],
      "ImagedNucleus": "1H",
      "ImagingFrequency": 123.24368,
      "InPlanePhaseEncodingDirection": "COL",
      "MRAcquisitionType": "2D",
      "MagneticFieldStrength": 3.0,
      "Manufacturer": "SIEMENS",
      "ManufacturerModelName": "Prisma",
      "Modality": "MR",
      "NominalInterval": 0,
      "NumberOfAverages": 1.0,
      "NumberOfPhaseEncodingSteps": 106,
      "PercentPhaseFieldOfView": 100.0,
      "PercentSampling": 100.0,
      "PerformedProcedureStepStartTime": "150813.247000",
      "PhotometricInterpretation": "MONOCHROME2",
      "PixelBandwidth": 2620.0,
      "PixelRepresentation": 0,
      "PixelSpacing": [2.0, 2.0],
      "ProtocolName": "task-backtothefuture_run-2",
      "RepetitionTime": 1500.0,
      "Rows": 954,
      "SAR": 0.08575325273582,
      "SamplesPerPixel": 1,
      "ScanOptions": [
        "FS",
        "EXT"
],
      "ScanningSequence": "EP",
      "SequenceName": "epfid2d1_106",
      "SequenceVariant": [
        "SK",
        "SS"
],
      "SeriesDescription": "task-backtothefuture_run-2",
      "SeriesNumber": 7,
      "SeriesTime": "161444.988000",
      "SliceLocation": -59.554218292236,
      "SliceThickness": 2.0,
      "SmallestImagePixelValue": 0,
      "SoftwareVersions": "syngo MR E11",
      "SpacingBetweenSlices": 2.0000000537281,
      "SpecificCharacterSet": "ISO_IR 100",
      "StudyID": "1",
      "StudyTime": "150813.175000",
      "TransmitCoilName": "Body",
      "VariableFlipAngleFlag": "N",
      "WindowCenterWidthExplanation": "Algo1",
      "dBdt": 0.0},
    "slices": {}
  },
  "time": {
    "samples": {
      "AcquisitionNumber": [1, 2, 3, 4, 5, 6, 7, 8, 9, 10, 11, 12, 13, 14, 15, 16, 17, 18, 19, 20, 21, 22, 23, 24, 25, 26, 27, 28, 29, 30, 31, 32, 33, 34, 35, 36, 37, 38, 39, 40, 41, 42, 43, 44, 45, 46, 47, 48, 49, 50, 51, 52, 53, 54, 55, 56, 57, 58, 59, 60, 61, 62, 63, 64, 65, 66, 67, 68, 69, 70, 71, 72, 73, 74, 75, 76, 77, 78, 79, 80, 81, 82, 83, 84, 85, 86, 87, 88, 89, 90, 91, 92, 93, 94, 95, 96, 97, 98, 99, 100, 101, 102, 103, 104, 105, 106, 107, 108, 109, 110, 111, 112, 113, 114, 115, 116, 117, 118, 119, 120, 121, 122, 123, 124, 125, 126, 127, 128, 129, 130, 131, 132, 133, 134, 135, 136, 137, 138, 139, 140, 141, 142, 143, 144, 145, 146, 147, 148, 149, 150, 151, 152, 153, 154, 155, 156, 157, 158, 159, 160, 161, 162, 163, 164, 165, 166, 167, 168, 169, 170, 171, 172, 173, 174, 175, 176, 177, 178, 179, 180, 181, 182, 183, 184, 185, 186, 187, 188, 189, 190, 191, 192, 193, 194, 195, 196, 197, 198, 199, 200, 201, 202, 203, 204, 205, 206, 207, 208, 209, 210, 211, 212, 213, 214, 215, 216, 217, 218, 219, 220, 221, 222, 223, 224, 225, 226, 227, 228, 229, 230, 231, 232, 233, 234, 235, 236, 237, 238, 239, 240, 241, 242, 243, 244, 245, 246, 247, 248, 249, 250, 251, 252, 253, 254, 255, 256, 257, 258, 259, 260, 261, 262, 263, 264, 265, 266, 267, 268, 269, 270, 271, 272, 273, 274, 275, 276, 277, 278, 279, 280, 281, 282, 283, 284, 285, 286, 287, 288, 289, 290, 291, 292, 293, 294, 295, 296, 297, 298, 299, 300, 301, 302, 303, 304, 305, 306, 307, 308, 309, 310, 311, 312, 313, 314, 315, 316, 317, 318, 319, 320, 321, 322, 323, 324, 325, 326, 327, 328, 329, 330, 331, 332, 333, 334, 335, 336, 337, 338, 339, 340, 341, 342, 343, 344, 345, 346, 347, 348, 349, 350, 351, 352, 353, 354, 355, 356, 357, 358, 359, 360, 361, 362, 363, 364, 365, 366, 367, 368, 369, 370, 371, 372, 373, 374, 375, 376, 377, 378, 379, 380, 381, 382, 383, 384, 385, 386, 387, 388, 389, 390, 391, 392, 393, 394, 395, 396, 397, 398, 399, 400, 401, 402, 403, 404, 405, 406, 407, 408, 409, 410, 411, 412, 413, 414, 415, 416, 417, 418, 419, 420, 421, 422, 423, 424, 425, 426, 427, 428, 429, 430, 431, 432, 433, 434, 435, 436, 437, 438, 439, 440, 441, 442, 443, 444, 445, 446, 447, 448, 449, 450, 451, 452, 453, 454, 455, 456, 457, 458, 459, 460, 461, 462, 463, 464, 465, 466, 467, 468, 469, 470, 471, 472, 473, 474, 475, 476, 477, 478, 479, 480, 481, 482, 483, 484, 485, 486, 487, 488, 489, 490, 491, 492, 493, 494, 495, 496, 497, 498, 499, 500, 501, 502, 503, 504, 505, 506, 507, 508, 509, 510, 511, 512, 513, 514, 515, 516, 517, 518, 519, 520, 521, 522, 523, 524, 525, 526, 527, 528, 529, 530, 531, 532, 533, 534, 535, 536, 537, 538, 539, 540, 541, 542, 543, 544, 545, 546, 547, 548, 549, 550, 551, 552, 553, 554, 555, 556, 557, 558, 559, 560, 561, 562, 563, 564, 565, 566, 567, 568, 569, 570, 571, 572, 573, 574, 575, 576, 577, 578, 579, 580, 581, 582, 583, 584, 585, 586, 587, 588, 589, 590, 591, 592, 593, 594, 595, 596, 597, 598, 599, 600, 601, 602, 603, 604, 605, 606, 607, 608, 609, 610, 611, 612, 613, 614, 615, 616, 617, 618, 619, 620, 621, 622, 623, 624, 625, 626, 627, 628, 629, 630, 631, 632, 633, 634, 635, 636, 637, 638, 639, 640, 641, 642, 643, 644, 645, 646, 647, 648, 649, 650, 651, 652, 653, 654, 655, 656, 657, 658, 659, 660, 661, 662, 663, 664, 665, 666, 667, 668, 669, 670, 671, 672, 673, 674, 675, 676, 677, 678, 679, 680, 681, 682, 683, 684, 685, 686, 687, 688, 689, 690, 691, 692, 693, 694, 695, 696, 697, 698, 699, 700, 701, 702, 703, 704, 705, 706, 707, 708, 709, 710, 711, 712, 713, 714, 715, 716, 717, 718, 719, 720, 721, 722, 723, 724, 725, 726, 727, 728, 729, 730, 731, 732, 733, 734, 735, 736, 737, 738, 739, 740, 741, 742, 743, 744, 745, 746, 747, 748, 749, 750, 751, 752, 753, 754, 755, 756, 757, 758, 759, 760, 761, 762, 763, 764, 765, 766, 767, 768, 769, 770, 771, 772, 773, 774, 775, 776, 777, 778, 779, 780, 781, 782, 783, 784, 785, 786, 787, 788, 789, 790, 791, 792, 793, 794, 795, 796, 797, 798, 799, 800, 801, 802, 803, 804, 805, 806, 807, 808, 809, 810, 811, 812, 813, 814, 815, 816, 817, 818, 819, 820, 821, 822, 823, 824, 825, 826, 827, 828, 829, 830, 831, 832, 833, 834, 835, 836, 837, 838, 839, 840, 841, 842, 843, 844, 845, 846, 847, 848, 849, 850, 851, 852, 853, 854, 855, 856, 857, 858, 859, 860, 861, 862, 863, 864, 865, 866, 867, 868, 869, 870, 871, 872, 873, 874, 875, 876, 877, 878, 879, 880, 881, 882, 883, 884, 885, 886, 887, 888, 889, 890, 891, 892, 893, 894, 895, 896, 897, 898, 899, 900, 901, 902, 903, 904, 905, 906, 907, 908, 909, 910, 911, 912, 913, 914, 915, 916, 917, 918, 919, 920, 921, 922, 923, 924, 925, 926, 927, 928, 929, 930, 931, 932, 933, 934, 935, 936, 937, 938, 939, 940, 941, 942, 943, 944, 945, 946, 947, 948, 949, 950, 951, 952, 953, 954, 955, 956, 957, 958, 959, 960, 961, 962, 963, 964, 965, 966, 967, 968, 969, 970, 971, 972, 973, 974, 975, 976, 977, 978, 979, 980, 981, 982, 983, 984, 985, 986, 987, 988, 989, 990, 991, 992, 993, 994, 995, 996, 997, 998, 999, 1000, 1001, 1002, 1003, 1004, 1005, 1006, 1007, 1008, 1009, 1010, 1011, 1012, 1013, 1014, 1015, 1016, 1017, 1018, 1019, 1020, 1021, 1022, 1023, 1024, 1025, 1026, 1027, 1028, 1029, 1030, 1031, 1032, 1033, 1034, 1035, 1036, 1037, 1038, 1039, 1040, 1041, 1042, 1043, 1044, 1045, 1046, 1047, 1048, 1049, 1050, 1051, 1052, 1053, 1054, 1055, 1056, 1057, 1058, 1059, 1060, 1061, 1062, 1063, 1064, 1065, 1066, 1067, 1068, 1069, 1070, 1071, 1072, 1073, 1074, 1075, 1076, 1077, 1078, 1079, 1080, 1081, 1082, 1083, 1084, 1085, 1086, 1087, 1088, 1089, 1090, 1091, 1092, 1093, 1094, 1095, 1096, 1097, 1098, 1099, 1100, 1101, 1102, 1103, 1104, 1105, 1106, 1107, 1108, 1109, 1110, 1111, 1112, 1113, 1114, 1115, 1116, 1117, 1118, 1119, 1120, 1121, 1122, 1123, 1124, 1125, 1126, 1127, 1128, 1129, 1130, 1131, 1132, 1133, 1134, 1135, 1136, 1137, 1138, 1139, 1140, 1141, 1142, 1143, 1144, 1145, 1146, 1147, 1148, 1149, 1150, 1151, 1152, 1153, 1154, 1155, 1156, 1157, 1158, 1159, 1160, 1161, 1162, 1163, 1164, 1165, 1166, 1167, 1168, 1169, 1170, 1171, 1172, 1173, 1174, 1175, 1176, 1177, 1178, 1179, 1180, 1181, 1182, 1183, 1184, 1185, 1186, 1187, 1188, 1189, 1190, 1191, 1192, 1193, 1194, 1195, 1196, 1197, 1198, 1199, 1200, 1201, 1202, 1203, 1204, 1205, 1206, 1207, 1208, 1209, 1210, 1211, 1212, 1213, 1214, 1215, 1216, 1217, 1218, 1219, 1220, 1221, 1222, 1223, 1224, 1225, 1226, 1227, 1228, 1229, 1230, 1231, 1232, 1233, 1234, 1235, 1236, 1237, 1238, 1239, 1240, 1241, 1242, 1243, 1244, 1245, 1246, 1247, 1248, 1249, 1250, 1251, 1252, 1253, 1254, 1255, 1256, 1257, 1258, 1259, 1260, 1261, 1262, 1263, 1264, 1265, 1266, 1267, 1268, 1269, 1270, 1271, 1272, 1273, 1274, 1275, 1276, 1277, 1278, 1279, 1280, 1281, 1282, 1283, 1284, 1285, 1286, 1287, 1288, 1289, 1290, 1291, 1292, 1293, 1294, 1295, 1296, 1297, 1298, 1299, 1300, 1301, 1302, 1303, 1304, 1305, 1306, 1307, 1308, 1309, 1310, 1311, 1312, 1313, 1314, 1315, 1316, 1317, 1318, 1319, 1320, 1321, 1322, 1323, 1324, 1325, 1326, 1327, 1328, 1329, 1330, 1331, 1332, 1333, 1334, 1335, 1336, 1337, 1338, 1339, 1340, 1341, 1342, 1343, 1344, 1345, 1346, 1347, 1348, 1349, 1350, 1351, 1352, 1353, 1354, 1355, 1356, 1357, 1358, 1359, 1360, 1361, 1362, 1363, 1364, 1365, 1366, 1367, 1368, 1369, 1370, 1371, 1372, 1373, 1374, 1375, 1376, 1377, 1378, 1379, 1380, 1381, 1382, 1383, 1384, 1385, 1386, 1387, 1388, 1389, 1390, 1391, 1392, 1393, 1394, 1395, 1396, 1397, 1398, 1399, 1400, 1401, 1402, 1403, 1404, 1405, 1406, 1407, 1408, 1409, 1410, 1411, 1412, 1413, 1414, 1415, 1416, 1417, 1418, 1419, 1420, 1421, 1422, 1423, 1424, 1425, 1426, 1427, 1428, 1429, 1430, 1431, 1432, 1433, 1434, 1435, 1436, 1437, 1438, 1439, 1440, 1441, 1442, 1443, 1444, 1445, 1446, 1447, 1448, 1449, 1450, 1451, 1452, 1453, 1454, 1455, 1456, 1457, 1458, 1459, 1460, 1461, 1462, 1463, 1464, 1465, 1466, 1467, 1468, 1469, 1470, 1471, 1472, 1473, 1474, 1475, 1476, 1477, 1478, 1479, 1480, 1481, 1482, 1483, 1484, 1485, 1486, 1487, 1488, 1489, 1490, 1491, 1492, 1493, 1494, 1495, 1496, 1497, 1498, 1499, 1500, 1501, 1502, 1503, 1504, 1505, 1506, 1507, 1508, 1509, 1510, 1511, 1512, 1513, 1514, 1515, 1516, 1517, 1518, 1519, 1520, 1521, 1522],
      "AcquisitionTime": ["161350.357500", "161351.857500", "161353.357500", "161354.857500", "161356.357500", "161357.857500", "161359.357500", "161400.857500", "161402.357500", "161403.857500", "161405.357500", "161406.857500", "161408.357500", "161409.857500", "161411.357500", "161412.857500", "161414.357500", "161415.857500", "161417.357500", "161418.857500", "161420.357500", "161421.857500", "161423.357500", "161424.857500", "161426.357500", "161427.857500", "161429.357500", "161430.857500", "161432.357500", "161433.857500", "161435.357500", "161436.857500", "161438.357500", "161439.857500", "161441.357500", "161442.857500", "161444.357500", "161445.857500", "161447.357500", "161448.857500", "161450.357500", "161451.857500", "161453.357500", "161454.857500", "161456.357500", "161457.857500", "161459.357500", "161500.857500", "161502.357500", "161503.857500", "161505.357500", "161506.857500", "161508.357500", "161509.857500", "161511.357500", "161512.857500", "161514.357500", "161515.857500", "161517.357500", "161518.857500", "161520.357500", "161521.857500", "161523.357500", "161524.857500", "161526.357500", "161527.857500", "161529.357500", "161530.857500", "161532.357500", "161533.857500", "161535.357500", "161536.857500", "161538.357500", "161539.857500", "161541.357500", "161542.857500", "161544.357500", "161545.857500", "161547.357500", "161548.857500", "161550.357500", "161551.857500", "161553.357500", "161554.857500", "161556.357500", "161557.857500", "161559.357500", "161600.857500", "161602.357500", "161603.857500", "161605.357500", "161606.857500", "161608.357500", "161609.857500", "161611.357500", "161612.857500", "161614.357500", "161615.857500", "161617.357500", "161618.857500", "161620.357500", "161621.857500", "161623.357500", "161624.857500", "161626.357500", "161627.857500", "161629.357500", "161630.857500", "161632.357500", "161633.857500", "161635.357500", "161636.857500", "161638.357500", "161639.857500", "161641.357500", "161642.857500", "161644.357500", "161645.857500", "161647.357500", "161648.857500", "161650.357500", "161651.857500", "161653.357500", "161654.857500", "161656.357500", "161657.857500", "161659.357500", "161700.857500", "161702.357500", "161703.857500", "161705.357500", "161706.857500", "161708.357500", "161709.857500", "161711.357500", "161712.857500", "161714.357500", "161715.857500", "161717.357500", "161718.857500", "161720.357500", "161721.857500", "161723.357500", "161724.857500", "161726.357500", "161727.857500", "161729.357500", "161730.857500", "161732.357500", "161733.857500", "161735.357500", "161736.857500", "161738.357500", "161739.857500", "161741.357500", "161742.857500", "161744.357500", "161745.857500", "161747.357500", "161748.857500", "161750.357500", "161751.857500", "161753.357500", "161754.857500", "161756.357500", "161757.857500", "161759.357500", "161800.857500", "161802.357500", "161803.857500", "161805.357500", "161806.857500", "161808.357500", "161809.857500", "161811.357500", "161812.857500", "161814.357500", "161815.857500", "161817.357500", "161818.857500", "161820.357500", "161821.857500", "161823.357500", "161824.857500", "161826.357500", "161827.857500", "161829.357500", "161830.857500", "161832.357500", "161833.857500", "161835.357500", "161836.857500", "161838.357500", "161839.857500", "161841.357500", "161842.857500", "161844.357500", "161845.857500", "161847.357500", "161848.857500", "161850.357500", "161851.857500", "161853.357500", "161854.857500", "161856.357500", "161857.857500", "161859.357500", "161900.857500", "161902.357500", "161903.857500", "161905.357500", "161906.857500", "161908.357500", "161909.857500", "161911.357500", "161912.857500", "161914.357500", "161915.857500", "161917.357500", "161918.857500", "161920.357500", "161921.857500", "161923.357500", "161924.857500", "161926.357500", "161927.857500", "161929.357500", "161930.857500", "161932.357500", "161933.857500", "161935.357500", "161936.857500", "161938.357500", "161939.857500", "161941.357500", "161942.857500", "161944.357500", "161945.857500", "161947.357500", "161948.857500", "161950.357500", "161951.857500", "161953.357500", "161954.857500", "161956.357500", "161957.857500", "161959.357500", "162000.857500", "162002.357500", "162003.857500", "162005.357500", "162006.857500", "162008.357500", "162009.857500", "162011.357500", "162012.857500", "162014.357500", "162015.857500", "162017.357500", "162018.857500", "162020.357500", "162021.857500", "162023.357500", "162024.857500", "162026.357500", "162027.857500", "162029.357500", "162030.857500", "162032.357500", "162033.857500", "162035.357500", "162036.857500", "162038.357500", "162039.857500", "162041.357500", "162042.857500", "162044.357500", "162045.857500", "162047.357500", "162048.857500", "162050.357500", "162051.857500", "162053.357500", "162054.857500", "162056.357500", "162057.857500", "162059.357500", "162100.857500", "162102.357500", "162103.857500", "162105.357500", "162106.857500", "162108.357500", "162109.857500", "162111.357500", "162112.857500", "162114.357500", "162115.857500", "162117.357500", "162118.857500", "162120.357500", "162121.857500", "162123.357500", "162124.857500", "162126.357500", "162127.857500", "162129.357500", "162130.857500", "162132.357500", "162133.857500", "162135.357500", "162136.857500", "162138.357500", "162139.857500", "162141.357500", "162142.857500", "162144.357500", "162145.857500", "162147.357500", "162148.857500", "162150.357500", "162151.857500", "162153.357500", "162154.857500", "162156.357500", "162157.857500", "162159.357500", "162200.857500", "162202.357500", "162203.857500", "162205.357500", "162206.857500", "162208.357500", "162209.857500", "162211.357500", "162212.857500", "162214.357500", "162215.857500", "162217.357500", "162218.857500", "162220.357500", "162221.857500", "162223.357500", "162224.857500", "162226.357500", "162227.857500", "162229.357500", "162230.857500", "162232.357500", "162233.857500", "162235.357500", "162236.857500", "162238.357500", "162239.857500", "162241.357500", "162242.857500", "162244.357500", "162245.857500", "162247.357500", "162248.857500", "162250.357500", "162251.857500", "162253.357500", "162254.857500", "162256.357500", "162257.857500", "162259.357500", "162300.857500", "162302.357500", "162303.857500", "162305.357500", "162306.857500", "162308.357500", "162309.857500", "162311.357500", "162312.857500", "162314.357500", "162315.857500", "162317.357500", "162318.857500", "162320.357500", "162321.857500", "162323.357500", "162324.857500", "162326.357500", "162327.857500", "162329.357500", "162330.857500", "162332.357500", "162333.857500", "162335.357500", "162336.857500", "162338.357500", "162339.857500", "162341.357500", "162342.857500", "162344.357500", "162345.857500", "162347.357500", "162348.857500", "162350.357500", "162351.857500", "162353.357500", "162354.857500", "162356.357500", "162357.857500", "162359.357500", "162400.857500", "162402.357500", "162403.857500", "162405.357500", "162406.857500", "162408.357500", "162409.857500", "162411.357500", "162412.857500", "162414.357500", "162415.857500", "162417.357500", "162418.857500", "162420.357500", "162421.857500", "162423.357500", "162424.857500", "162426.357500", "162427.857500", "162429.357500", "162430.857500", "162432.357500", "162433.857500", "162435.357500", "162436.857500", "162438.357500", "162439.857500", "162441.357500", "162442.857500", "162444.357500", "162445.857500", "162447.357500", "162448.857500", "162450.357500", "162451.857500", "162453.357500", "162454.857500", "162456.357500", "162457.857500", "162459.357500", "162500.857500", "162502.357500", "162503.857500", "162505.357500", "162506.857500", "162508.357500", "162509.857500", "162511.357500", "162512.857500", "162514.357500", "162515.857500", "162517.357500", "162518.857500", "162520.357500", "162521.857500", "162523.357500", "162524.857500", "162526.357500", "162527.857500", "162529.357500", "162530.857500", "162532.357500", "162533.857500", "162535.357500", "162536.857500", "162538.357500", "162539.857500", "162541.357500", "162542.857500", "162544.357500", "162545.857500", "162547.357500", "162548.857500", "162550.357500", "162551.857500", "162553.357500", "162554.857500", "162556.357500", "162557.857500", "162559.357500", "162600.857500", "162602.357500", "162603.857500", "162605.357500", "162606.857500", "162608.357500", "162609.857500", "162611.357500", "162612.857500", "162614.357500", "162615.857500", "162617.357500", "162618.857500", "162620.357500", "162621.857500", "162623.357500", "162624.857500", "162626.357500", "162627.857500", "162629.357500", "162630.857500", "162632.357500", "162633.857500", "162635.357500", "162636.857500", "162638.357500", "162639.857500", "162641.357500", "162642.857500", "162644.357500", "162645.857500", "162647.357500", "162648.857500", "162650.357500", "162651.857500", "162653.357500", "162654.857500", "162656.357500", "162657.857500", "162659.357500", "162700.857500", "162702.357500", "162703.857500", "162705.357500", "162706.857500", "162708.357500", "162709.857500", "162711.357500", "162712.857500", "162714.357500", "162715.857500", "162717.357500", "162718.857500", "162720.357500", "162721.857500", "162723.357500", "162724.857500", "162726.357500", "162727.857500", "162729.357500", "162730.857500", "162732.357500", "162733.857500", "162735.357500", "162736.857500", "162738.357500", "162739.857500", "162741.357500", "162742.857500", "162744.357500", "162745.857500", "162747.357500", "162748.857500", "162750.357500", "162751.857500", "162753.357500", "162754.857500", "162756.357500", "162757.857500", "162759.357500", "162800.857500", "162802.357500", "162803.857500", "162805.357500", "162806.857500", "162808.357500", "162809.857500", "162811.357500", "162812.857500", "162814.357500", "162815.857500", "162817.357500", "162818.857500", "162820.357500", "162821.857500", "162823.357500", "162824.857500", "162826.357500", "162827.857500", "162829.357500", "162830.857500", "162832.357500", "162833.857500", "162835.357500", "162836.857500", "162838.357500", "162839.857500", "162841.357500", "162842.857500", "162844.357500", "162845.857500", "162847.357500", "162848.857500", "162850.357500", "162851.857500", "162853.357500", "162854.857500", "162856.357500", "162857.857500", "162859.357500", "162900.857500", "162902.357500", "162903.857500", "162905.357500", "162906.857500", "162908.357500", "162909.857500", "162911.357500", "162912.857500", "162914.357500", "162915.857500", "162917.357500", "162918.857500", "162920.357500", "162921.857500", "162923.357500", "162924.857500", "162926.357500", "162927.857500", "162929.357500", "162930.857500", "162932.357500", "162933.857500", "162935.357500", "162936.857500", "162938.357500", "162939.857500", "162941.357500", "162942.857500", "162944.357500", "162945.857500", "162947.357500", "162948.857500", "162950.357500", "162951.857500", "162953.357500", "162954.857500", "162956.357500", "162957.857500", "162959.357500", "163000.857500", "163002.357500", "163003.857500", "163005.357500", "163006.857500", "163008.357500", "163009.857500", "163011.357500", "163012.857500", "163014.357500", "163015.857500", "163017.357500", "163018.857500", "163020.357500", "163021.857500", "163023.357500", "163024.857500", "163026.357500", "163027.857500", "163029.357500", "163030.857500", "163032.357500", "163033.857500", "163035.357500", "163036.857500", "163038.357500", "163039.857500", "163041.357500", "163042.857500", "163044.357500", "163045.857500", "163047.357500", "163048.857500", "163050.357500", "163051.857500", "163053.357500", "163054.857500", "163056.357500", "163057.857500", "163059.357500", "163100.857500", "163102.357500", "163103.857500", "163105.357500", "163106.857500", "163108.357500", "163109.857500", "163111.357500", "163112.857500", "163114.357500", "163115.857500", "163117.357500", "163118.857500", "163120.357500", "163121.857500", "163123.357500", "163124.857500", "163126.357500", "163127.857500", "163129.357500", "163130.857500", "163132.357500", "163133.857500", "163135.357500", "163136.857500", "163138.357500", "163139.857500", "163141.357500", "163142.857500", "163144.357500", "163145.857500", "163147.357500", "163148.857500", "163150.357500", "163151.857500", "163153.357500", "163154.857500", "163156.357500", "163157.857500", "163159.357500", "163200.857500", "163202.357500", "163203.857500", "163205.357500", "163206.857500", "163208.357500", "163209.857500", "163211.357500", "163212.857500", "163214.357500", "163215.857500", "163217.357500", "163218.857500", "163220.357500", "163221.857500", "163223.357500", "163224.857500", "163226.357500", "163227.857500", "163229.357500", "163230.857500", "163232.357500", "163233.857500", "163235.357500", "163236.857500", "163238.357500", "163239.857500", "163241.357500", "163242.857500", "163244.357500", "163245.857500", "163247.357500", "163248.857500", "163250.357500", "163251.857500", "163253.357500", "163254.857500", "163256.357500", "163257.857500", "163259.357500", "163300.857500", "163302.357500", "163303.857500", "163305.357500", "163306.857500", "163308.357500", "163309.857500", "163311.357500", "163312.857500", "163314.357500", "163315.857500", "163317.357500", "163318.857500", "163320.357500", "163321.857500", "163323.357500", "163324.857500", "163326.357500", "163327.857500", "163329.357500", "163330.857500", "163332.357500", "163333.857500", "163335.357500", "163336.857500", "163338.357500", "163339.857500", "163341.357500", "163342.857500", "163344.357500", "163345.857500", "163347.357500", "163348.857500", "163350.357500", "163351.857500", "163353.357500", "163354.857500", "163356.357500", "163357.857500", "163359.357500", "163400.857500", "163402.357500", "163403.857500", "163405.357500", "163406.857500", "163408.357500", "163409.857500", "163411.357500", "163412.857500", "163414.357500", "163415.857500", "163417.357500", "163418.857500", "163420.357500", "163421.857500", "163423.357500", "163424.857500", "163426.357500", "163427.857500", "163429.357500", "163430.857500", "163432.357500", "163433.857500", "163435.357500", "163436.857500", "163438.357500", "163439.857500", "163441.357500", "163442.857500", "163444.357500", "163445.857500", "163447.357500", "163448.857500", "163450.357500", "163451.857500", "163453.357500", "163454.857500", "163456.357500", "163457.857500", "163459.357500", "163500.857500", "163502.357500", "163503.857500", "163505.357500", "163506.857500", "163508.357500", "163509.857500", "163511.357500", "163512.857500", "163514.357500", "163515.857500", "163517.357500", "163518.857500", "163520.357500", "163521.857500", "163523.357500", "163524.857500", "163526.357500", "163527.857500", "163529.357500", "163530.857500", "163532.357500", "163533.857500", "163535.357500", "163536.857500", "163538.357500", "163539.857500", "163541.357500", "163542.857500", "163544.357500", "163545.857500", "163547.357500", "163548.857500", "163550.357500", "163551.857500", "163553.357500", "163554.857500", "163556.357500", "163557.857500", "163559.357500", "163600.857500", "163602.357500", "163603.857500", "163605.357500", "163606.857500", "163608.357500", "163609.857500", "163611.357500", "163612.857500", "163614.357500", "163615.857500", "163617.357500", "163618.857500", "163620.357500", "163621.857500", "163623.357500", "163624.857500", "163626.357500", "163627.857500", "163629.357500", "163630.857500", "163632.357500", "163633.857500", "163635.357500", "163636.857500", "163638.357500", "163639.857500", "163641.357500", "163642.857500", "163644.357500", "163645.857500", "163647.357500", "163648.857500", "163650.357500", "163651.857500", "163653.357500", "163654.857500", "163656.357500", "163657.857500", "163659.357500", "163700.857500", "163702.357500", "163703.857500", "163705.357500", "163706.857500", "163708.357500", "163709.857500", "163711.357500", "163712.857500", "163714.357500", "163715.857500", "163717.357500", "163718.857500", "163720.357500", "163721.857500", "163723.357500", "163724.857500", "163726.357500", "163727.857500", "163729.357500", "163730.857500", "163732.357500", "163733.857500", "163735.357500", "163736.857500", "163738.357500", "163739.857500", "163741.357500", "163742.857500", "163744.357500", "163745.857500", "163747.357500", "163748.857500",