{
  "AcquisitionMatrixPE": 106,
  "AcquisitionNumber": 1,
  "AcquisitionTime": "19:33:55.545000",
  "BandwidthPerPixelPhaseEncode": 16.846,
  "BaseResolution": 106,
  "BodyPartExamined": "BRAIN",
  "CoilCombinationMethod": "Sum of Squares",
  "ConsistencyInfo": "N4_VE11C_LATEST_20160120",
  "ConversionSoftware": "dcm2niix",
  "ConversionSoftwareVersion": "v1.0.20220720",
  "DerivedVendorReportedEchoSpacing": 0.000560012,
  "DeviceSerialNumber": "166108",
  "DwellTime": 1.8e-06,
  "EchoTime": 0.0352,
  "EchoTrainLength": 106,
  "EffectiveEchoSpacing": 0.000560012,
  "FlipAngle": 60,
  "HeudiconvVersion": "1.3.0",
  "ImageComments": "Unaliased MB4/PE3/LB",
  "ImageOrientationPatientDICOM": [1, 0, 0, 0, 1, 0],
  "ImageOrientationText": "Tra",
  "ImageType": [
    "ORIGINAL",
    "PRIMARY",
    "M",
    "MB",
    "ND",
    "MOSAIC"
],
  "ImagingFrequency": 123.244,
  "InPlanePhaseEncodingDirectionDICOM": "COL",
  "InstitutionAddress": "Bedford Way 26,London,London,GB,WC1H 0AP",
  "InstitutionName": "University College",
  "InstitutionalDepartmentName": "Department",
  "MRAcquisitionType": "2D",
  "MagneticFieldStrength": 3,
  "Manufacturer": "Siemens",
  "ManufacturersModelName": "Prisma",
  "MatrixCoilMode": "SENSE",
  "Modality": "MR",
  "MultibandAccelerationFactor": 4,
  "NonlinearGradientCorrection": false,
  "PartialFourier": 1,
  "PatientPosition": "HFS",
  "PercentPhaseFOV": 100,
  "PercentSampling": 100,
  "PhaseEncodingDirection": "j-",
  "PhaseEncodingSteps": 106,
  "PhaseResolution": 1,
  "PixelBandwidth": 2620,
  "ProcedureStepDescription": "Egor^MovieProject2",
  "ProtocolName": "task-backtothefuture_run-2",
  "PulseSequenceDetails": "%CustomerSeq%\\cmrr_mbep2d_bold",
  "ReceiveCoilActiveElements": "HEA;HEP",
  "ReceiveCoilName": "Head_32",
  "ReconMatrixPE": 106,
  "RepetitionTime": 1.5,
  "SAR": 0.0688445,
  "ScanOptions": "FS\\EXT",
  "ScanningSequence": "EP",
  "SequenceName": "epfid2d1_106",
  "SequenceVariant": "SK\\SS",
  "SeriesDescription": "task-backtothefuture_run-2",
  "SeriesNumber": 9,
  "ShimSetting": [-1524, 610, 7422, 161, -181, -58, 15, -100],
  "SliceThickness": 2,
  "SliceTiming": [0, 1.0675, 0.6575, 0.245, 1.315, 0.9025, 0.4925, 0.0825, 1.15, 0.74, 0.3275, 1.3975, 0.985, 0.575, 0.1625, 1.2325, 0.8225, 0.41, 0, 1.0675, 0.6575, 0.245, 1.315, 0.9025, 0.4925, 0.0825, 1.15, 0.74, 0.3275, 1.3975, 0.985, 0.575, 0.1625, 1.2325, 0.8225, 0.41, 0, 1.0675, 0.6575, 0.245, 1.315, 0.9025, 0.4925, 0.0825, 1.15, 0.74, 0.3275, 1.3975, 0.985, 0.575, 0.1625, 1.2325, 0.8225, 0.41, 0, 1.0675, 0.6575, 0.245, 1.315, 0.9025, 0.4925, 0.0825, 1.15, 0.74, 0.3275, 1.3975, 0.985, 0.575, 0.1625, 1.2325, 0.8225, 0.41],
  "SoftwareVersions": "syngo MR E11",
  "SpacingBetweenSlices": 2,
  "StationName": "AWP166108",
  "TaskName": "backtothefuture",
  "TotalReadoutTime": 0.0588013,
  "TxRefAmp": 244.674,
  "WipMemBlock": "a413b664-bfcc-4d59-85f4-9457c6e895fd||Sequence: R016 ve11c/master r/e634e98; Dec 19 2017 11:00:25 by eja",
  "dcmmeta_affine": [
    [-2.0, 0.0, 0.0, 106.0],
    [0.0, 2.0, 0.0, -93.759033203125],
    [0.0, 0.0, 2.0, -64.37349700927734],
    [0.0, 0.0, 0.0, 1.0]
],
  "dcmmeta_reorient_transform": [
    [0.0, -1.0, 0.0, 105.0],
    [1.0, 0.0, 0.0, 0.0],
    [0.0, 0.0, 1.0, 0.0],
    [0.0, 0.0, 0.0, 1.0]
],
  "dcmmeta_shape": [106, 106, 72, 1522],
  "dcmmeta_slice_dim": 2,
  "dcmmeta_version": 0.6,
  "global": {
    "const": {
      "AcquisitionMatrix": [106, 0, 0, 106],
      "AngioFlag": "N",
      "BitsAllocated": 16,
      "BitsStored": 16,
      "BodyPartExamined": "BRAIN",
      "CardiacNumberOfImages": 1,
      "Columns": 954,
      "EchoNumbers": 1,
      "EchoTime": 35.2,
      "EchoTrainLength": 106,
      "FlipAngle": 60.0,
      "HighBit": 15,
      "ImageOrientationPatient": [1.0, 0.0, 0.0, 0.0, 1.0, 0.0],
      "ImagePositionPatient": [-954.0, -964.24096393585, -64.373497009277],
      "ImageType": [
        "ORIGINAL",
        "PRIMARY",
        "M",
        "MB",
        "ND",
        "MOSAIC"
],
      "ImagedNucleus": "1H",
      "ImagingFrequency": 123.243637,
      "InPlanePhaseEncodingDirection": "COL",
      "MRAcquisitionType": "2D",
      "MagneticFieldStrength": 3.0,
      "Manufacturer": "SIEMENS",
      "ManufacturerModelName": "Prisma",
      "Modality": "MR",
      "NominalInterval": 0,
      "NumberOfAverages": 1.0,
      "NumberOfPhaseEncodingSteps": 106,
      "PercentPhaseFieldOfView": 100.0,
      "PercentSampling": 100.0,
      "PerformedProcedureStepStartTime": "182243.764000",
      "PhotometricInterpretation": "MONOCHROME2",
      "PixelBandwidth": 2620.0,
      "PixelRepresentation": 0,
      "PixelSpacing": [2.0, 2.0],
      "ProtocolName": "task-backtothefuture_run-2",
      "RepetitionTime": 1500.0,
      "Rows": 954,
      "SAR": 0.06884450489448,
      "SamplesPerPixel": 1,
      "ScanOptions": [
        "FS",
        "EXT"
],
      "ScanningSequence": "EP",
      "SequenceName": "epfid2d1_106",
      "SequenceVariant": [
        "SK",
        "SS"
],
      "SeriesDescription": "task-backtothefuture_run-2",
      "SeriesNumber": 9,
      "SeriesTime": "193446.381000",
      "SliceLocation": -64.373497009277,
      "SliceThickness": 2.0,
      "SmallestImagePixelValue": 0,
      "SoftwareVersions": "syngo MR E11",
      "SpacingBetweenSlices": 2.0,
      "SpecificCharacterSet": "ISO_IR 100",
      "StudyID": "1",
      "StudyTime": "182243.653000",
      "TransmitCoilName": "Body",
      "VariableFlipAngleFlag": "N",
      "WindowCenterWidthExplanation": "Algo1",
      "dBdt": 0.0},
    "slices": {}
  },
  "time": {
    "samples": {
      "AcquisitionNumber": [1, 2, 3, 4, 5, 6, 7, 8, 9, 10, 11, 12, 13, 14, 15, 16, 17, 18, 19, 20, 21, 22, 23, 24, 25, 26, 27, 28, 29, 30, 31, 32, 33, 34, 35, 36, 37, 38, 39, 40, 41, 42, 43, 44, 45, 46, 47, 48, 49, 50, 51, 52, 53, 54, 55, 56, 57, 58, 59, 60, 61, 62, 63, 64, 65, 66, 67, 68, 69, 70, 71, 72, 73, 74, 75, 76, 77, 78, 79, 80, 81, 82, 83, 84, 85, 86, 87, 88, 89, 90, 91, 92, 93, 94, 95, 96, 97, 98, 99, 100, 101, 102, 103, 104, 105, 106, 107, 108, 109, 110, 111, 112, 113, 114, 115, 116, 117, 118, 119, 120, 121, 122, 123, 124, 125, 126, 127, 128, 129, 130, 131, 132, 133, 134, 135, 136, 137, 138, 139, 140, 141, 142, 143, 144, 145, 146, 147, 148, 149, 150, 151, 152, 153, 154, 155, 156, 157, 158, 159, 160, 161, 162, 163, 164, 165, 166, 167, 168, 169, 170, 171, 172, 173, 174, 175, 176, 177, 178, 179, 180, 181, 182, 183, 184, 185, 186, 187, 188, 189, 190, 191, 192, 193, 194, 195, 196, 197, 198, 199, 200, 201, 202, 203, 204, 205, 206, 207, 208, 209, 210, 211, 212, 213, 214, 215, 216, 217, 218, 219, 220, 221, 222, 223, 224, 225, 226, 227, 228, 229, 230, 231, 232, 233, 234, 235, 236, 237, 238, 239, 240, 241, 242, 243, 244, 245, 246, 247, 248, 249, 250, 251, 252, 253, 254, 255, 256, 257, 258, 259, 260, 261, 262, 263, 264, 265, 266, 267, 268, 269, 270, 271, 272, 273, 274, 275, 276, 277, 278, 279, 280, 281, 282, 283, 284, 285, 286, 287, 288, 289, 290, 291, 292, 293, 294, 295, 296, 297, 298, 299, 300, 301, 302, 303, 304, 305, 306, 307, 308, 309, 310, 311, 312, 313, 314, 315, 316, 317, 318, 319, 320, 321, 322, 323, 324, 325, 326, 327, 328, 329, 330, 331, 332, 333, 334, 335, 336, 337, 338, 339, 340, 341, 342, 343, 344, 345, 346, 347, 348, 349, 350, 351, 352, 353, 354, 355, 356, 357, 358, 359, 360, 361, 362, 363, 364, 365, 366, 367, 368, 369, 370, 371, 372, 373, 374, 375, 376, 377, 378, 379, 380, 381, 382, 383, 384, 385, 386, 387, 388, 389, 390, 391, 392, 393, 394, 395, 396, 397, 398, 399, 400, 401, 402, 403, 404, 405, 406, 407, 408, 409, 410, 411, 412, 413, 414, 415, 416, 417, 418, 419, 420, 421, 422, 423, 424, 425, 426, 427, 428, 429, 430, 431, 432, 433, 434, 435, 436, 437, 438, 439, 440, 441, 442, 443, 444, 445, 446, 447, 448, 449, 450, 451, 452, 453, 454, 455, 456, 457, 458, 459, 460, 461, 462, 463, 464, 465, 466, 467, 468, 469, 470, 471, 472, 473, 474, 475, 476, 477, 478, 479, 480, 481, 482, 483, 484, 485, 486, 487, 488, 489, 490, 491, 492, 493, 494, 495, 496, 497, 498, 499, 500, 501, 502, 503, 504, 505, 506, 507, 508, 509, 510, 511, 512, 513, 514, 515, 516, 517, 518, 519, 520, 521, 522, 523, 524, 525, 526, 527, 528, 529, 530, 531, 532, 533, 534, 535, 536, 537, 538, 539, 540, 541, 542, 543, 544, 545, 546, 547, 548, 549, 550, 551, 552, 553, 554, 555, 556, 557, 558, 559, 560, 561, 562, 563, 564, 565, 566, 567, 568, 569, 570, 571, 572, 573, 574, 575, 576, 577, 578, 579, 580, 581, 582, 583, 584, 585, 586, 587, 588, 589, 590, 591, 592, 593, 594, 595, 596, 597, 598, 599, 600, 601, 602, 603, 604, 605, 606, 607, 608, 609, 610, 611, 612, 613, 614, 615, 616, 617, 618, 619, 620, 621, 622, 623, 624, 625, 626, 627, 628, 629, 630, 631, 632, 633, 634, 635, 636, 637, 638, 639, 640, 641, 642, 643, 644, 645, 646, 647, 648, 649, 650, 651, 652, 653, 654, 655, 656, 657, 658, 659, 660, 661, 662, 663, 664, 665, 666, 667, 668, 669, 670, 671, 672, 673, 674, 675, 676, 677, 678, 679, 680, 681, 682, 683, 684, 685, 686, 687, 688, 689, 690, 691, 692, 693, 694, 695, 696, 697, 698, 699, 700, 701, 702, 703, 704, 705, 706, 707, 708, 709, 710, 711, 712, 713, 714, 715, 716, 717, 718, 719, 720, 721, 722, 723, 724, 725, 726, 727, 728, 729, 730, 731, 732, 733, 734, 735, 736, 737, 738, 739, 740, 741, 742, 743, 744, 745, 746, 747, 748, 749, 750, 751, 752, 753, 754, 755, 756, 757, 758, 759, 760, 761, 762, 763, 764, 765, 766, 767, 768, 769, 770, 771, 772, 773, 774, 775, 776, 777, 778, 779, 780, 781, 782, 783, 784, 785, 786, 787, 788, 789, 790, 791, 792, 793, 794, 795, 796, 797, 798, 799, 800, 801, 802, 803, 804, 805, 806, 807, 808, 809, 810, 811, 812, 813, 814, 815, 816, 817, 818, 819, 820, 821, 822, 823, 824, 825, 826, 827, 828, 829, 830, 831, 832, 833, 834, 835, 836, 837, 838, 839, 840, 841, 842, 843, 844, 845, 846, 847, 848, 849, 850, 851, 852, 853, 854, 855, 856, 857, 858, 859, 860, 861, 862, 863, 864, 865, 866, 867, 868, 869, 870, 871, 872, 873, 874, 875, 876, 877, 878, 879, 880, 881, 882, 883, 884, 885, 886, 887, 888, 889, 890, 891, 892, 893, 894, 895, 896, 897, 898, 899, 900, 901, 902, 903, 904, 905, 906, 907, 908, 909, 910, 911, 912, 913, 914, 915, 916, 917, 918, 919, 920, 921, 922, 923, 924, 925, 926, 927, 928, 929, 930, 931, 932, 933, 934, 935, 936, 937, 938, 939, 940, 941, 942, 943, 944, 945, 946, 947, 948, 949, 950, 951, 952, 953, 954, 955, 956, 957, 958, 959, 960, 961, 962, 963, 964, 965, 966, 967, 968, 969, 970, 971, 972, 973, 974, 975, 976, 977, 978, 979, 980, 981, 982, 983, 984, 985, 986, 987, 988, 989, 990, 991, 992, 993, 994, 995, 996, 997, 998, 999, 1000, 1001, 1002, 1003, 1004, 1005, 1006, 1007, 1008, 1009, 1010, 1011, 1012, 1013, 1014, 1015, 1016, 1017, 1018, 1019, 1020, 1021, 1022, 1023, 1024, 1025, 1026, 1027, 1028, 1029, 1030, 1031, 1032, 1033, 1034, 1035, 1036, 1037, 1038, 1039, 1040, 1041, 1042, 1043, 1044, 1045, 1046, 1047, 1048, 1049, 1050, 1051, 1052, 1053, 1054, 1055, 1056, 1057, 1058, 1059, 1060, 1061, 1062, 1063, 1064, 1065, 1066, 1067, 1068, 1069, 1070, 1071, 1072, 1073, 1074, 1075, 1076, 1077, 1078, 1079, 1080, 1081, 1082, 1083, 1084, 1085, 1086, 1087, 1088, 1089, 1090, 1091, 1092, 1093, 1094, 1095, 1096, 1097, 1098, 1099, 1100, 1101, 1102, 1103, 1104, 1105, 1106, 1107, 1108, 1109, 1110, 1111, 1112, 1113, 1114, 1115, 1116, 1117, 1118, 1119, 1120, 1121, 1122, 1123, 1124, 1125, 1126, 1127, 1128, 1129, 1130, 1131, 1132, 1133, 1134, 1135, 1136, 1137, 1138, 1139, 1140, 1141, 1142, 1143, 1144, 1145, 1146, 1147, 1148, 1149, 1150, 1151, 1152, 1153, 1154, 1155, 1156, 1157, 1158, 1159, 1160, 1161, 1162, 1163, 1164, 1165, 1166, 1167, 1168, 1169, 1170, 1171, 1172, 1173, 1174, 1175, 1176, 1177, 1178, 1179, 1180, 1181, 1182, 1183, 1184, 1185, 1186, 1187, 1188, 1189, 1190, 1191, 1192, 1193, 1194, 1195, 1196, 1197, 1198, 1199, 1200, 1201, 1202, 1203, 1204, 1205, 1206, 1207, 1208, 1209, 1210, 1211, 1212, 1213, 1214, 1215, 1216, 1217, 1218, 1219, 1220, 1221, 1222, 1223, 1224, 1225, 1226, 1227, 1228, 1229, 1230, 1231, 1232, 1233, 1234, 1235, 1236, 1237, 1238, 1239, 1240, 1241, 1242, 1243, 1244, 1245, 1246, 1247, 1248, 1249, 1250, 1251, 1252, 1253, 1254, 1255, 1256, 1257, 1258, 1259, 1260, 1261, 1262, 1263, 1264, 1265, 1266, 1267, 1268, 1269, 1270, 1271, 1272, 1273, 1274, 1275, 1276, 1277, 1278, 1279, 1280, 1281, 1282, 1283, 1284, 1285, 1286, 1287, 1288, 1289, 1290, 1291, 1292, 1293, 1294, 1295, 1296, 1297, 1298, 1299, 1300, 1301, 1302, 1303, 1304, 1305, 1306, 1307, 1308, 1309, 1310, 1311, 1312, 1313, 1314, 1315, 1316, 1317, 1318, 1319, 1320, 1321, 1322, 1323, 1324, 1325, 1326, 1327, 1328, 1329, 1330, 1331, 1332, 1333, 1334, 1335, 1336, 1337, 1338, 1339, 1340, 1341, 1342, 1343, 1344, 1345, 1346, 1347, 1348, 1349, 1350, 1351, 1352, 1353, 1354, 1355, 1356, 1357, 1358, 1359, 1360, 1361, 1362, 1363, 1364, 1365, 1366, 1367, 1368, 1369, 1370, 1371, 1372, 1373, 1374, 1375, 1376, 1377, 1378, 1379, 1380, 1381, 1382, 1383, 1384, 1385, 1386, 1387, 1388, 1389, 1390, 1391, 1392, 1393, 1394, 1395, 1396, 1397, 1398, 1399, 1400, 1401, 1402, 1403, 1404, 1405, 1406, 1407, 1408, 1409, 1410, 1411, 1412, 1413, 1414, 1415, 1416, 1417, 1418, 1419, 1420, 1421, 1422, 1423, 1424, 1425, 1426, 1427, 1428, 1429, 1430, 1431, 1432, 1433, 1434, 1435, 1436, 1437, 1438, 1439, 1440, 1441, 1442, 1443, 1444, 1445, 1446, 1447, 1448, 1449, 1450, 1451, 1452, 1453, 1454, 1455, 1456, 1457, 1458, 1459, 1460, 1461, 1462, 1463, 1464, 1465, 1466, 1467, 1468, 1469, 1470, 1471, 1472, 1473, 1474, 1475, 1476, 1477, 1478, 1479, 1480, 1481, 1482, 1483, 1484, 1485, 1486, 1487, 1488, 1489, 1490, 1491, 1492, 1493, 1494, 1495, 1496, 1497, 1498, 1499, 1500, 1501, 1502, 1503, 1504, 1505, 1506, 1507, 1508, 1509, 1510, 1511, 1512, 1513, 1514, 1515, 1516, 1517, 1518, 1519, 1520, 1521, 1522],
      "AcquisitionTime": ["193355.545000", "193357.045000", "193358.545000", "193400.045000", "193401.545000", "193403.045000", "193404.545000", "193406.045000", "193407.545000", "193409.045000", "193410.545000", "193412.045000", "193413.545000", "193415.045000", "193416.545000", "193418.045000", "193419.545000", "193421.045000", "193422.545000", "193424.045000", "193425.545000", "193427.045000", "193428.545000", "193430.045000", "193431.545000", "193433.045000", "193434.545000", "193436.045000", "193437.545000", "193439.045000", "193440.545000", "193442.045000", "193443.545000", "193445.045000", "193446.545000", "193448.045000", "193449.545000", "193451.045000", "193452.545000", "193454.045000", "193455.545000", "193457.045000", "193458.545000", "193500.045000", "193501.545000", "193503.045000", "193504.545000", "193506.045000", "193507.545000", "193509.045000", "193510.545000", "193512.045000", "193513.545000", "193515.045000", "193516.545000", "193518.045000", "193519.545000", "193521.045000", "193522.545000", "193524.045000", "193525.545000", "193527.045000", "193528.545000", "193530.045000", "193531.545000", "193533.045000", "193534.545000", "193536.045000", "193537.545000", "193539.045000", "193540.545000", "193542.045000", "193543.545000", "193545.045000", "193546.545000", "193548.045000", "193549.545000", "193551.045000", "193552.545000", "193554.045000", "193555.545000", "193557.045000", "193558.545000", "193600.045000", "193601.545000", "193603.045000", "193604.545000", "193606.045000", "193607.545000", "193609.045000", "193610.545000", "193612.045000", "193613.545000", "193615.045000", "193616.545000", "193618.045000", "193619.545000", "193621.045000", "193622.545000", "193624.045000", "193625.545000", "193627.045000", "193628.545000", "193630.045000", "193631.545000", "193633.045000", "193634.545000", "193636.045000", "193637.545000", "193639.045000", "193640.545000", "193642.045000", "193643.545000", "193645.045000", "193646.545000", "193648.045000", "193649.545000", "193651.045000", "193652.545000", "193654.045000", "193655.545000", "193657.045000", "193658.545000", "193700.045000", "193701.545000", "193703.045000", "193704.545000", "193706.045000", "193707.545000", "193709.045000", "193710.545000", "193712.045000", "193713.545000", "193715.045000", "193716.545000", "193718.045000", "193719.545000", "193721.045000", "193722.545000", "193724.045000", "193725.545000", "193727.045000", "193728.545000", "193730.045000", "193731.545000", "193733.045000", "193734.545000", "193736.045000", "193737.545000", "193739.045000", "193740.545000", "193742.045000", "193743.545000", "193745.045000", "193746.545000", "193748.045000", "193749.545000", "193751.045000", "193752.545000", "193754.045000", "193755.545000", "193757.045000", "193758.545000", "193800.045000", "193801.545000", "193803.045000", "193804.545000", "193806.045000", "193807.545000", "193809.045000", "193810.545000", "193812.045000", "193813.545000", "193815.045000", "193816.545000", "193818.045000", "193819.545000", "193821.045000", "193822.545000", "193824.045000", "193825.545000", "193827.045000", "193828.545000", "193830.045000", "193831.545000", "193833.045000", "193834.545000", "193836.045000", "193837.545000", "193839.045000", "193840.545000", "193842.045000", "193843.545000", "193845.045000", "193846.545000", "193848.045000", "193849.545000", "193851.045000", "193852.545000", "193854.045000", "193855.545000", "193857.045000", "193858.545000", "193900.045000", "193901.545000", "193903.045000", "193904.545000", "193906.045000", "193907.545000", "193909.045000", "193910.545000", "193912.045000", "193913.545000", "193915.045000", "193916.545000", "193918.045000", "193919.545000", "193921.045000", "193922.545000", "193924.045000", "193925.545000", "193927.045000", "193928.545000", "193930.045000", "193931.545000", "193933.045000", "193934.545000", "193936.045000", "193937.545000", "193939.045000", "193940.545000", "193942.045000", "193943.545000", "193945.045000", "193946.545000", "193948.045000", "193949.545000", "193951.045000", "193952.545000", "193954.045000", "193955.545000", "193957.045000", "193958.545000", "194000.045000", "194001.545000", "194003.045000", "194004.545000", "194006.045000", "194007.545000", "194009.045000", "194010.545000", "194012.045000", "194013.545000", "194015.045000", "194016.545000", "194018.045000", "194019.545000", "194021.045000", "194022.545000", "194024.045000", "194025.545000", "194027.045000", "194028.545000", "194030.045000", "194031.545000", "194033.045000", "194034.545000", "194036.045000", "194037.545000", "194039.045000", "194040.545000", "194042.045000", "194043.545000", "194045.045000", "194046.545000", "194048.045000", "194049.545000", "194051.045000", "194052.545000", "194054.045000", "194055.545000", "194057.045000", "194058.545000", "194100.045000", "194101.545000", "194103.045000", "194104.545000", "194106.045000", "194107.545000", "194109.045000", "194110.545000", "194112.045000", "194113.545000", "194115.045000", "194116.545000", "194118.045000", "194119.545000", "194121.045000", "194122.545000", "194124.045000", "194125.545000", "194127.045000", "194128.545000", "194130.045000", "194131.545000", "194133.045000", "194134.545000", "194136.045000", "194137.545000", "194139.045000", "194140.545000", "194142.045000", "194143.545000", "194145.045000", "194146.545000", "194148.045000", "194149.545000", "194151.045000", "194152.545000", "194154.045000", "194155.545000", "194157.045000", "194158.545000", "194200.045000", "194201.545000", "194203.045000", "194204.545000", "194206.045000", "194207.545000", "194209.045000", "194210.545000", "194212.045000", "194213.545000", "194215.045000", "194216.545000", "194218.045000", "194219.545000", "194221.045000", "194222.545000", "194224.045000", "194225.545000", "194227.045000", "194228.545000", "194230.045000", "194231.545000", "194233.045000", "194234.545000", "194236.045000", "194237.545000", "194239.045000", "194240.545000", "194242.045000", "194243.545000", "194245.045000", "194246.545000", "194248.045000", "194249.545000", "194251.045000", "194252.545000", "194254.045000", "194255.545000", "194257.045000", "194258.545000", "194300.045000", "194301.545000", "194303.045000", "194304.545000", "194306.045000", "194307.545000", "194309.045000", "194310.545000", "194312.045000", "194313.545000", "194315.045000", "194316.545000", "194318.045000", "194319.545000", "194321.045000", "194322.545000", "194324.045000", "194325.545000", "194327.045000", "194328.545000", "194330.045000", "194331.545000", "194333.045000", "194334.545000", "194336.045000", "194337.545000", "194339.045000", "194340.545000", "194342.045000", "194343.545000", "194345.045000", "194346.545000", "194348.045000", "194349.545000", "194351.045000", "194352.545000", "194354.045000", "194355.545000", "194357.045000", "194358.545000", "194400.045000", "194401.545000", "194403.045000", "194404.545000", "194406.045000", "194407.545000", "194409.045000", "194410.545000", "194412.045000", "194413.545000", "194415.045000", "194416.545000", "194418.045000", "194419.545000", "194421.045000", "194422.545000", "194424.045000", "194425.545000", "194427.045000", "194428.545000", "194430.045000", "194431.545000", "194433.045000", "194434.545000", "194436.045000", "194437.545000", "194439.045000", "194440.545000", "194442.045000", "194443.545000", "194445.045000", "194446.545000", "194448.045000", "194449.545000", "194451.045000", "194452.545000", "194454.045000", "194455.545000", "194457.045000", "194458.545000", "194500.045000", "194501.545000", "194503.045000", "194504.545000", "194506.045000", "194507.545000", "194509.045000", "194510.545000", "194512.045000", "194513.545000", "194515.045000", "194516.545000", "194518.045000", "194519.545000", "194521.045000", "194522.545000", "194524.045000", "194525.545000", "194527.045000", "194528.545000", "194530.045000", "194531.545000", "194533.045000", "194534.545000", "194536.045000", "194537.545000", "194539.045000", "194540.545000", "194542.045000", "194543.545000", "194545.045000", "194546.545000", "194548.045000", "194549.545000", "194551.045000", "194552.545000", "194554.045000", "194555.545000", "194557.045000", "194558.545000", "194600.045000", "194601.545000", "194603.045000", "194604.545000", "194606.045000", "194607.545000", "194609.045000", "194610.545000", "194612.045000", "194613.545000", "194615.045000", "194616.545000", "194618.045000", "194619.545000", "194621.045000", "194622.545000", "194624.045000", "194625.545000", "194627.045000", "194628.545000", "194630.045000", "194631.545000", "194633.045000", "194634.545000", "194636.045000", "194637.545000", "194639.045000", "194640.545000", "194642.045000", "194643.545000", "194645.045000", "194646.545000", "194648.045000", "194649.545000", "194651.045000", "194652.545000", "194654.045000", "194655.545000", "194657.045000", "194658.545000", "194700.045000", "194701.545000", "194703.045000", "194704.545000", "194706.045000", "194707.545000", "194709.045000", "194710.545000", "194712.045000", "194713.545000", "194715.045000", "194716.545000", "194718.045000", "194719.545000", "194721.045000", "194722.545000", "194724.045000", "194725.545000", "194727.045000", "194728.545000", "194730.045000", "194731.545000", "194733.045000", "194734.545000", "194736.045000", "194737.545000", "194739.045000", "194740.545000", "194742.045000", "194743.545000", "194745.045000", "194746.545000", "194748.045000", "194749.545000", "194751.045000", "194752.545000", "194754.045000", "194755.545000", "194757.045000", "194758.545000", "194800.045000", "194801.545000", "194803.045000", "194804.545000", "194806.045000", "194807.545000", "194809.045000", "194810.545000", "194812.045000", "194813.545000", "194815.045000", "194816.545000", "194818.045000", "194819.545000", "194821.045000", "194822.545000", "194824.045000", "194825.545000", "194827.045000", "194828.545000", "194830.045000", "194831.545000", "194833.045000", "194834.545000", "194836.045000", "194837.545000", "194839.045000", "194840.545000", "194842.045000", "194843.545000", "194845.045000", "194846.545000", "194848.045000", "194849.545000", "194851.045000", "194852.545000", "194854.045000", "194855.545000", "194857.045000", "194858.545000", "194900.045000", "194901.545000", "194903.045000", "194904.545000", "194906.045000", "194907.545000", "194909.045000", "194910.545000", "194912.045000", "194913.545000", "194915.045000", "194916.545000", "194918.045000", "194919.545000", "194921.045000", "194922.545000", "194924.045000", "194925.545000", "194927.045000", "194928.545000", "194930.045000", "194931.545000", "194933.045000", "194934.545000", "194936.045000", "194937.545000", "194939.045000", "194940.545000", "194942.045000", "194943.545000", "194945.045000", "194946.545000", "194948.045000", "194949.545000", "194951.045000", "194952.545000", "194954.045000", "194955.545000", "194957.045000", "194958.545000", "195000.045000", "195001.545000", "195003.045000", "195004.545000", "195006.045000", "195007.545000", "195009.045000", "195010.545000", "195012.045000", "195013.545000", "195015.045000", "195016.545000", "195018.045000", "195019.545000", "195021.045000", "195022.545000", "195024.045000", "195025.545000", "195027.045000", "195028.545000", "195030.045000", "195031.545000", "195033.045000", "195034.545000", "195036.045000", "195037.545000", "195039.045000", "195040.545000", "195042.045000", "195043.545000", "195045.045000", "195046.545000", "195048.045000", "195049.545000", "195051.045000", "195052.545000", "195054.045000", "195055.545000", "195057.045000", "195058.545000", "195100.045000", "195101.545000", "195103.045000", "195104.545000", "195106.045000", "195107.545000", "195109.045000", "195110.545000", "195112.045000", "195113.545000", "195115.045000", "195116.545000", "195118.045000", "195119.545000", "195121.045000", "195122.545000", "195124.045000", "195125.545000", "195127.045000", "195128.545000", "195130.045000", "195131.545000", "195133.045000", "195134.545000", "195136.045000", "195137.545000", "195139.045000", "195140.545000", "195142.045000", "195143.545000", "195145.045000", "195146.545000", "195148.045000", "195149.545000", "195151.045000", "195152.545000", "195154.045000", "195155.545000", "195157.045000", "195158.545000", "195200.045000", "195201.545000", "195203.045000", "195204.545000", "195206.045000", "195207.545000", "195209.045000", "195210.545000", "195212.045000", "195213.545000", "195215.045000", "195216.545000", "195218.045000", "195219.545000", "195221.045000", "195222.545000", "195224.045000", "195225.545000", "195227.045000", "195228.545000", "195230.045000", "195231.545000", "195233.045000", "195234.545000", "195236.045000", "195237.545000", "195239.045000", "195240.545000", "195242.045000", "195243.545000", "195245.045000", "195246.545000", "195248.045000", "195249.545000", "195251.045000", "195252.545000", "195254.045000", "195255.545000", "195257.045000", "195258.545000", "195300.045000", "195301.545000", "195303.045000", "195304.545000", "195306.045000", "195307.545000", "195309.045000", "195310.545000", "195312.045000", "195313.545000", "195315.045000", "195316.545000", "195318.045000", "195319.545000", "195321.045000", "195322.545000", "195324.045000", "195325.545000", "195327.045000", "195328.545000", "195330.045000", "195331.545000", "195333.045000", "195334.545000", "195336.045000", "195337.545000", "195339.045000", "195340.545000", "195342.045000", "195343.545000", "195345.045000", "195346.545000", "195348.045000", "195349.545000", "195351.045000", "195352.545000", "195354.045000", "195355.545000", "195357.045000", "195358.545000", "195400.045000", "195401.545000", "195403.045000", "195404.545000", "195406.045000", "195407.545000", "195409.045000", "195410.545000", "195412.045000", "195413.545000", "195415.045000", "195416.545000", "195418.045000", "195419.545000", "195421.045000", "195422.545000", "195424.045000", "195425.545000", "195427.045000", "195428.545000", "195430.045000", "195431.545000", "195433.045000", "195434.545000", "195436.045000", "195437.545000", "195439.045000", "195440.545000", "195442.045000", "195443.545000", "195445.045000", "195446.545000", "195448.045000", "195449.545000", "195451.045000", "195452.545000", "195454.045000", "195455.545000", "195457.045000", "195458.545000", "195500.045000", "195501.545000", "195503.045000", "195504.545000", "195506.045000", "195507.545000", "195509.045000", "195510.545000", "195512.045000", "195513.545000", "195515.045000", "195516.545000", "195518.045000", "195519.545000", "195521.045000", "195522.545000", "195524.045000", "195525.545000", "195527.045000", "195528.545000", "195530.045000", "195531.545000", "195533.045000", "195534.545000", "195536.045000", "195537.545000", "195539.045000", "195540.545000", "195542.045000", "195543.545000", "195545.045000", "195546.545000", "195548.045000", "195549.545000", "195551.045000", "195552.545000", "195554.045000", "195555.545000", "195557.045000", "195558.545000", "195600.045000", "195601.545000", "195603.045000", "195604.545000", "195606.045000", "195607.545000", "195609.045000", "195610.545000", "195612.045000", "195613.545000", "195615.045000", "195616.545000", "195618.045000", "195619.545000", "195621.045000", "195622.545000", "195624.045000", "195625.545000", "195627.045000", "195628.545000", "195630.045000", "195631.545000", "195633.045000", "195634.545000", "195636.045000", "195637.545000", "195639.045000", "195640.545000", "195642.045000", "195643.545000", "195645.045000", "195646.545000", "195648.045000", "195649.545000", "195651.045000", "195652.545000", "195654.045000", "195655.545000", "195657.045000", "195658.545000", "195700.045000", "195701.545000", "195703.045000", "195704.545000", "195706.045000", "195707.545000", "195709.045000", "195710.545000", "195712.045000", "195713.545000", "195715.045000", "195716.545000", "195718.045000", "195719.545000", "195721.045000", "195722.545000", "195724.045000", "195725.545000", "195727.045000", "195728.545000", "195730.045000", "195731.545000", "195733.045000", "195734.545000", "195736.045000", "195737.545000", "195739.045000", "195740.545000", "195742.045000", "195743.545000", "195745.045000", "195746.545000", "195748.045000", "195749.545000", "195751.045000", "195752.545000", "195754.045000", "195755.5