{
  "AcquisitionMatrixPE": 106,
  "AcquisitionNumber": 1,
  "AcquisitionTime": "20:15:20.202500",
  "BandwidthPerPixelPhaseEncode": 16.846,
  "BaseResolution": 106,
  "BodyPartExamined": "BRAIN",
  "CoilCombinationMethod": "Sum of Squares",
  "ConsistencyInfo": "N4_VE11C_LATEST_20160120",
  "ConversionSoftware": "dcm2niix",
  "ConversionSoftwareVersion": "v1.0.20220720",
  "DerivedVendorReportedEchoSpacing": 0.000560012,
  "DeviceSerialNumber": "166108",
  "DwellTime": 1.8e-06,
  "EchoTime": 0.0352,
  "EchoTrainLength": 106,
  "EffectiveEchoSpacing": 0.000560012,
  "FlipAngle": 60,
  "HeudiconvVersion": "1.3.0",
  "ImageComments": "Unaliased MB4/PE3/LB",
  "ImageOrientationPatientDICOM": [1, 0, 0, 0, 1, 0],
  "ImageOrientationText": "Tra",
  "ImageType": [
    "ORIGINAL",
    "PRIMARY",
    "M",
    "MB",
    "ND",
    "MOSAIC"
],
  "ImagingFrequency": 123.244,
  "InPlanePhaseEncodingDirectionDICOM": "COL",
  "InstitutionAddress": "Bedford Way 26,London,London,GB,WC1H 0AP",
  "InstitutionName": "University College",
  "InstitutionalDepartmentName": "Department",
  "MRAcquisitionType": "2D",
  "MagneticFieldStrength": 3,
  "Manufacturer": "Siemens",
  "ManufacturersModelName": "Prisma",
  "MatrixCoilMode": "SENSE",
  "Modality": "MR",
  "MultibandAccelerationFactor": 4,
  "NonlinearGradientCorrection": false,
  "PartialFourier": 1,
  "PatientPosition": "HFS",
  "PercentPhaseFOV": 100,
  "PercentSampling": 100,
  "PhaseEncodingDirection": "j-",
  "PhaseEncodingSteps": 106,
  "PhaseResolution": 1,
  "PixelBandwidth": 2620,
  "ProcedureStepDescription": "Egor^MovieProject2",
  "ProtocolName": "task-backtothefuture_run-3",
  "PulseSequenceDetails": "%CustomerSeq%\\cmrr_mbep2d_bold",
  "ReceiveCoilActiveElements": "HEA;HEP",
  "ReceiveCoilName": "Head_32",
  "ReconMatrixPE": 106,
  "RepetitionTime": 1.5,
  "SAR": 0.0688504,
  "ScanOptions": "FS\\EXT",
  "ScanningSequence": "EP",
  "SequenceName": "epfid2d1_106",
  "SequenceVariant": "SK\\SS",
  "SeriesDescription": "task-backtothefuture_run-3",
  "SeriesNumber": 13,
  "ShimSetting": [-1524, 610, 7422, 161, -181, -58, 15, -100],
  "SliceThickness": 2,
  "SliceTiming": [0, 1.0675, 0.6575, 0.245, 1.315, 0.9025, 0.4925, 0.0825, 1.15, 0.74, 0.3275, 1.3975, 0.985, 0.575, 0.1625, 1.2325, 0.8225, 0.41, 0, 1.0675, 0.6575, 0.245, 1.315, 0.9025, 0.4925, 0.0825, 1.15, 0.74, 0.3275, 1.3975, 0.985, 0.575, 0.1625, 1.2325, 0.8225, 0.41, 0, 1.0675, 0.6575, 0.245, 1.315, 0.9025, 0.4925, 0.0825, 1.15, 0.74, 0.3275, 1.3975, 0.985, 0.575, 0.1625, 1.2325, 0.8225, 0.41, 0, 1.0675, 0.6575, 0.245, 1.315, 0.9025, 0.4925, 0.0825, 1.15, 0.74, 0.3275, 1.3975, 0.985, 0.575, 0.1625, 1.2325, 0.8225, 0.41],
  "SoftwareVersions": "syngo MR E11",
  "SpacingBetweenSlices": 2,
  "StationName": "AWP166108",
  "TaskName": "backtothefuture",
  "TotalReadoutTime": 0.0588013,
  "TxRefAmp": 244.674,
  "WipMemBlock": "e85fe681-d1e1-42d5-ad31-e24a87318958||Sequence: R016 ve11c/master r/e634e98; Dec 19 2017 11:00:25 by eja",
  "dcmmeta_affine": [
    [-2.0, 0.0, 0.0, 106.0],
    [0.0, 2.0, 0.0, -93.759033203125],
    [0.0, 0.0, 2.0, -64.37349700927734],
    [0.0, 0.0, 0.0, 1.0]
],
  "dcmmeta_reorient_transform": [
    [0.0, -1.0, 0.0, 105.0],
    [1.0, 0.0, 0.0, 0.0],
    [0.0, 0.0, 1.0, 0.0],
    [0.0, 0.0, 0.0, 1.0]
],
  "dcmmeta_shape": [106, 106, 72, 1608],
  "dcmmeta_slice_dim": 2,
  "dcmmeta_version": 0.6,
  "global": {
    "const": {
      "AcquisitionMatrix": [106, 0, 0, 106],
      "AngioFlag": "N",
      "BitsAllocated": 16,
      "BitsStored": 16,
      "BodyPartExamined": "BRAIN",
      "CardiacNumberOfImages": 1,
      "Columns": 954,
      "EchoNumbers": 1,
      "EchoTime": 35.2,
      "EchoTrainLength": 106,
      "FlipAngle": 60.0,
      "HighBit": 15,
      "ImageOrientationPatient": [1.0, 0.0, 0.0, 0.0, 1.0, 0.0],
      "ImagePositionPatient": [-954.0, -964.24096393585, -64.373497009277],
      "ImageType": [
        "ORIGINAL",
        "PRIMARY",
        "M",
        "MB",
        "ND",
        "MOSAIC"
],
      "ImagedNucleus": "1H",
      "ImagingFrequency": 123.243655,
      "InPlanePhaseEncodingDirection": "COL",
      "MRAcquisitionType": "2D",
      "MagneticFieldStrength": 3.0,
      "Manufacturer": "SIEMENS",
      "ManufacturerModelName": "Prisma",
      "Modality": "MR",
      "NominalInterval": 0,
      "NumberOfAverages": 1.0,
      "NumberOfPhaseEncodingSteps": 106,
      "PercentPhaseFieldOfView": 100.0,
      "PercentSampling": 100.0,
      "PerformedProcedureStepStartTime": "182243.764000",
      "PhotometricInterpretation": "MONOCHROME2",
      "PixelBandwidth": 2620.0,
      "PixelRepresentation": 0,
      "PixelSpacing": [2.0, 2.0],
      "ProtocolName": "task-backtothefuture_run-3",
      "RepetitionTime": 1500.0,
      "Rows": 954,
      "SAR": 0.06885042656453,
      "SamplesPerPixel": 1,
      "ScanOptions": [
        "FS",
        "EXT"
],
      "ScanningSequence": "EP",
      "SequenceName": "epfid2d1_106",
      "SequenceVariant": [
        "SK",
        "SS"
],
      "SeriesDescription": "task-backtothefuture_run-3",
      "SeriesNumber": 13,
      "SeriesTime": "201611.990000",
      "SliceLocation": -64.373497009277,
      "SliceThickness": 2.0,
      "SmallestImagePixelValue": 0,
      "SoftwareVersions": "syngo MR E11",
      "SpacingBetweenSlices": 2.0,
      "SpecificCharacterSet": "ISO_IR 100",
      "StudyID": "1",
      "StudyTime": "182243.653000",
      "TransmitCoilName": "Body",
      "VariableFlipAngleFlag": "N",
      "WindowCenterWidthExplanation": "Algo1",
      "dBdt": 0.0},
    "slices": {}
  },
  "time": {
    "samples": {
      "AcquisitionNumber": [1, 2, 3, 4, 5, 6, 7, 8, 9, 10, 11, 12, 13, 14, 15, 16, 17, 18, 19, 20, 21, 22, 23, 24, 25, 26, 27, 28, 29, 30, 31, 32, 33, 34, 35, 36, 37, 38, 39, 40, 41, 42, 43, 44, 45, 46, 47, 48, 49, 50, 51, 52, 53, 54, 55, 56, 57, 58, 59, 60, 61, 62, 63, 64, 65, 66, 67, 68, 69, 70, 71, 72, 73, 74, 75, 76, 77, 78, 79, 80, 81, 82, 83, 84, 85, 86, 87, 88, 89, 90, 91, 92, 93, 94, 95, 96, 97, 98, 99, 100, 101, 102, 103, 104, 105, 106, 107, 108, 109, 110, 111, 112, 113, 114, 115, 116, 117, 118, 119, 120, 121, 122, 123, 124, 125, 126, 127, 128, 129, 130, 131, 132, 133, 134, 135, 136, 137, 138, 139, 140, 141, 142, 143, 144, 145, 146, 147, 148, 149, 150, 151, 152, 153, 154, 155, 156, 157, 158, 159, 160, 161, 162, 163, 164, 165, 166, 167, 168, 169, 170, 171, 172, 173, 174, 175, 176, 177, 178, 179, 180, 181, 182, 183, 184, 185, 186, 187, 188, 189, 190, 191, 192, 193, 194, 195, 196, 197, 198, 199, 200, 201, 202, 203, 204, 205, 206, 207, 208, 209, 210, 211, 212, 213, 214, 215, 216, 217, 218, 219, 220, 221, 222, 223, 224, 225, 226, 227, 228, 229, 230, 231, 232, 233, 234, 235, 236, 237, 238, 239, 240, 241, 242, 243, 244, 245, 246, 247, 248, 249, 250, 251, 252, 253, 254, 255, 256, 257, 258, 259, 260, 261, 262, 263, 264, 265, 266, 267, 268, 269, 270, 271, 272, 273, 274, 275, 276, 277, 278, 279, 280, 281, 282, 283, 284, 285, 286, 287, 288, 289, 290, 291, 292, 293, 294, 295, 296, 297, 298, 299, 300, 301, 302, 303, 304, 305, 306, 307, 308, 309, 310, 311, 312, 313, 314, 315, 316, 317, 318, 319, 320, 321, 322, 323, 324, 325, 326, 327, 328, 329, 330, 331, 332, 333, 334, 335, 336, 337, 338, 339, 340, 341, 342, 343, 344, 345, 346, 347, 348, 349, 350, 351, 352, 353, 354, 355, 356, 357, 358, 359, 360, 361, 362, 363, 364, 365, 366, 367, 368, 369, 370, 371, 372, 373, 374, 375, 376, 377, 378, 379, 380, 381, 382, 383, 384, 385, 386, 387, 388, 389, 390, 391, 392, 393, 394, 395, 396, 397, 398, 399, 400, 401, 402, 403, 404, 405, 406, 407, 408, 409, 410, 411, 412, 413, 414, 415, 416, 417, 418, 419, 420, 421, 422, 423, 424, 425, 426, 427, 428, 429, 430, 431, 432, 433, 434, 435, 436, 437, 438, 439, 440, 441, 442, 443, 444, 445, 446, 447, 448, 449, 450, 451, 452, 453, 454, 455, 456, 457, 458, 459, 460, 461, 462, 463, 464, 465, 466, 467, 468, 469, 470, 471, 472, 473, 474, 475, 476, 477, 478, 479, 480, 481, 482, 483, 484, 485, 486, 487, 488, 489, 490, 491, 492, 493, 494, 495, 496, 497, 498, 499, 500, 501, 502, 503, 504, 505, 506, 507, 508, 509, 510, 511, 512, 513, 514, 515, 516, 517, 518, 519, 520, 521, 522, 523, 524, 525, 526, 527, 528, 529, 530, 531, 532, 533, 534, 535, 536, 537, 538, 539, 540, 541, 542, 543, 544, 545, 546, 547, 548, 549, 550, 551, 552, 553, 554, 555, 556, 557, 558, 559, 560, 561, 562, 563, 564, 565, 566, 567, 568, 569, 570, 571, 572, 573, 574, 575, 576, 577, 578, 579, 580, 581, 582, 583, 584, 585, 586, 587, 588, 589, 590, 591, 592, 593, 594, 595, 596, 597, 598, 599, 600, 601, 602, 603, 604, 605, 606, 607, 608, 609, 610, 611, 612, 613, 614, 615, 616, 617, 618, 619, 620, 621, 622, 623, 624, 625, 626, 627, 628, 629, 630, 631, 632, 633, 634, 635, 636, 637, 638, 639, 640, 641, 642, 643, 644, 645, 646, 647, 648, 649, 650, 651, 652, 653, 654, 655, 656, 657, 658, 659, 660, 661, 662, 663, 664, 665, 666, 667, 668, 669, 670, 671, 672, 673, 674, 675, 676, 677, 678, 679, 680, 681, 682, 683, 684, 685, 686, 687, 688, 689, 690, 691, 692, 693, 694, 695, 696, 697, 698, 699, 700, 701, 702, 703, 704, 705, 706, 707, 708, 709, 710, 711, 712, 713, 714, 715, 716, 717, 718, 719, 720, 721, 722, 723, 724, 725, 726, 727, 728, 729, 730, 731, 732, 733, 734, 735, 736, 737, 738, 739, 740, 741, 742, 743, 744, 745, 746, 747, 748, 749, 750, 751, 752, 753, 754, 755, 756, 757, 758, 759, 760, 761, 762, 763, 764, 765, 766, 767, 768, 769, 770, 771, 772, 773, 774, 775, 776, 777, 778, 779, 780, 781, 782, 783, 784, 785, 786, 787, 788, 789, 790, 791, 792, 793, 794, 795, 796, 797, 798, 799, 800, 801, 802, 803, 804, 805, 806, 807, 808, 809, 810, 811, 812, 813, 814, 815, 816, 817, 818, 819, 820, 821, 822, 823, 824, 825, 826, 827, 828, 829, 830, 831, 832, 833, 834, 835, 836, 837, 838, 839, 840, 841, 842, 843, 844, 845, 846, 847, 848, 849, 850, 851, 852, 853, 854, 855, 856, 857, 858, 859, 860, 861, 862, 863, 864, 865, 866, 867, 868, 869, 870, 871, 872, 873, 874, 875, 876, 877, 878, 879, 880, 881, 882, 883, 884, 885, 886, 887, 888, 889, 890, 891, 892, 893, 894, 895, 896, 897, 898, 899, 900, 901, 902, 903, 904, 905, 906, 907, 908, 909, 910, 911, 912, 913, 914, 915, 916, 917, 918, 919, 920, 921, 922, 923, 924, 925, 926, 927, 928, 929, 930, 931, 932, 933, 934, 935, 936, 937, 938, 939, 940, 941, 942, 943, 944, 945, 946, 947, 948, 949, 950, 951, 952, 953, 954, 955, 956, 957, 958, 959, 960, 961, 962, 963, 964, 965, 966, 967, 968, 969, 970, 971, 972, 973, 974, 975, 976, 977, 978, 979, 980, 981, 982, 983, 984, 985, 986, 987, 988, 989, 990, 991, 992, 993, 994, 995, 996, 997, 998, 999, 1000, 1001, 1002, 1003, 1004, 1005, 1006, 1007, 1008, 1009, 1010, 1011, 1012, 1013, 1014, 1015, 1016, 1017, 1018, 1019, 1020, 1021, 1022, 1023, 1024, 1025, 1026, 1027, 1028, 1029, 1030, 1031, 1032, 1033, 1034, 1035, 1036, 1037, 1038, 1039, 1040, 1041, 1042, 1043, 1044, 1045, 1046, 1047, 1048, 1049, 1050, 1051, 1052, 1053, 1054, 1055, 1056, 1057, 1058, 1059, 1060, 1061, 1062, 1063, 1064, 1065, 1066, 1067, 1068, 1069, 1070, 1071, 1072, 1073, 1074, 1075, 1076, 1077, 1078, 1079, 1080, 1081, 1082, 1083, 1084, 1085, 1086, 1087, 1088, 1089, 1090, 1091, 1092, 1093, 1094, 1095, 1096, 1097, 1098, 1099, 1100, 1101, 1102, 1103, 1104, 1105, 1106, 1107, 1108, 1109, 1110, 1111, 1112, 1113, 1114, 1115, 1116, 1117, 1118, 1119, 1120, 1121, 1122, 1123, 1124, 1125, 1126, 1127, 1128, 1129, 1130, 1131, 1132, 1133, 1134, 1135, 1136, 1137, 1138, 1139, 1140, 1141, 1142, 1143, 1144, 1145, 1146, 1147, 1148, 1149, 1150, 1151, 1152, 1153, 1154, 1155, 1156, 1157, 1158, 1159, 1160, 1161, 1162, 1163, 1164, 1165, 1166, 1167, 1168, 1169, 1170, 1171, 1172, 1173, 1174, 1175, 1176, 1177, 1178, 1179, 1180, 1181, 1182, 1183, 1184, 1185, 1186, 1187, 1188, 1189, 1190, 1191, 1192, 1193, 1194, 1195, 1196, 1197, 1198, 1199, 1200, 1201, 1202, 1203, 1204, 1205, 1206, 1207, 1208, 1209, 1210, 1211, 1212, 1213, 1214, 1215, 1216, 1217, 1218, 1219, 1220, 1221, 1222, 1223, 1224, 1225, 1226, 1227, 1228, 1229, 1230, 1231, 1232, 1233, 1234, 1235, 1236, 1237, 1238, 1239, 1240, 1241, 1242, 1243, 1244, 1245, 1246, 1247, 1248, 1249, 1250, 1251, 1252, 1253, 1254, 1255, 1256, 1257, 1258, 1259, 1260, 1261, 1262, 1263, 1264, 1265, 1266, 1267, 1268, 1269, 1270, 1271, 1272, 1273, 1274, 1275, 1276, 1277, 1278, 1279, 1280, 1281, 1282, 1283, 1284, 1285, 1286, 1287, 1288, 1289, 1290, 1291, 1292, 1293, 1294, 1295, 1296, 1297, 1298, 1299, 1300, 1301, 1302, 1303, 1304, 1305, 1306, 1307, 1308, 1309, 1310, 1311, 1312, 1313, 1314, 1315, 1316, 1317, 1318, 1319, 1320, 1321, 1322, 1323, 1324, 1325, 1326, 1327, 1328, 1329, 1330, 1331, 1332, 1333, 1334, 1335, 1336, 1337, 1338, 1339, 1340, 1341, 1342, 1343, 1344, 1345, 1346, 1347, 1348, 1349, 1350, 1351, 1352, 1353, 1354, 1355, 1356, 1357, 1358, 1359, 1360, 1361, 1362, 1363, 1364, 1365, 1366, 1367, 1368, 1369, 1370, 1371, 1372, 1373, 1374, 1375, 1376, 1377, 1378, 1379, 1380, 1381, 1382, 1383, 1384, 1385, 1386, 1387, 1388, 1389, 1390, 1391, 1392, 1393, 1394, 1395, 1396, 1397, 1398, 1399, 1400, 1401, 1402, 1403, 1404, 1405, 1406, 1407, 1408, 1409, 1410, 1411, 1412, 1413, 1414, 1415, 1416, 1417, 1418, 1419, 1420, 1421, 1422, 1423, 1424, 1425, 1426, 1427, 1428, 1429, 1430, 1431, 1432, 1433, 1434, 1435, 1436, 1437, 1438, 1439, 1440, 1441, 1442, 1443, 1444, 1445, 1446, 1447, 1448, 1449, 1450, 1451, 1452, 1453, 1454, 1455, 1456, 1457, 1458, 1459, 1460, 1461, 1462, 1463, 1464, 1465, 1466, 1467, 1468, 1469, 1470, 1471, 1472, 1473, 1474, 1475, 1476, 1477, 1478, 1479, 1480, 1481, 1482, 1483, 1484, 1485, 1486, 1487, 1488, 1489, 1490, 1491, 1492, 1493, 1494, 1495, 1496, 1497, 1498, 1499, 1500, 1501, 1502, 1503, 1504, 1505, 1506, 1507, 1508, 1509, 1510, 1511, 1512, 1513, 1514, 1515, 1516, 1517, 1518, 1519, 1520, 1521, 1522, 1523, 1524, 1525, 1526, 1527, 1528, 1529, 1530, 1531, 1532, 1533, 1534, 1535, 1536, 1537, 1538, 1539, 1540, 1541, 1542, 1543, 1544, 1545, 1546, 1547, 1548, 1549, 1550, 1551, 1552, 1553, 1554, 1555, 1556, 1557, 1558, 1559, 1560, 1561, 1562, 1563, 1564, 1565, 1566, 1567, 1568, 1569, 1570, 1571, 1572, 1573, 1574, 1575, 1576, 1577, 1578, 1579, 1580, 1581, 1582, 1583, 1584, 1585, 1586, 1587, 1588, 1589, 1590, 1591, 1592, 1593, 1594, 1595, 1596, 1597, 1598, 1599, 1600, 1601, 1602, 1603, 1604, 1605, 1606, 1607, 1608],
      "AcquisitionTime": ["201520.202500", "201521.702500", "201523.202500", "201524.702500", "201526.202500", "201527.702500", "201529.202500", "201530.702500", "201532.202500", "201533.702500", "201535.202500", "201536.702500", "201538.202500", "201539.702500", "201541.202500", "201542.702500", "201544.202500", "201545.702500", "201547.202500", "201548.702500", "201550.202500", "201551.702500", "201553.202500", "201554.702500", "201556.202500", "201557.702500", "201559.202500", "201600.702500", "201602.202500", "201603.702500", "201605.202500", "201606.702500", "201608.202500", "201609.702500", "201611.202500", "201612.702500", "201614.202500", "201615.702500", "201617.202500", "201618.702500", "201620.202500", "201621.702500", "201623.202500", "201624.702500", "201626.202500", "201627.702500", "201629.202500", "201630.702500", "201632.202500", "201633.702500", "201635.202500", "201636.702500", "201638.202500", "201639.702500", "201641.202500", "201642.702500", "201644.202500", "201645.702500", "201647.202500", "201648.702500", "201650.202500", "201651.702500", "201653.202500", "201654.702500", "201656.202500", "201657.702500", "201659.202500", "201700.702500", "201702.202500", "201703.702500", "201705.202500", "201706.702500", "201708.202500", "201709.702500", "201711.202500", "201712.702500", "201714.202500", "201715.702500", "201717.202500", "201718.702500", "201720.202500", "201721.702500", "201723.202500", "201724.702500", "201726.202500", "201727.702500", "201729.202500", "201730.702500", "201732.202500", "201733.702500", "201735.202500", "201736.702500", "201738.202500", "201739.702500", "201741.202500", "201742.702500", "201744.202500", "201745.702500", "201747.202500", "201748.702500", "201750.202500", "201751.702500", "201753.202500", "201754.702500", "201756.202500", "201757.702500", "201759.202500", "201800.702500", "201802.202500", "201803.702500", "201805.202500", "201806.702500", "201808.202500", "201809.702500", "201811.202500", "201812.702500", "201814.202500", "201815.702500", "201817.202500", "201818.702500", "201820.202500", "201821.702500", "201823.202500", "201824.702500", "201826.202500", "201827.702500", "201829.202500", "201830.702500", "201832.202500", "201833.702500", "201835.202500", "201836.702500", "201838.202500", "201839.702500", "201841.202500", "201842.702500", "201844.202500", "201845.702500", "201847.202500", "201848.702500", "201850.202500", "201851.702500", "201853.202500", "201854.702500", "201856.202500", "201857.702500", "201859.202500", "201900.702500", "201902.202500", "201903.702500", "201905.202500", "201906.702500", "201908.202500", "201909.702500", "201911.202500", "201912.702500", "201914.202500", "201915.702500", "201917.202500", "201918.702500", "201920.202500", "201921.702500", "201923.202500", "201924.702500", "201926.202500", "201927.702500", "201929.202500", "201930.702500", "201932.202500", "201933.702500", "201935.202500", "201936.702500", "201938.202500", "201939.702500", "201941.202500", "201942.702500", "201944.202500", "201945.702500", "201947.202500", "201948.702500", "201950.202500", "201951.702500", "201953.202500", "201954.702500", "201956.202500", "201957.702500", "201959.202500", "202000.702500", "202002.202500", "202003.702500", "202005.202500", "202006.702500", "202008.202500", "202009.702500", "202011.202500", "202012.702500", "202014.202500", "202015.702500", "202017.202500", "202018.702500", "202020.202500", "202021.702500", "202023.202500", "202024.702500", "202026.202500", "202027.702500", "202029.202500", "202030.702500", "202032.202500", "202033.702500", "202035.202500", "202036.702500", "202038.202500", "202039.702500", "202041.202500", "202042.702500", "202044.202500", "202045.702500", "202047.202500", "202048.702500", "202050.202500", "202051.702500", "202053.202500", "202054.702500", "202056.202500", "202057.702500", "202059.202500", "202100.702500", "202102.202500", "202103.702500", "202105.202500", "202106.702500", "202108.202500", "202109.702500", "202111.202500", "202112.702500", "202114.202500", "202115.702500", "202117.202500", "202118.702500", "202120.202500", "202121.702500", "202123.202500", "202124.702500", "202126.202500", "202127.702500", "202129.202500", "202130.702500", "202132.202500", "202133.702500", "202135.202500", "202136.702500", "202138.202500", "202139.702500", "202141.202500", "202142.702500", "202144.202500", "202145.702500", "202147.202500", "202148.702500", "202150.202500", "202151.702500", "202153.202500", "202154.702500", "202156.202500", "202157.702500", "202159.202500", "202200.702500", "202202.202500", "202203.702500", "202205.202500", "202206.702500", "202208.202500", "202209.702500", "202211.202500", "202212.702500", "202214.202500", "202215.702500", "202217.202500", "202218.702500", "202220.202500", "202221.702500", "202223.202500", "202224.702500", "202226.202500", "202227.702500", "202229.202500", "202230.702500", "202232.202500", "202233.702500", "202235.202500", "202236.702500", "202238.202500", "202239.702500", "202241.202500", "202242.702500", "202244.202500", "202245.702500", "202247.202500", "202248.702500", "202250.202500", "202251.702500", "202253.202500", "202254.702500", "202256.202500", "202257.702500", "202259.202500", "202300.702500", "202302.202500", "202303.702500", "202305.202500", "202306.702500", "202308.202500", "202309.702500", "202311.202500", "202312.702500", "202314.202500", "202315.702500", "202317.202500", "202318.702500", "202320.202500", "202321.702500", "202323.202500", "202324.702500", "202326.202500", "202327.702500", "202329.202500", "202330.702500", "202332.202500", "202333.702500", "202335.202500", "202336.702500", "202338.202500", "202339.702500", "202341.202500", "202342.702500", "202344.202500", "202345.702500", "202347.202500", "202348.702500", "202350.202500", "202351.702500", "202353.202500", "202354.702500", "202356.202500", "202357.702500", "202359.202500", "202400.702500", "202402.202500", "202403.702500", "202405.202500", "202406.702500", "202408.202500", "202409.702500", "202411.202500", "202412.702500", "202414.202500", "202415.702500", "202417.202500", "202418.702500", "202420.202500", "202421.702500", "202423.202500", "202424.702500", "202426.202500", "202427.702500", "202429.202500", "202430.702500", "202432.202500", "202433.702500", "202435.202500", "202436.702500", "202438.202500", "202439.702500", "202441.202500", "202442.702500", "202444.202500", "202445.702500", "202447.202500", "202448.702500", "202450.202500", "202451.702500", "202453.202500", "202454.702500", "202456.202500", "202457.702500", "202459.202500", "202500.702500", "202502.202500", "202503.702500", "202505.202500", "202506.702500", "202508.202500", "202509.702500", "202511.202500", "202512.702500", "202514.202500", "202515.702500", "202517.202500", "202518.702500", "202520.202500", "202521.702500", "202523.202500", "202524.702500", "202526.202500", "202527.702500", "202529.202500", "202530.702500", "202532.202500", "202533.702500", "202535.202500", "202536.702500", "202538.202500", "202539.702500", "202541.202500", "202542.702500", "202544.202500", "202545.702500", "202547.202500", "202548.702500", "202550.202500", "202551.702500", "202553.202500", "202554.702500", "202556.202500", "202557.702500", "202559.202500", "202600.702500", "202602.202500", "202603.702500", "202605.202500", "202606.702500", "202608.202500", "202609.702500", "202611.202500", "202612.702500", "202614.202500", "202615.702500", "202617.202500", "202618.702500", "202620.202500", "202621.702500", "202623.202500", "202624.702500", "202626.202500", "202627.702500", "202629.202500", "202630.702500", "202632.202500", "202633.702500", "202635.202500", "202636.702500", "202638.202500", "202639.702500", "202641.202500", "202642.702500", "202644.202500", "202645.702500", "202647.202500", "202648.702500", "202650.202500", "202651.702500", "202653.202500", "202654.702500", "202656.202500", "202657.702500", "202659.202500", "202700.702500", "202702.202500", "202703.702500", "202705.202500", "202706.702500", "202708.202500", "202709.702500", "202711.202500", "202712.702500", "202714.202500", "202715.702500", "202717.202500", "202718.702500", "202720.202500", "202721.702500", "202723.202500", "202724.702500", "202726.202500", "202727.702500", "202729.202500", "202730.702500", "202732.202500", "202733.702500", "202735.202500", "202736.702500", "202738.202500", "202739.702500", "202741.202500", "202742.702500", "202744.202500", "202745.702500", "202747.202500", "202748.702500", "202750.202500", "202751.702500", "202753.202500", "202754.702500", "202756.202500", "202757.702500", "202759.202500", "202800.702500", "202802.202500", "202803.702500", "202805.202500", "202806.702500", "202808.202500", "202809.702500", "202811.202500", "202812.702500", "202814.202500", "202815.702500", "202817.202500", "202818.702500", "202820.202500", "202821.702500", "202823.202500", "202824.702500", "202826.202500", "202827.702500", "202829.202500", "202830.702500", "202832.202500", "202833.702500", "202835.202500", "202836.702500", "202838.202500", "202839.702500", "202841.202500", "202842.702500", "202844.202500", "202845.702500", "202847.202500", "202848.702500", "202850.202500", "202851.702500", "202853.202500", "202854.702500", "202856.202500", "202857.702500", "202859.202500", "202900.702500", "202902.202500", "202903.702500", "202905.202500", "202906.702500", "202908.202500", "202909.702500", "202911.202500", "202912.702500", "202914.202500", "202915.702500", "202917.202500", "202918.702500", "202920.202500", "202921.702500", "202923.202500", "202924.702500", "202926.202500", "202927.702500", "202929.202500", "202930.702500", "202932.202500", "202933.702500", "202935.202500", "202936.702500", "202938.202500", "202939.702500", "202941.202500", "202942.702500", "202944.202500", "202945.702500", "202947.202500", "202948.702500", "202950.202500", "202951.702500", "202953.202500", "202954.702500", "202956.202500", "202957.702500", "202959.202500", "203000.702500", "203002.202500", "203003.702500", "203005.202500", "203006.702500", "203008.202500", "203009.702500", "203011.202500", "203012.702500", "203014.202500", "203015.702500", "203017.202500", "203018.702500", "203020.202500", "203021.702500", "203023.202500", "203024.702500", "203026.202500", "203027.702500", "203029.202500", "203030.702500", "203032.202500", "203033.702500", "203035.202500", "203036.702500", "203038.202500", "203039.702500", "203041.202500", "203042.702500", "203044.202500", "203045.702500", "203047.202500", "203048.702500", "203050.202500", "203051.702500", "203053.202500", "203054.702500", "203056.202500", "203057.702500", "203059.202500", "203100.702500", "203102.202500", "203103.702500", "203105.202500", "203106.702500", "203108.202500", "203109.702500", "203111.202500", "203112.702500", "203114.202500", "203115.702500", "203117.202500", "203118.702500", "203120.202500", "203121.702500", "203123.202500", "203124.702500", "203126.202500", "203127.702500", "203129.202500", "203130.702500", "203132.202500", "203133.702500", "203135.202500", "203136.702500", "203138.202500", "203139.702500", "203141.202500", "203142.702500", "203144.202500", "203145.702500", "203147.202500", "203148.702500", "203150.202500", "203151.702500", "203153.202500", "203154.702500", "203156.202500", "203157.702500", "203159.202500", "203200.702500", "203202.202500", "203203.702500", "203205.202500", "203206.702500", "203208.202500", "203209.702500", "203211.202500", "203212.702500", "203214.202500", "203215.702500", "203217.202500", "203218.702500", "203220.202500", "203221.702500", "203223.202500", "203224.702500", "203226.202500", "203227.702500", "203229.202500", "203230.702500", "203232.202500", "203233.702500", "203235.202500", "203236.702500", "203238.202500", "203239.702500", "203241.202500", "203242.702500", "203244.202500", "203245.702500", "203247.202500", "203248.702500", "203250.202500", "203251.702500", "203253.202500", "203254.702500", "203256.202500", "203257.702500", "203259.202500", "203300.702500", "203302.202500", "203303.702500", "203305.202500", "203306.702500", "203308.202500", "203309.702500", "203311.202500", "203312.702500", "203314.202500", "203315.702500", "203317.202500", "203318.702500", "203320.202500", "203321.702500", "203323.202500", "203324.702500", "203326.202500", "203327.702500", "203329.202500", "203330.702500", "203332.202500", "203333.702500", "203335.202500", "203336.702500", "203338.202500", "203339.702500", "203341.202500", "203342.702500", "203344.202500", "203345.702500", "203347.202500", "203348.702500", "203350.202500", "203351.702500", "203353.202500", "203354.702500", "203356.202500", "203357.702500", "203359.202500", "203400.702500", "203402.202500", "203403.702500", "203405.202500", "203406.702500", "203408.202500", "203409.702500", "203411.202500", "203412.702500", "203414.202500", "203415.702500", "203417.202500", "203418.702500", "203420.202500", "203421.702500", "203423.202500", "203424.702500", "203426.202500", "203427.702500", "203429.202500", "203430.702500", "203432.202500", "203433.702500", "203435.202500", "203436.702500", "203438.202500", "203439.702500", "203441.202500", "203442.702500", "203444.202500", "203445.702500", "203447.202500", "203448.702500", "203450.202500", "203451.702500", "203453.202500", "203454.702500", "203456.202500", "203457.702500", "203459.202500", "203500.702500", "203502.202500", "203503.702500", "203505.202500", "203506.702500", "203508.202500", "203509.702500", "203511.202500", "203512.702500", "203514.202500", "203515.702500", "203517.202500", "203518.702500", "203520.202500", "203521.702500", "203523.202500", "203524.702500", "203526.202500", "203527.702500", "203529.202500", "203530.702500", "203532.202500", "203533.702500", "203535.202500", "203536.702500", "203538.202500", "203539.702500", "203541.202500", "203542.702500", "203544.202500", "203545.702500", "203547.202500", "203548.702500", "203550.202500", "203551.702500", "203553.202500", "203554.702500", "203556.202500", "203557.702500", "203559.202500", "203600.702500", "203602.202500", "203603.702500", "203605.202500", "203606.702500", "203608.202500", "203609.702500", "203611.202500", "203612.702500", "203614.202500", "203615.702500", "203617.202500", "203618.702500", "203620.202500", "203621.702500", "203623.202500", "203624.702500", "203626.202500", "203627.702500", "203629.202500", "203630.702500", "203632.202500", "203633.702500", "203635.202500", "203636.702500", "203638.202500", "203639.702500", "203641.202500", "203642.702500", "203644.202500", "203645.702500", "203647.202500", "203648.702500", "203650.202500", "203651.702500", "203653.202500", "203654.702500", "203656.202500", "203657.702500", "203659.202500", "203700.702500", "203702.202500", "203703.702500", "203705.202500", "203706.702500", "203708.202500", "203709.702500", "203711.202500", "203712.702500", "203714.202500", "203715.702500", "203717.202500", "203718.702500", "203720.202500", "203721.702500", "203723.202500", "203724.702500", "203726.202500", "203727.702500", "203729.202500", "203730.702500", "203732.202500", "203733.702500", "203735.202500", "203736.702500", "203738.202500", "203739.702500", "203741.202500", "203742.702500", "203744.202500", "203745.702500", "203747.202500", "203748.702500", "203750.202500", "203751.702500", "203753.202500", "203754.702500", "203756.202500", "203757.702500", "203759.202500", "203800.702500", "203802.202500", "203803.702500", "203805.202500", "203806.702500", "203808.202500", "203809.702500", "203811.202500", "203812.702500", "203814.202500", "203815.702500", "203817.202500", "203818.702500", "203820.202500", "203821.702500", "203823.202500", "203824.702500", "203826.202500", "203827.702500", "203829.202500", "203830.702500", "203832.202500", "203833.702500", "