{
  "AcquisitionMatrixPE": 106,
  "AcquisitionNumber": 1,
  "AcquisitionTime": "19:03:31.197500",
  "BandwidthPerPixelPhaseEncode": 16.846,
  "BaseResolution": 106,
  "BodyPartExamined": "BRAIN",
  "CoilCombinationMethod": "Sum of Squares",
  "ConsistencyInfo": "N4_VE11C_LATEST_20160120",
  "ConversionSoftware": "dcm2niix",
  "ConversionSoftwareVersion": "v1.0.20220720",
  "DerivedVendorReportedEchoSpacing": 0.000560012,
  "DeviceSerialNumber": "166108",
  "DwellTime": 1.8e-06,
  "EchoTime": 0.0352,
  "EchoTrainLength": 106,
  "EffectiveEchoSpacing": 0.000560012,
  "FlipAngle": 60,
  "HeudiconvVersion": "1.3.0",
  "ImageComments": "Unaliased MB4/PE3/LB",
  "ImageOrientationPatientDICOM": [1, 0, 0, 0, 1, 0],
  "ImageOrientationText": "Tra",
  "ImageType": [
    "ORIGINAL",
    "PRIMARY",
    "M",
    "MB",
    "ND",
    "MOSAIC"
],
  "ImagingFrequency": 123.244,
  "InPlanePhaseEncodingDirectionDICOM": "COL",
  "InstitutionAddress": "Bedford Way 26,London,London,GB,WC1H 0AP",
  "InstitutionName": "University College",
  "InstitutionalDepartmentName": "Department",
  "MRAcquisitionType": "2D",
  "MagneticFieldStrength": 3,
  "Manufacturer": "Siemens",
  "ManufacturersModelName": "Prisma",
  "MatrixCoilMode": "SENSE",
  "Modality": "MR",
  "MultibandAccelerationFactor": 4,
  "NonlinearGradientCorrection": false,
  "PartialFourier": 1,
  "PatientPosition": "HFS",
  "PercentPhaseFOV": 100,
  "PercentSampling": 100,
  "PhaseEncodingDirection": "j-",
  "PhaseEncodingSteps": 106,
  "PhaseResolution": 1,
  "PixelBandwidth": 2620,
  "ProcedureStepDescription": "Egor^MovieProject2",
  "ProtocolName": "task-backtothefuture_run-1",
  "PulseSequenceDetails": "%CustomerSeq%\\cmrr_mbep2d_bold",
  "ReceiveCoilActiveElements": "HEA;HEP",
  "ReceiveCoilName": "Head_32",
  "ReconMatrixPE": 106,
  "RepetitionTime": 1.5,
  "SAR": 0.0687831,
  "ScanOptions": "FS\\EXT",
  "ScanningSequence": "EP",
  "SequenceName": "epfid2d1_106",
  "SequenceVariant": "SK\\SS",
  "SeriesDescription": "task-backtothefuture_run-1",
  "SeriesNumber": 5,
  "ShimSetting": [-1524, 610, 7422, 161, -181, -58, 15, -100],
  "SliceThickness": 2,
  "SliceTiming": [0, 1.07, 0.6575, 0.2475, 1.315, 0.905, 0.495, 0.0825, 1.1525, 0.74, 0.33, 1.3975, 0.9875, 0.575, 0.165, 1.235, 0.8225, 0.4125, 0, 1.07, 0.6575, 0.2475, 1.315, 0.905, 0.495, 0.0825, 1.1525, 0.74, 0.33, 1.3975, 0.9875, 0.575, 0.165, 1.235, 0.8225, 0.4125, 0, 1.07, 0.6575, 0.2475, 1.315, 0.905, 0.495, 0.0825, 1.1525, 0.74, 0.33, 1.3975, 0.9875, 0.575, 0.165, 1.235, 0.8225, 0.4125, 0, 1.07, 0.6575, 0.2475, 1.315, 0.905, 0.495, 0.0825, 1.1525, 0.74, 0.33, 1.3975, 0.9875, 0.575, 0.165, 1.235, 0.8225, 0.4125],
  "SoftwareVersions": "syngo MR E11",
  "SpacingBetweenSlices": 2,
  "StationName": "AWP166108",
  "TaskName": "backtothefuture",
  "TotalReadoutTime": 0.0588013,
  "TxRefAmp": 244.674,
  "WipMemBlock": "30cc0521-2e59-440d-835f-37b4ca8b77e5||Sequence: R016 ve11c/master r/e634e98; Dec 19 2017 11:00:25 by eja",
  "dcmmeta_affine": [
    [-2.0, 0.0, 0.0, 106.0],
    [0.0, 2.0, 0.0, -93.759033203125],
    [0.0, 0.0, 2.0, -64.37349700927734],
    [0.0, 0.0, 0.0, 1.0]
],
  "dcmmeta_reorient_transform": [
    [0.0, -1.0, 0.0, 105.0],
    [1.0, 0.0, 0.0, 0.0],
    [0.0, 0.0, 1.0, 0.0],
    [0.0, 0.0, 0.0, 1.0]
],
  "dcmmeta_shape": [106, 106, 72, 978],
  "dcmmeta_slice_dim": 2,
  "dcmmeta_version": 0.6,
  "global": {
    "const": {
      "AcquisitionMatrix": [106, 0, 0, 106],
      "AngioFlag": "N",
      "BitsAllocated": 16,
      "BitsStored": 16,
      "BodyPartExamined": "BRAIN",
      "CardiacNumberOfImages": 1,
      "Columns": 954,
      "EchoNumbers": 1,
      "EchoTime": 35.2,
      "EchoTrainLength": 106,
      "FlipAngle": 60.0,
      "HighBit": 15,
      "ImageOrientationPatient": [1.0, 0.0, 0.0, 0.0, 1.0, 0.0],
      "ImagePositionPatient": [-954.0, -964.24096393585, -64.373497009277],
      "ImageType": [
        "ORIGINAL",
        "PRIMARY",
        "M",
        "MB",
        "ND",
        "MOSAIC"
],
      "ImagedNucleus": "1H",
      "ImagingFrequency": 123.243618,
      "InPlanePhaseEncodingDirection": "COL",
      "MRAcquisitionType": "2D",
      "MagneticFieldStrength": 3.0,
      "Manufacturer": "SIEMENS",
      "ManufacturerModelName": "Prisma",
      "Modality": "MR",
      "NominalInterval": 0,
      "NumberOfAverages": 1.0,
      "NumberOfPhaseEncodingSteps": 106,
      "PercentPhaseFieldOfView": 100.0,
      "PercentSampling": 100.0,
      "PerformedProcedureStepStartTime": "182243.764000",
      "PhotometricInterpretation": "MONOCHROME2",
      "PixelBandwidth": 2620.0,
      "PixelRepresentation": 0,
      "PixelSpacing": [2.0, 2.0],
      "ProtocolName": "task-backtothefuture_run-1",
      "RepetitionTime": 1500.0,
      "Rows": 954,
      "SAR": 0.0687831519583,
      "SamplesPerPixel": 1,
      "ScanOptions": [
        "FS",
        "EXT"
],
      "ScanningSequence": "EP",
      "SequenceName": "epfid2d1_106",
      "SequenceVariant": [
        "SK",
        "SS"
],
      "SeriesDescription": "task-backtothefuture_run-1",
      "SeriesNumber": 5,
      "SeriesTime": "190413.524000",
      "SliceLocation": -64.373497009277,
      "SliceThickness": 2.0,
      "SmallestImagePixelValue": 0,
      "SoftwareVersions": "syngo MR E11",
      "SpacingBetweenSlices": 2.0,
      "SpecificCharacterSet": "ISO_IR 100",
      "StudyID": "1",
      "StudyTime": "182243.653000",
      "TransmitCoilName": "Body",
      "VariableFlipAngleFlag": "N",
      "WindowCenterWidthExplanation": "Algo1",
      "dBdt": 0.0},
    "slices": {}
  },
  "time": {
    "samples": {
      "AcquisitionNumber": [1, 2, 3, 4, 5, 6, 7, 8, 9, 10, 11, 12, 13, 14, 15, 16, 17, 18, 19, 20, 21, 22, 23, 24, 25, 26, 27, 28, 29, 30, 31, 32, 33, 34, 35, 36, 37, 38, 39, 40, 41, 42, 43, 44, 45, 46, 47, 48, 49, 50, 51, 52, 53, 54, 55, 56, 57, 58, 59, 60, 61, 62, 63, 64, 65, 66, 67, 68, 69, 70, 71, 72, 73, 74, 75, 76, 77, 78, 79, 80, 81, 82, 83, 84, 85, 86, 87, 88, 89, 90, 91, 92, 93, 94, 95, 96, 97, 98, 99, 100, 101, 102, 103, 104, 105, 106, 107, 108, 109, 110, 111, 112, 113, 114, 115, 116, 117, 118, 119, 120, 121, 122, 123, 124, 125, 126, 127, 128, 129, 130, 131, 132, 133, 134, 135, 136, 137, 138, 139, 140, 141, 142, 143, 144, 145, 146, 147, 148, 149, 150, 151, 152, 153, 154, 155, 156, 157, 158, 159, 160, 161, 162, 163, 164, 165, 166, 167, 168, 169, 170, 171, 172, 173, 174, 175, 176, 177, 178, 179, 180, 181, 182, 183, 184, 185, 186, 187, 188, 189, 190, 191, 192, 193, 194, 195, 196, 197, 198, 199, 200, 201, 202, 203, 204, 205, 206, 207, 208, 209, 210, 211, 212, 213, 214, 215, 216, 217, 218, 219, 220, 221, 222, 223, 224, 225, 226, 227, 228, 229, 230, 231, 232, 233, 234, 235, 236, 237, 238, 239, 240, 241, 242, 243, 244, 245, 246, 247, 248, 249, 250, 251, 252, 253, 254, 255, 256, 257, 258, 259, 260, 261, 262, 263, 264, 265, 266, 267, 268, 269, 270, 271, 272, 273, 274, 275, 276, 277, 278, 279, 280, 281, 282, 283, 284, 285, 286, 287, 288, 289, 290, 291, 292, 293, 294, 295, 296, 297, 298, 299, 300, 301, 302, 303, 304, 305, 306, 307, 308, 309, 310, 311, 312, 313, 314, 315, 316, 317, 318, 319, 320, 321, 322, 323, 324, 325, 326, 327, 328, 329, 330, 331, 332, 333, 334, 335, 336, 337, 338, 339, 340, 341, 342, 343, 344, 345, 346, 347, 348, 349, 350, 351, 352, 353, 354, 355, 356, 357, 358, 359, 360, 361, 362, 363, 364, 365, 366, 367, 368, 369, 370, 371, 372, 373, 374, 375, 376, 377, 378, 379, 380, 381, 382, 383, 384, 385, 386, 387, 388, 389, 390, 391, 392, 393, 394, 395, 396, 397, 398, 399, 400, 401, 402, 403, 404, 405, 406, 407, 408, 409, 410, 411, 412, 413, 414, 415, 416, 417, 418, 419, 420, 421, 422, 423, 424, 425, 426, 427, 428, 429, 430, 431, 432, 433, 434, 435, 436, 437, 438, 439, 440, 441, 442, 443, 444, 445, 446, 447, 448, 449, 450, 451, 452, 453, 454, 455, 456, 457, 458, 459, 460, 461, 462, 463, 464, 465, 466, 467, 468, 469, 470, 471, 472, 473, 474, 475, 476, 477, 478, 479, 480, 481, 482, 483, 484, 485, 486, 487, 488, 489, 490, 491, 492, 493, 494, 495, 496, 497, 498, 499, 500, 501, 502, 503, 504, 505, 506, 507, 508, 509, 510, 511, 512, 513, 514, 515, 516, 517, 518, 519, 520, 521, 522, 523, 524, 525, 526, 527, 528, 529, 530, 531, 532, 533, 534, 535, 536, 537, 538, 539, 540, 541, 542, 543, 544, 545, 546, 547, 548, 549, 550, 551, 552, 553, 554, 555, 556, 557, 558, 559, 560, 561, 562, 563, 564, 565, 566, 567, 568, 569, 570, 571, 572, 573, 574, 575, 576, 577, 578, 579, 580, 581, 582, 583, 584, 585, 586, 587, 588, 589, 590, 591, 592, 593, 594, 595, 596, 597, 598, 599, 600, 601, 602, 603, 604, 605, 606, 607, 608, 609, 610, 611, 612, 613, 614, 615, 616, 617, 618, 619, 620, 621, 622, 623, 624, 625, 626, 627, 628, 629, 630, 631, 632, 633, 634, 635, 636, 637, 638, 639, 640, 641, 642, 643, 644, 645, 646, 647, 648, 649, 650, 651, 652, 653, 654, 655, 656, 657, 658, 659, 660, 661, 662, 663, 664, 665, 666, 667, 668, 669, 670, 671, 672, 673, 674, 675, 676, 677, 678, 679, 680, 681, 682, 683, 684, 685, 686, 687, 688, 689, 690, 691, 692, 693, 694, 695, 696, 697, 698, 699, 700, 701, 702, 703, 704, 705, 706, 707, 708, 709, 710, 711, 712, 713, 714, 715, 716, 717, 718, 719, 720, 721, 722, 723, 724, 725, 726, 727, 728, 729, 730, 731, 732, 733, 734, 735, 736, 737, 738, 739, 740, 741, 742, 743, 744, 745, 746, 747, 748, 749, 750, 751, 752, 753, 754, 755, 756, 757, 758, 759, 760, 761, 762, 763, 764, 765, 766, 767, 768, 769, 770, 771, 772, 773, 774, 775, 776, 777, 778, 779, 780, 781, 782, 783, 784, 785, 786, 787, 788, 789, 790, 791, 792, 793, 794, 795, 796, 797, 798, 799, 800, 801, 802, 803, 804, 805, 806, 807, 808, 809, 810, 811, 812, 813, 814, 815, 816, 817, 818, 819, 820, 821, 822, 823, 824, 825, 826, 827, 828, 829, 830, 831, 832, 833, 834, 835, 836, 837, 838, 839, 840, 841, 842, 843, 844, 845, 846, 847, 848, 849, 850, 851, 852, 853, 854, 855, 856, 857, 858, 859, 860, 861, 862, 863, 864, 865, 866, 867, 868, 869, 870, 871, 872, 873, 874, 875, 876, 877, 878, 879, 880, 881, 882, 883, 884, 885, 886, 887, 888, 889, 890, 891, 892, 893, 894, 895, 896, 897, 898, 899, 900, 901, 902, 903, 904, 905, 906, 907, 908, 909, 910, 911, 912, 913, 914, 915, 916, 917, 918, 919, 920, 921, 922, 923, 924, 925, 926, 927, 928, 929, 930, 931, 932, 933, 934, 935, 936, 937, 938, 939, 940, 941, 942, 943, 944, 945, 946, 947, 948, 949, 950, 951, 952, 953, 954, 955, 956, 957, 958, 959, 960, 961, 962, 963, 964, 965, 966, 967, 968, 969, 970, 971, 972, 973, 974, 975, 976, 977, 978],
      "AcquisitionTime": ["190331.197500", "190332.697500", "190334.197500", "190335.697500", "190337.197500", "190338.697500", "190340.197500", "190341.697500", "190343.197500", "190344.697500", "190346.197500", "190347.697500", "190349.197500", "190350.697500", "190352.197500", "190353.697500", "190355.197500", "190356.697500", "190358.197500", "190359.697500", "190401.197500", "190402.697500", "190404.197500", "190405.697500", "190407.197500", "190408.697500", "190410.197500", "190411.697500", "190413.197500", "190414.697500", "190416.197500", "190417.697500", "190419.197500", "190420.697500", "190422.197500", "190423.697500", "190425.197500", "190426.697500", "190428.197500", "190429.697500", "190431.197500", "190432.697500", "190434.197500", "190435.697500", "190437.197500", "190438.697500", "190440.197500", "190441.697500", "190443.197500", "190444.697500", "190446.197500", "190447.697500", "190449.197500", "190450.697500", "190452.197500", "190453.697500", "190455.197500", "190456.697500", "190458.197500", "190459.697500", "190501.197500", "190502.697500", "190504.197500", "190505.697500", "190507.197500", "190508.697500", "190510.197500", "190511.697500", "190513.197500", "190514.697500", "190516.197500", "190517.697500", "190519.197500", "190520.697500", "190522.197500", "190523.697500", "190525.197500", "190526.697500", "190528.197500", "190529.697500", "190531.197500", "190532.697500", "190534.197500", "190535.697500", "190537.197500", "190538.697500", "190540.197500", "190541.697500", "190543.197500", "190544.697500", "190546.197500", "190547.697500", "190549.197500", "190550.697500", "190552.197500", "190553.697500", "190555.197500", "190556.697500", "190558.197500", "190559.697500", "190601.197500", "190602.697500", "190604.197500", "190605.697500", "190607.197500", "190608.697500", "190610.197500", "190611.697500", "190613.197500", "190614.697500", "190616.197500", "190617.697500", "190619.197500", "190620.697500", "190622.197500", "190623.697500", "190625.197500", "190626.697500", "190628.197500", "190629.697500", "190631.197500", "190632.697500", "190634.197500", "190635.697500", "190637.197500", "190638.697500", "190640.197500", "190641.697500", "190643.197500", "190644.697500", "190646.197500", "190647.697500", "190649.197500", "190650.697500", "190652.197500", "190653.697500", "190655.197500", "190656.697500", "190658.197500", "190659.697500", "190701.197500", "190702.697500", "190704.197500", "190705.697500", "190707.197500", "190708.697500", "190710.197500", "190711.697500", "190713.197500", "190714.697500", "190716.197500", "190717.697500", "190719.197500", "190720.697500", "190722.197500", "190723.697500", "190725.197500", "190726.697500", "190728.197500", "190729.697500", "190731.197500", "190732.697500", "190734.197500", "190735.697500", "190737.197500", "190738.697500", "190740.197500", "190741.697500", "190743.197500", "190744.697500", "190746.197500", "190747.697500", "190749.197500", "190750.697500", "190752.197500", "190753.697500", "190755.197500", "190756.697500", "190758.197500", "190759.697500", "190801.197500", "190802.697500", "190804.197500", "190805.697500", "190807.197500", "190808.697500", "190810.197500", "190811.697500", "190813.197500", "190814.697500", "190816.197500", "190817.697500", "190819.197500", "190820.697500", "190822.197500", "190823.697500", "190825.197500", "190826.697500", "190828.197500", "190829.697500", "190831.197500", "190832.697500", "190834.197500", "190835.697500", "190837.197500", "190838.697500", "190840.197500", "190841.697500", "190843.197500", "190844.697500", "190846.197500", "190847.697500", "190849.197500", "190850.697500", "190852.197500", "190853.697500", "190855.197500", "190856.697500", "190858.197500", "190859.697500", "190901.197500", "190902.697500", "190904.197500", "190905.697500", "190907.197500", "190908.697500", "190910.197500", "190911.697500", "190913.197500", "190914.697500", "190916.197500", "190917.697500", "190919.197500", "190920.697500", "190922.197500", "190923.697500", "190925.197500", "190926.697500", "190928.197500", "190929.697500", "190931.197500", "190932.697500", "190934.197500", "190935.697500", "190937.197500", "190938.697500", "190940.197500", "190941.697500", "190943.197500", "190944.697500", "190946.197500", "190947.697500", "190949.197500", "190950.697500", "190952.197500", "190953.697500", "190955.197500", "190956.697500", "190958.197500", "190959.697500", "191001.197500", "191002.697500", "191004.197500", "191005.697500", "191007.197500", "191008.697500", "191010.197500", "191011.697500", "191013.197500", "191014.697500", "191016.197500", "191017.697500", "191019.197500", "191020.697500", "191022.197500", "191023.697500", "191025.197500", "191026.697500", "191028.197500", "191029.697500", "191031.197500", "191032.697500", "191034.197500", "191035.697500", "191037.197500", "191038.697500", "191040.197500", "191041.697500", "191043.197500", "191044.697500", "191046.197500", "191047.697500", "191049.197500", "191050.697500", "191052.197500", "191053.697500", "191055.197500", "191056.697500", "191058.197500", "191059.697500", "191101.197500", "191102.697500", "191104.197500", "191105.697500", "191107.197500", "191108.697500", "191110.197500", "191111.697500", "191113.197500", "191114.697500", "191116.197500", "191117.697500", "191119.197500", "191120.697500", "191122.197500", "191123.697500", "191125.197500", "191126.697500", "191128.197500", "191129.697500", "191131.197500", "191132.697500", "191134.197500", "191135.697500", "191137.197500", "191138.697500", "191140.197500", "191141.697500", "191143.197500", "191144.697500", "191146.197500", "191147.697500", "191149.197500", "191150.697500", "191152.197500", "191153.697500", "191155.197500", "191156.697500", "191158.197500", "191159.697500", "191201.197500", "191202.697500", "191204.197500", "191205.697500", "191207.197500", "191208.697500", "191210.197500", "191211.697500", "191213.197500", "191214.697500", "191216.197500", "191217.697500", "191219.197500", "191220.697500", "191222.197500", "191223.697500", "191225.197500", "191226.697500", "191228.197500", "191229.697500", "191231.197500", "191232.697500", "191234.197500", "191235.697500", "191237.197500", "191238.697500", "191240.197500", "191241.697500", "191243.197500", "191244.697500", "191246.197500", "191247.697500", "191249.197500", "191250.697500", "191252.197500", "191253.697500", "191255.197500", "191256.697500", "191258.197500", "191259.697500", "191301.197500", "191302.697500", "191304.197500", "191305.697500", "191307.197500", "191308.697500", "191310.197500", "191311.697500", "191313.197500", "191314.697500", "191316.197500", "191317.697500", "191319.197500", "191320.697500", "191322.197500", "191323.697500", "191325.197500", "191326.697500", "191328.197500", "191329.697500", "191331.197500", "191332.697500", "191334.197500", "191335.697500", "191337.197500", "191338.697500", "191340.197500", "191341.697500", "191343.197500", "191344.697500", "191346.197500", "191347.697500", "191349.197500", "191350.697500", "191352.197500", "191353.697500", "191355.197500", "191356.697500", "191358.197500", "191359.697500", "191401.197500", "191402.697500", "191404.197500", "191405.697500", "191407.197500", "191408.697500", "191410.197500", "191411.697500", "191413.197500", "191414.697500", "191416.197500", "191417.697500", "191419.197500", "191420.697500", "191422.197500", "191423.697500", "191425.197500", "191426.697500", "191428.197500", "191429.697500", "191431.197500", "191432.697500", "191434.197500", "191435.697500", "191437.197500", "191438.697500", "191440.197500", "191441.697500", "191443.197500", "191444.697500", "191446.197500", "191447.697500", "191449.197500", "191450.697500", "191452.197500", "191453.697500", "191455.197500", "191456.697500", "191458.197500", "191459.697500", "191501.197500", "191502.697500", "191504.197500", "191505.697500", "191507.197500", "191508.697500", "191510.197500", "191511.697500", "191513.197500", "191514.697500", "191516.197500", "191517.697500", "191519.197500", "191520.697500", "191522.197500", "191523.697500", "191525.197500", "191526.697500", "191528.197500", "191529.697500", "191531.197500", "191532.697500", "191534.197500", "191535.697500", "191537.197500", "191538.697500", "191540.197500", "191541.697500", "191543.197500", "191544.697500", "191546.197500", "191547.697500", "191549.197500", "191550.697500", "191552.197500", "191553.697500", "191555.197500", "191556.697500", "191558.197500", "191559.697500", "191601.197500", "191602.697500", "191604.197500", "191605.697500", "191607.197500", "191608.697500", "191610.197500", "191611.697500", "191613.197500", "191614.697500", "191616.197500", "191617.697500", "191619.197500", "191620.697500", "191622.197500", "191623.697500", "191625.197500", "191626.697500", "191628.197500", "191629.697500", "191631.197500", "191632.697500", "191634.197500", "191635.697500", "191637.197500", "191638.697500", "191640.197500", "191641.697500", "191643.197500", "191644.697500", "191646.197500", "191647.697500", "191649.197500", "191650.697500", "191652.197500", "191653.697500", "191655.197500", "191656.697500", "191658.197500", "191659.697500", "191701.197500", "191702.697500", "191704.197500", "191705.697500", "191707.197500", "191708.697500", "191710.197500", "191711.697500", "191713.197500", "191714.697500", "191716.197500", "191717.697500", "191719.197500", "191720.697500", "191722.197500", "191723.697500", "191725.197500", "191726.697500", "191728.197500", "191729.697500", "191731.197500", "191732.697500", "191734.197500", "191735.697500", "191737.197500", "191738.697500", "191740.197500", "191741.697500", "191743.197500", "191744.697500", "191746.197500", "191747.697500", "191749.197500", "191750.697500", "191752.197500", "191753.697500", "191755.197500", "191756.697500", "191758.197500", "191759.697500", "191801.197500", "191802.697500", "191804.197500", "191805.697500", "191807.197500", "191808.697500", "191810.197500", "191811.697500", "191813.197500", "191814.697500", "191816.197500", "191817.697500", "191819.197500", "191820.697500", "191822.197500", "191823.697500", "191825.197500", "191826.697500", "191828.197500", "191829.697500", "191831.197500", "191832.697500", "191834.197500", "191835.697500", "191837.197500", "191838.697500", "191840.197500", "191841.697500", "191843.197500", "191844.697500", "191846.197500", "191847.697500", "191849.197500", "191850.697500", "191852.197500", "191853.697500", "191855.197500", "191856.697500", "191858.197500", "191859.697500", "191901.197500", "191902.697500", "191904.197500", "191905.697500", "191907.197500", "191908.697500", "191910.197500", "191911.697500", "191913.197500", "191914.697500", "191916.197500", "191917.697500", "191919.197500", "191920.697500", "191922.197500", "191923.697500", "191925.197500", "191926.697500", "191928.197500", "191929.697500", "191931.197500", "191932.697500", "191934.197500", "191935.697500", "191937.197500", "191938.697500", "191940.197500", "191941.697500", "191943.197500", "191944.697500", "191946.197500", "191947.697500", "191949.197500", "191950.697500", "191952.197500", "191953.697500", "191955.197500", "191956.697500", "191958.197500", "191959.697500", "192001.197500", "192002.697500", "192004.197500", "192005.697500", "192007.197500", "192008.697500", "192010.197500", "192011.697500", "192013.197500", "192014.697500", "192016.197500", "192017.697500", "192019.197500", "192020.697500", "192022.197500", "192023.697500", "192025.197500", "192026.697500", "192028.197500", "192029.697500", "192031.197500", "192032.697500", "192034.197500", "192035.697500", "192037.197500", "192038.697500", "192040.197500", "192041.697500", "192043.197500", "192044.697500", "192046.197500", "192047.697500", "192049.197500", "192050.697500", "192052.197500", "192053.697500", "192055.197500", "192056.697500", "192058.197500", "192059.697500", "192101.197500", "192102.697500", "192104.197500", "192105.697500", "192107.197500", "192108.697500", "192110.197500", "192111.697500", "192113.197500", "192114.697500", "192116.197500", "192117.697500", "192119.197500", "192120.697500", "192122.197500", "192123.697500", "192125.197500", "192126.697500", "192128.197500", "192129.697500", "192131.197500", "192132.697500", "192134.197500", "192135.697500", "192137.197500", "192138.697500", "192140.197500", "192141.697500", "192143.197500", "192144.697500", "192146.197500", "192147.697500", "192149.197500", "192150.697500", "192152.197500", "192153.697500", "192155.197500", "192156.697500", "192158.197500", "192159.697500", "192201.197500", "192202.697500", "192204.197500", "192205.697500", "192207.197500", "192208.697500", "192210.197500", "192211.697500", "192213.197500", "192214.697500", "192216.197500", "192217.697500", "192219.197500", "192220.697500", "192222.197500", "192223.697500", "192225.197500", "192226.697500", "192228.197500", "192229.697500", "192231.197500", "192232.697500", "192234.197500", "192235.697500", "192237.197500", "192238.697500", "192240.197500", "192241.697500", "192243.197500", "192244.697500", "192246.197500", "192247.697500", "192249.197500", "192250.697500", "192252.197500", "192253.697500", "192255.197500", "192256.697500", "192258.197500", "192259.697500", "192301.197500", "192302.697500", "192304.197500", "192305.697500", "192307.197500", "192308.697500", "192310.197500", "192311.697500", "192313.197500", "192314.697500", "192316.197500", "192317.697500", "192319.197500", "192320.697500", "192322.197500", "192323.697500", "192325.197500", "192326.697500", "192328.197500", "192329.697500", "192331.197500", "192332.697500", "192334.197500", "192335.697500", "192337.197500", "192338.697500", "192340.197500", "192341.697500", "192343.197500", "192344.697500", "192346.197500", "192347.697500", "192349.197500", "192350.697500", "192352.197500", "192353.697500", "192355.197500", "192356.697500", "192358.197500", "192359.697500", "192401.197500", "192402.697500", "192404.197500", "192405.697500", "192407.197500", "192408.697500", "192410.197500", "192411.697500", "192413.197500", "192414.697500", "192416.197500", "192417.697500", "192419.197500", "192420.697500", "192422.197500", "192423.697500", "192425.197500", "192426.697500", "192428.197500", "192429.697500", "192431.197500", "192432.697500", "192434.197500", "192435.697500", "192437.197500", "192438.697500", "192440.197500", "192441.697500", "192443.197500", "192444.697500", "192446.197500", "192447.697500", "192449.197500", "192450.697500", "192452.197500", "192453.697500", "192455.197500", "192456.697500", "192458.197500", "192459.697500", "192501.197500", "192502.697500", "192504.197500", "192505.697500", "192507.197500", "192508.697500", "192510.197500", "192511.697500", "192513.197500", "192514.697500", "192516.197500", "192517.697500", "192519.197500", "192520.697500", "192522.197500", "192523.697500", "192525.197500", "192526.697500", "192528.197500", "192529.697500", "192531.197500", "192532.697500", "192534.197500", "192535.697500", "192537.197500", "192538.697500", "192540.197500", "192541.697500", "192543.197500", "192544.697500", "192546.197500", "192547.697500", "192549.197500", "192550.697500", "192552.197500", "192553.697500", "192555.197500", "192556.697500", "192558.197500", "192559.697500", "192601.197500", "192602.697500", "192604.197500", "192605.697500", "192607.197500", "192608.697500", "192610.197500", "192611.697500", "192613.197500", "192614.697500", "192616.197500", "192617.697500", "192619.197500", "192620.697500", "192622.197500", "192623.697500", "192625.197500", "192626.697500", "192628.197500", "192629.697500", "192631.197500", "192632.697500", "192634.197500", "192635.697500", "192637.197500", "192638.697500", "192640.197500", "192641.697500", "192643.197500", "192644.697500", "192646.197500", "192647.697500", "192649.197500", "192650.697500", "192652.197500", "192653.697500", "192655.197500", "192656.697500", "192658.197500", "192659.697500", "192701.197500", "192702.697500", "192704.197500", "192705.697500", "192707.197500", "192708.697500", "192710.197500", "192711.697500", "192713.197500", "192714.697500", "192716.197500", "192717.697500", "192719.197500", "192720.697500", "192722.197500", "192723.697500", "192725.197500", "192726.697500", "192728.197500", "192729.697500", "192731.197500", "192732.697500", "192734.197500", "192735.697500", "192737.197500", "192738.697500", "192740.197500", "192741.697500", "192743.197500", "192744.697500", "192746.197500", "192747.697500", "192749.197500", "192750.697500", "192752.197500", "192753.697500", "192755.197500", "192756.697500"],
