{
  "AcquisitionMatrixPE": 106,
  "AcquisitionNumber": 1,
  "AcquisitionTime": "18:50:36.867500",
  "BandwidthPerPixelPhaseEncode": 16.846,
  "BaseResolution": 106,
  "BodyPartExamined": "BRAIN",
  "CoilCombinationMethod": "Sum of Squares",
  "ConsistencyInfo": "N4_VE11C_LATEST_20160120",
  "ConversionSoftware": "dcm2niix",
  "ConversionSoftwareVersion": "v1.0.20220720",
  "DerivedVendorReportedEchoSpacing": 0.000560012,
  "DeviceSerialNumber": "166108",
  "DwellTime": 1.8e-06,
  "EchoTime": 0.0352,
  "EchoTrainLength": 106,
  "EffectiveEchoSpacing": 0.000560012,
  "FlipAngle": 60,
  "HeudiconvVersion": "1.3.0",
  "ImageComments": "Unaliased MB4/PE3/LB",
  "ImageOrientationPatientDICOM": [1, 0, 0, 0, 1, 0],
  "ImageOrientationText": "Tra",
  "ImageType": [
    "ORIGINAL",
    "PRIMARY",
    "M",
    "MB",
    "ND",
    "MOSAIC"
],
  "ImagingFrequency": 123.244,
  "InPlanePhaseEncodingDirectionDICOM": "COL",
  "InstitutionAddress": "Bedford Way 26,London,London,GB,WC1H 0AP",
  "InstitutionName": "University College",
  "InstitutionalDepartmentName": "Department",
  "MRAcquisitionType": "2D",
  "MagneticFieldStrength": 3,
  "Manufacturer": "Siemens",
  "ManufacturersModelName": "Prisma",
  "MatrixCoilMode": "SENSE",
  "Modality": "MR",
  "MultibandAccelerationFactor": 4,
  "NonlinearGradientCorrection": false,
  "PartialFourier": 1,
  "PatientPosition": "HFS",
  "PercentPhaseFOV": 100,
  "PercentSampling": 100,
  "PhaseEncodingDirection": "j-",
  "PhaseEncodingSteps": 106,
  "PhaseResolution": 1,
  "PixelBandwidth": 2620,
  "ProcedureStepDescription": "Egor^MovieProject2",
  "ProtocolName": "task-backtothefuture_run-1",
  "PulseSequenceDetails": "%CustomerSeq%\\cmrr_mbep2d_bold",
  "ReceiveCoilActiveElements": "HEA;HEP",
  "ReceiveCoilName": "Head_32",
  "ReconMatrixPE": 106,
  "RepetitionTime": 1.5,
  "SAR": 0.0688313,
  "ScanOptions": "FS\\EXT",
  "ScanningSequence": "EP",
  "SequenceName": "epfid2d1_106",
  "SequenceVariant": "SK\\SS",
  "SeriesDescription": "task-backtothefuture_run-1",
  "SeriesNumber": 3,
  "ShimSetting": [-1524, 610, 7422, 161, -181, -58, 15, -100],
  "SliceThickness": 2,
  "SliceTiming": [0, 1.07, 0.6575, 0.2475, 1.315, 0.905, 0.4925, 0.0825, 1.15, 0.74, 0.33, 1.3975, 0.9875, 0.575, 0.165, 1.2325, 0.8225, 0.41, 0, 1.07, 0.6575, 0.2475, 1.315, 0.905, 0.4925, 0.0825, 1.15, 0.74, 0.33, 1.3975, 0.9875, 0.575, 0.165, 1.2325, 0.8225, 0.41, 0, 1.07, 0.6575, 0.2475, 1.315, 0.905, 0.4925, 0.0825, 1.15, 0.74, 0.33, 1.3975, 0.9875, 0.575, 0.165, 1.2325, 0.8225, 0.41, 0, 1.07, 0.6575, 0.2475, 1.315, 0.905, 0.4925, 0.0825, 1.15, 0.74, 0.33, 1.3975, 0.9875, 0.575, 0.165, 1.2325, 0.8225, 0.41],
  "SoftwareVersions": "syngo MR E11",
  "SpacingBetweenSlices": 2,
  "StationName": "AWP166108",
  "TaskName": "backtothefuture",
  "TotalReadoutTime": 0.0588013,
  "TxRefAmp": 244.674,
  "WipMemBlock": "6d500198-7c2c-47ba-b6c3-c79d5d3bd07c||Sequence: R016 ve11c/master r/e634e98; Dec 19 2017 11:00:25 by eja",
  "dcmmeta_affine": [
    [-2.0, 0.0, 0.0, 106.0],
    [0.0, 2.0, 0.0, -93.759033203125],
    [0.0, 0.0, 2.0, -64.37349700927734],
    [0.0, 0.0, 0.0, 1.0]
],
  "dcmmeta_reorient_transform": [
    [0.0, -1.0, 0.0, 105.0],
    [1.0, 0.0, 0.0, 0.0],
    [0.0, 0.0, 1.0, 0.0],
    [0.0, 0.0, 0.0, 1.0]
],
  "dcmmeta_shape": [106, 106, 72, 400],
  "dcmmeta_slice_dim": 2,
  "dcmmeta_version": 0.6,
  "global": {
    "const": {
      "AcquisitionMatrix": [106, 0, 0, 106],
      "AngioFlag": "N",
      "BitsAllocated": 16,
      "BitsStored": 16,
      "BodyPartExamined": "BRAIN",
      "CardiacNumberOfImages": 1,
      "Columns": 954,
      "EchoNumbers": 1,
      "EchoTime": 35.2,
      "EchoTrainLength": 106,
      "FlipAngle": 60.0,
      "HighBit": 15,
      "ImageOrientationPatient": [1.0, 0.0, 0.0, 0.0, 1.0, 0.0],
      "ImagePositionPatient": [-954.0, -964.24096393585, -64.373497009277],
      "ImageType": [
        "ORIGINAL",
        "PRIMARY",
        "M",
        "MB",
        "ND",
        "MOSAIC"
],
      "ImagedNucleus": "1H",
      "ImagingFrequency": 123.24361,
      "InPlanePhaseEncodingDirection": "COL",
      "MRAcquisitionType": "2D",
      "MagneticFieldStrength": 3.0,
      "Manufacturer": "SIEMENS",
      "ManufacturerModelName": "Prisma",
      "Modality": "MR",
      "NominalInterval": 0,
      "NumberOfAverages": 1.0,
      "NumberOfPhaseEncodingSteps": 106,
      "PercentPhaseFieldOfView": 100.0,
      "PercentSampling": 100.0,
      "PerformedProcedureStepStartTime": "182243.764000",
      "PhotometricInterpretation": "MONOCHROME2",
      "PixelBandwidth": 2620.0,
      "PixelRepresentation": 0,
      "PixelSpacing": [2.0, 2.0],
      "ProtocolName": "task-backtothefuture_run-1",
      "RepetitionTime": 1500.0,
      "Rows": 954,
      "SAR": 0.0688313434099,
      "SamplesPerPixel": 1,
      "ScanOptions": [
        "FS",
        "EXT"
],
      "ScanningSequence": "EP",
      "SequenceName": "epfid2d1_106",
      "SequenceVariant": [
        "SK",
        "SS"
],
      "SeriesDescription": "task-backtothefuture_run-1",
      "SeriesNumber": 3,
      "SeriesTime": "185126.370000",
      "SliceLocation": -64.373497009277,
      "SliceThickness": 2.0,
      "SmallestImagePixelValue": 0,
      "SoftwareVersions": "syngo MR E11",
      "SpacingBetweenSlices": 2.0,
      "SpecificCharacterSet": "ISO_IR 100",
      "StudyID": "1",
      "StudyTime": "182243.653000",
      "TransmitCoilName": "Body",
      "VariableFlipAngleFlag": "N",
      "WindowCenterWidthExplanation": "Algo1",
      "dBdt": 0.0},
    "slices": {}
  },
  "time": {
    "samples": {
      "AcquisitionNumber": [1, 2, 3, 4, 5, 6, 7, 8, 9, 10, 11, 12, 13, 14, 15, 16, 17, 18, 19, 20, 21, 22, 23, 24, 25, 26, 27, 28, 29, 30, 31, 32, 33, 34, 35, 36, 37, 38, 39, 40, 41, 42, 43, 44, 45, 46, 47, 48, 49, 50, 51, 52, 53, 54, 55, 56, 57, 58, 59, 60, 61, 62, 63, 64, 65, 66, 67, 68, 69, 70, 71, 72, 73, 74, 75, 76, 77, 78, 79, 80, 81, 82, 83, 84, 85, 86, 87, 88, 89, 90, 91, 92, 93, 94, 95, 96, 97, 98, 99, 100, 101, 102, 103, 104, 105, 106, 107, 108, 109, 110, 111, 112, 113, 114, 115, 116, 117, 118, 119, 120, 121, 122, 123, 124, 125, 126, 127, 128, 129, 130, 131, 132, 133, 134, 135, 136, 137, 138, 139, 140, 141, 142, 143, 144, 145, 146, 147, 148, 149, 150, 151, 152, 153, 154, 155, 156, 157, 158, 159, 160, 161, 162, 163, 164, 165, 166, 167, 168, 169, 170, 171, 172, 173, 174, 175, 176, 177, 178, 179, 180, 181, 182, 183, 184, 185, 186, 187, 188, 189, 190, 191, 192, 193, 194, 195, 196, 197, 198, 199, 200, 201, 202, 203, 204, 205, 206, 207, 208, 209, 210, 211, 212, 213, 214, 215, 216, 217, 218, 219, 220, 221, 222, 223, 224, 225, 226, 227, 228, 229, 230, 231, 232, 233, 234, 235, 236, 237, 238, 239, 240, 241, 242, 243, 244, 245, 246, 247, 248, 249, 250, 251, 252, 253, 254, 255, 256, 257, 258, 259, 260, 261, 262, 263, 264, 265, 266, 267, 268, 269, 270, 271, 272, 273, 274, 275, 276, 277, 278, 279, 280, 281, 282, 283, 284, 285, 286, 287, 288, 289, 290, 291, 292, 293, 294, 295, 296, 297, 298, 299, 300, 301, 302, 303, 304, 305, 306, 307, 308, 309, 310, 311, 312, 313, 314, 315, 316, 317, 318, 319, 320, 321, 322, 323, 324, 325, 326, 327, 328, 329, 330, 331, 332, 333, 334, 335, 336, 337, 338, 339, 340, 341, 342, 343, 344, 345, 346, 347, 348, 349, 350, 351, 352, 353, 354, 355, 356, 357, 358, 359, 360, 361, 362, 363, 364, 365, 366, 367, 368, 369, 370, 371, 372, 373, 374, 375, 376, 377, 378, 379, 380, 381, 382, 383, 384, 385, 386, 387, 388, 389, 390, 391, 392, 393, 394, 395, 396, 397, 398, 399, 400],
      "AcquisitionTime": ["185036.867500", "185038.367500", "185039.867500", "185041.367500", "185042.867500", "185044.367500", "185045.867500", "185047.367500", "185048.867500", "185050.367500", "185051.867500", "185053.367500", "185054.867500", "185056.367500", "185057.867500", "185059.367500", "185100.867500", "185102.367500", "185103.867500", "185105.367500", "185106.867500", "185108.367500", "185109.867500", "185111.367500", "185112.867500", "185114.367500", "185115.867500", "185117.367500", "185118.867500", "185120.367500", "185121.867500", "185123.367500", "185124.867500", "185126.367500", "185127.867500", "185129.367500", "185130.867500", "185132.367500", "185133.867500", "185135.367500", "185136.867500", "185138.367500", "185139.867500", "185141.367500", "185142.867500", "185144.367500", "185145.867500", "185147.367500", "185148.867500", "185150.367500", "185151.867500", "185153.367500", "185154.867500", "185156.367500", "185157.867500", "185159.367500", "185200.867500", "185202.367500", "185203.867500", "185205.367500", "185206.867500", "185208.367500", "185209.867500", "185211.367500", "185212.867500", "185214.367500", "185215.867500", "185217.367500", "185218.867500", "185220.367500", "185221.867500", "185223.367500", "185224.867500", "185226.367500", "185227.867500", "185229.367500", "185230.867500", "185232.367500", "185233.867500", "185235.367500", "185236.867500", "185238.367500", "185239.867500", "185241.367500", "185242.867500", "185244.367500", "185245.867500", "185247.367500", "185248.867500", "185250.367500", "185251.867500", "185253.367500", "185254.867500", "185256.367500", "185257.867500", "185259.367500", "185300.867500", "185302.367500", "185303.867500", "185305.367500", "185306.867500", "185308.367500", "185309.867500", "185311.367500", "185312.867500", "185314.367500", "185315.867500", "185317.367500", "185318.867500", "185320.367500", "185321.867500", "185323.367500", "185324.867500", "185326.367500", "185327.867500", "185329.367500", "185330.867500", "185332.367500", "185333.867500", "185335.367500", "185336.867500", "185338.367500", "185339.867500", "185341.367500", "185342.867500", "185344.367500", "185345.867500", "185347.367500", "185348.867500", "185350.367500", "185351.867500", "185353.367500", "185354.867500", "185356.367500", "185357.867500", "185359.367500", "185400.867500", "185402.367500", "185403.867500", "185405.367500", "185406.867500", "185408.367500", "185409.867500", "185411.367500", "185412.867500", "185414.367500", "185415.867500", "185417.367500", "185418.867500", "185420.367500", "185421.867500", "185423.367500", "185424.867500", "185426.367500", "185427.867500", "185429.367500", "185430.867500", "185432.367500", "185433.867500", "185435.367500", "185436.867500", "185438.367500", "185439.867500", "185441.367500", "185442.867500", "185444.367500", "185445.867500", "185447.367500", "185448.867500", "185450.367500", "185451.867500", "185453.367500", "185454.867500", "185456.367500", "185457.867500", "185459.367500", "185500.867500", "185502.367500", "185503.867500", "185505.367500", "185506.867500", "185508.367500", "185509.867500", "185511.367500", "185512.867500", "185514.367500", "185515.867500", "185517.367500", "185518.867500", "185520.367500", "185521.867500", "185523.367500", "185524.867500", "185526.367500", "185527.867500", "185529.367500", "185530.867500", "185532.367500", "185533.867500", "185535.367500", "185536.867500", "185538.367500", "185539.867500", "185541.367500", "185542.867500", "185544.367500", "185545.867500", "185547.367500", "185548.867500", "185550.367500", "185551.867500", "185553.367500", "185554.867500", "185556.367500", "185557.867500", "185559.367500", "185600.867500", "185602.367500", "185603.867500", "185605.367500", "185606.867500", "185608.367500", "185609.867500", "185611.367500", "185612.867500", "185614.367500", "185615.867500", "185617.367500", "185618.867500", "185620.367500", "185621.867500", "185623.367500", "185624.867500", "185626.367500", "185627.867500", "185629.367500", "185630.867500", "185632.367500", "185633.867500", "185635.367500", "185636.867500", "185638.367500", "185639.867500", "185641.367500", "185642.867500", "185644.367500", "185645.867500", "185647.367500", "185648.867500", "185650.367500", "185651.867500", "185653.367500", "185654.867500", "185656.367500", "185657.867500", "185659.367500", "185700.867500", "185702.367500", "185703.867500", "185705.367500", "185706.867500", "185708.367500", "185709.867500", "185711.367500", "185712.867500", "185714.367500", "185715.867500", "185717.367500", "185718.867500", "185720.367500", "185721.867500", "185723.367500", "185724.867500", "185726.367500", "185727.867500", "185729.367500", "185730.867500", "185732.367500", "185733.867500", "185735.367500", "185736.867500", "185738.367500", "185739.867500", "185741.367500", "185742.867500", "185744.367500", "185745.867500", "185747.367500", "185748.867500", "185750.367500", "185751.867500", "185753.367500", "185754.867500", "185756.367500", "185757.867500", "185759.367500", "185800.867500", "185802.367500", "185803.867500", "185805.367500", "185806.867500", "185808.367500", "185809.867500", "185811.367500", "185812.867500", "185814.367500", "185815.867500", "185817.367500", "185818.867500", "185820.367500", "185821.867500", "185823.367500", "185824.867500", "185826.367500", "185827.867500", "185829.367500", "185830.867500", "185832.367500", "185833.867500", "185835.367500", "185836.867500", "185838.367500", "185839.867500", "185841.367500", "185842.867500", "185844.367500", "185845.867500", "185847.367500", "185848.867500", "185850.367500", "185851.867500", "185853.367500", "185854.867500", "185856.367500", "185857.867500", "185859.367500", "185900.867500", "185902.367500", "185903.867500", "185905.367500", "185906.867500", "185908.367500", "185909.867500", "185911.367500", "185912.867500", "185914.367500", "185915.867500", "185917.367500", "185918.867500", "185920.367500", "185921.867500", "185923.367500", "185924.867500", "185926.367500", "185927.867500", "185929.367500", "185930.867500", "185932.367500", "185933.867500", "185935.367500", "185936.867500", "185938.367500", "185939.867500", "185941.367500", "185942.867500", "185944.367500", "185945.867500", "185947.367500", "185948.867500", "185950.367500", "185951.867500", "185953.367500", "185954.867500", "185956.367500", "185957.867500", "185959.367500", "190000.867500", "190002.367500", "190003.867500", "190005.367500", "190006.867500", "190008.367500", "190009.867500", "190011.367500", "190012.867500", "190014.367500", "190015.867500", "190017.367500", "190018.867500", "190020.367500", "190021.867500", "190023.367500", "190024.867500", "190026.367500", "190027.867500", "190029.367500", "190030.867500", "190032.367500", "190033.867500", "190035.367500"],
      "ContentTime": ["185126.372000", "185126.376000", "185126.379000", "185126.382000", "185126.384000", "185126.387000", "185126.390000", "185126.393000", "185126.396000", "185126.399000", "185126.401000", "185126.404000", "185126.407000", "185126.410000", "185126.412000", "185126.415000", "185126.426000", "185126.429000", "185126.431000", "185126.434000", "185126.437000", "185126.440000", "185126.442000", "185126.445000", "185126.448000", "185126.451000", "185126.453000", "185126.456000", "185126.459000", "185126.462000", "185126.464000", "185126.467000", "185206.348000", "185206.351000", "185206.353000", "185206.356000", "185206.359000", "185206.362000", "185206.365000", "185206.367000", "185206.370000", "185206.373000", "185206.376000", "185206.379000", "185206.382000", "185206.384000", "185206.387000", "185206.390000", "185206.393000", "185206.395000", "185206.398000", "185206.401000", "185206.413000", "185206.416000", "185206.419000", "185206.422000", "185206.424000", "185206.427000", "185206.430000", "185226.349000", "185226.352000", "185226.355000", "185226.357000", "185226.360000", "185226.363000", "185226.366000", "185226.368000", "185226.371000", "185226.374000", "185226.377000", "185226.379000", "185226.382000", "185306.348000", "185306.351000", "185306.353000", "185306.356000", "185306.359000", "185306.362000", "185306.364000", "185306.367000", "185306.370000", "185306.373000", "185306.375000", "185306.378000", "185306.381000", "185306.384000", "185306.386000", "185306.389000", "185306.392000", "185306.395000", "185306.397000", "185306.400000", "185306.403000", "185306.406000", "185306.409000", "185306.412000", "185306.414000", "185306.417000", "185306.420000", "185346.348000", "185346.351000", "185346.354000", "185346.356000", "185346.359000", "185346.362000", "185346.365000", "185346.367000", "185346.370000", "185346.373000", "185346.376000", "185346.378000", "185346.381000", "185346.408000", "185346.411000", "185346.414000", "185346.417000", "185346.419000", "185346.422000", "185346.425000", "185346.428000", "185346.431000", "185346.434000", "185346.436000", "185346.439000", "185346.442000", "185426.348000", "185426.351000", "185426.353000", "185426.356000", "185426.359000", "185426.362000", "185426.364000", "185426.367000", "185426.370000", "185426.373000", "185426.375000", "185426.378000", "185426.381000", "185426.384000", "185426.387000", "185426.390000", "185426.393000", "185426.396000", "185426.399000", "185426.401000", "185426.404000", "185426.407000", "185426.410000", "185426.413000", "185426.416000", "185426.418000", "185426.421000", "185506.349000", "185506.352000", "185506.355000", "185506.357000", "185506.360000", "185506.363000", "185506.366000", "185506.369000", "185506.371000", "185506.374000", "185506.377000", "185506.380000", "185506.382000", "185506.385000", "185506.388000", "185506.391000", "185506.393000", "185506.396000", "185506.399000", "185506.402000", "185506.405000", "185506.407000", "185506.415000", "185506.418000", "185506.421000", "185506.423000", "185506.426000", "185546.348000", "185546.351000", "185546.354000", "185546.356000", "185546.359000", "185546.362000", "185546.365000", "185546.367000", "185546.370000", "185546.373000", "185546.376000", "185546.378000", "185546.381000", "185546.384000", "185546.387000", "185546.390000", "185546.392000", "185546.396000", "185546.399000", "185546.402000", "185546.405000", "185546.408000", "185546.412000", "185546.415000", "185546.418000", "185546.421000", "185626.348000", "185626.351000", "185626.353000", "185626.356000", "185626.359000", "185626.362000", "185626.364000", "185626.367000", "185626.370000", "185626.373000", "185626.375000", "185626.378000", "185626.381000", "185626.384000", "185626.387000", "185626.390000", "185626.393000", "185626.396000", "185626.398000", "185626.401000", "185626.404000", "185626.407000", "185626.410000", "185626.412000", "185626.415000", "185626.418000", "185626.421000", "185706.349000", "185706.352000", "185706.354000", "185706.357000", "185706.360000", "185706.363000", "185706.366000", "185706.368000", "185706.371000", "185706.381000", "185706.384000", "185706.387000", "185706.390000", "185706.393000", "185706.395000", "185706.398000", "185706.401000", "185706.404000", "185706.407000", "185706.410000", "185706.413000", "185706.415000", "185706.418000", "185706.421000", "185706.424000", "185706.426000", "185706.429000", "185746.348000", "185746.351000", "185746.354000", "185746.356000", "185746.360000", "185746.363000", "185746.365000", "185746.368000", "185746.371000", "185746.374000", "185746.376000", "185746.379000", "185746.382000", "185746.385000", "185746.388000", "185746.391000", "185746.394000", "185746.397000", "185746.399000", "185746.402000", "185746.405000", "185746.408000", "185746.410000", "185746.424000", "185746.427000", "185746.430000", "185826.348000", "185826.351000", "185826.353000", "185826.356000", "185826.359000", "185826.362000", "185826.365000", "185826.368000", "185826.371000", "185826.373000", "185826.376000", "185826.379000", "185826.382000", "185826.384000", "185826.388000", "185826.391000", "185826.394000", "185826.396000", "185826.399000", "185826.402000", "185826.405000", "185826.408000", "185826.410000", "185826.413000", "185826.416000", "185826.419000", "185826.422000", "185906.348000", "185906.351000", "185906.354000", "185906.356000", "185906.359000", "185906.362000", "185906.365000", "185906.368000", "185906.370000", "185906.373000", "185906.376000", "185906.379000", "185906.381000", "185906.384000", "185906.387000", "185906.389000", "185906.392000", "185906.395000", "185906.398000", "185906.400000", "185906.403000", "185906.406000", "185906.409000", "185906.411000", "185906.414000", "185906.417000", "185906.419000", "185946.349000", "185946.352000", "185946.355000", "185946.357000", "185946.360000", "185946.363000", "185946.366000", "185946.368000", "185946.371000", "185946.374000", "185946.377000", "185946.379000", "185946.382000", "185946.385000", "185946.388000", "185946.391000", "185946.394000", "185946.397000", "185946.400000", "185946.402000", "185946.405000", "185946.408000", "185946.411000", "185946.414000", "185946.417000", "185946.420000", "190026.348000", "190026.351000", "190026.353000", "190026.356000", "190026.359000", "190026.362000", "190026.365000", "190026.367000", "190026.371000", "190026.374000", "190026.376000", "190026.379000", "190026.382000", "190026.385000", "190026.388000", "190026.390000", "190026.393000", "190026.396000", "190026.399000", "190026.402000", "190026.405000", "190026.407000", "190026.410000", "190026.413000", "190026.416000", "190026.419000", "190026.421000", "190037.891000", "190037.894000", "190037.897000", "190037.900000", "190037.903000", "190037.906000", "190037.908000", "190037.911000"],
      "InstanceCreationTime": ["185126.372000", "185126.376000", "185126.379000", "185126.382000", "185126.384000", "185126.387000", "185126.390000", "185126.393000", "185126.396000", "185126.399000", "185126.401000", "185126.404000", "185126.407000", "185126.410000", "185126.412000", "185126.415000", "185126.426000", "185126.429000", "185126.431000", "185126.434000", "185126.437000", "185126.440000", "185126.442000", "185126.445000", "185126.448000", "185126.451000", "185126.453000", "185126.456000", "185126.459000", "185126.462000", "185126.464000", "185126.467000", "185206.348000", "185206.351000", "185206.353000", "185206.356000", "185206.359000", "185206.362000", "185206.365000", "185206.367000", "185206.370000", "185206.373000", "185206.376000", "185206.379000", "185206.382000", "185206.384000", "185206.387000", "185206.390000", "185206.393000", "185206.395000", "185206.398000", "185206.401000", "185206.413000", "185206.416000", "185206.419000", "185206.422000", "185206.424000", "185206.427000", "185206.430000", "185226.349000", "185226.352000", "185226.355000", "185226.357000", "185226.360000", "185226.363000", "185226.366000", "185226.368000", "185226.371000", "185226.374000", "185226.377000", "185226.379000", "185226.382000", "185306.348000", "185306.351000", "185306.353000", "185306.356000", "185306.359000", "185306.362000", "185306.364000", "185306.367000", "185306.370000", "185306.373000", "185306.375000", "185306.378000", "185306.381000", "185306.384000", "185306.386000", "185306.389000", "185306.392000", "185306.395000", "185306.397000", "185306.400000", "185306.403000", "185306.406000", "185306.409000", "185306.412000", "185306.414000", "185306.417000", "185306.420000", "185346.348000", "185346.351000", "185346.354000", "185346.356000", "185346.359000", "185346.362000", "185346.365000", "185346.367000", "185346.370000", "185346.373000", "185346.376000", "185346.378000", "185346.381000", "185346.408000", "185346.411000", "185346.414000", "185346.417000", "185346.419000", "185346.422000", "185346.425000", "185346.428000", "185346.431000", "185346.434000", "185346.436000", "185346.439000", "185346.442000", "185426.348000", "185426.351000", "185426.353000", "185426.356000", "185426.359000", "185426.362000", "185426.364000", "185426.367000", "185426.370000", "185426.373000", "185426.375000", "185426.378000", "185426.381000", "185426.384000", "185426.387000", "185426.390000", "185426.393000", "185426.396000", "185426.399000", "185426.401000", "185426.404000", "185426.407000", "185426.410000", "185426.413000", "185426.416000", "185426.418000", "185426.421000", "185506.349000", "185506.352000", "185506.355000", "185506.357000", "185506.360000", "185506.363000", "185506.366000", "185506.369000", "185506.371000", "185506.374000", "185506.377000", "185506.380000", "185506.382000", "185506.385000", "185506.388000", "185506.391000", "185506.393000", "185506.396000", "185506.399000", "185506.402000", "185506.405000", "185506.407000", "185506.415000", "185506.418000", "185506.421000", "185506.423000", "185506.426000", "185546.348000", "185546.351000", "185546.354000", "185546.356000", "185546.359000", "185546.362000", "185546.365000", "185546.367000", "185546.370000", "185546.373000", "185546.376000", "185546.378000", "185546.381000", "185546.384000", "185546.387000", "185546.390000", "185546.392000", "185546.396000", "185546.399000", "185546.402000", "185546.405000", "185546.408000", "185546.412000", "185546.415000", "185546.418000", "185546.421000", "185626.348000", "185626.351000", "185626.353000", "185626.356000", "185626.359000", "185626.362000", "185626.364000", "185626.367000", "185626.370000", "185626.373000", "185626.375000", "185626.378000", "185626.381000", "185626.384000", "185626.387000", "185626.390000", "185626.393000", "185626.396000", "185626.398000", "185626.401000", "185626.404000", "185626.407000", "185626.410000", "185626.412000", "185626.415000", "185626.418000", "185626.421000", "185706.349000", "185706.352000", "185706.354000", "185706.357000", "185706.360000", "185706.363000", "185706.366000", "185706.368000", "185706.371000", "185706.381000", "185706.384000", "185706.387000", "185706.390000", "185706.393000", "185706.395000", "185706.398000", "185706.401000", "185706.404000", "185706.407000", "185706.410000", "185706.413000", "185706.415000", "185706.418000", "185706.421000", "185706.424000", "185706.426000", "185706.429000", "185746.348000", "185746.351000", "185746.354000", "185746.356000", "185746.360000", "185746.363000", "185746.365000", "185746.368000", "185746.371000", "185746.374000", "185746.376000", "185746.379000", "185746.382000", "185746.385000", "185746.388000", "185746.391000", "185746.394000", "185746.397000", "185746.399000", "185746.402000", "185746.405000", "185746.408000", "185746.410000", "185746.424000", "185746.427000", "185746.430000", "185826.348000", "185826.351000", "185826.353000", "185826.356000", "185826.359000", "185826.362000", "185826.365000", "185826.368000", "185826.371000", "185826.373000", "185826.376000", "185826.379000", "185826.382000", "185826.384000", "185826.388000", "185826.391000", "185826.394000", "185826.396000", "185826.399000", "185826.402000", "185826.405000", "185826.408000", "185826.410000", "185826.413000", "185826.416000", "185826.419000", "185826.422000", "185906.348000", "185906.351000", "185906.354000", "185906.356000", "185906.359000", "185906.362000", "185906.365000", "185906.368000", "185906.370000", "185906.373000", "185906.376000", "185906.379000", "185906.381000", "185906.384000", "185906.387000", "185906.389000", "185906.392000", "185906.395000", "185906.398000", "185906.400000", "185906.403000", "185906.406000", "185906.409000", "185906.411000", "185906.414000", "185906.417000", "185906.419000", "185946.349000", "185946.352000", "185946.355000", "185946.357000", "185946.360000", "185946.363000", "185946.366000", "185946.368000", "185946.371000", "185946.374000", "185946.377000", "185946.379000", "185946.382000", "185946.385000", "185946.388000", "185946.391000", "185946.394000", "185946.397000", "185946.400000", "185946.402000", "185946.405000", "185946.408000", "185946.411000", "185946.414000", "185946.417000", "185946.420000", "190026.348000", "190026.351000", "190026.353000", "190026.356000", "190026.359000", "190026.362000", "190026.365000", "190026.367000", "190026.371000", "190026.374000", "190026.376000", "190026.379000", "190026.382000", "190026.385000", "190026.388000", "190026.390000", "190026.393000", "190026.396000", "190026.399000", "190026.402000", "190026.405000", "190026.407000", "190026.410000", "190026.413000", "190026.416000", "190026.419000", "190026.421000", "190037.891000", "190037.894000", "190037.897000", "190037.900000", "190037.903000", "190037.906000", "190037.908000", "190037.911000"],
      "InstanceNumber": [1, 2, 3, 4, 5, 6, 7, 8, 9, 10, 11, 12, 13, 14, 15, 16, 17, 18, 19, 20, 21, 22, 23, 24, 25, 26, 27, 28, 29, 30, 31, 32, 33, 34, 35, 36, 37, 38, 39, 40, 41, 42, 43, 44, 45, 46, 47, 48, 49, 50, 51, 52, 53, 54, 55, 56, 57, 58, 59, 60, 61, 62, 63, 64, 65, 66, 67, 68, 69, 70, 71, 72, 73, 74, 75, 76, 77, 78, 79, 80, 81, 82, 83, 84, 85, 86, 87, 88, 89, 90, 91, 92, 93, 94, 95, 96, 97, 98, 99, 100, 101, 102, 103, 104, 105, 106, 107, 108, 109, 110, 111, 112, 113, 114, 115, 116, 117, 118, 119, 120, 121, 122, 123, 124, 125, 126, 127, 128, 129, 130, 131, 132, 133, 134, 135, 136, 137, 138, 139, 140, 141, 142, 143, 144, 145, 146, 147, 148, 149, 150, 151, 152, 153, 154, 155, 156, 157, 158, 159, 160, 161, 162, 163, 164, 165, 166, 167, 168, 169, 170, 171, 172, 173, 174, 175, 176, 177, 178, 179, 180, 181, 182, 183, 184, 185, 186, 187, 188, 189, 190, 191, 192, 193, 194, 195, 196, 197, 198, 199, 200, 201, 202, 203, 204, 205, 206, 207, 208, 209, 210, 211, 212, 213, 214, 215, 216, 217, 218, 219, 220, 221, 222, 223, 224, 225, 226, 227, 228, 229, 230, 231, 232, 233, 234, 235, 236, 237, 238, 239, 240, 241, 242, 243, 244, 245, 246, 247, 248, 249, 250, 251, 252, 253, 254, 255, 256, 257, 258, 259, 260, 261, 262, 263, 264, 265, 266, 267, 268, 269, 270, 271, 272, 273, 274, 275, 276, 277, 278, 279, 280, 281, 282, 283, 284, 285, 286, 287, 288, 289, 290, 291, 292, 293, 294, 295, 296, 297, 298, 299, 300, 301, 302, 303, 304, 305, 306, 307, 308, 309, 310, 311, 312, 313, 314, 315, 316, 317, 318, 319, 320, 321, 322, 323, 324, 325, 326, 327, 328, 329, 330, 331, 332, 333, 334, 335, 336, 337, 338, 339, 340, 341, 342, 343, 344, 345, 346, 347, 348, 349, 350, 351, 352, 353, 354, 355, 356, 357, 358, 359, 360, 361, 362, 363, 364, 365, 366, 367, 368, 369, 370, 371, 372, 373, 374, 375, 376, 377, 378, 379, 380, 381, 382, 383, 384, 385, 386, 387, 388, 389, 390, 391, 392, 393, 394, 395, 396, 397, 398, 399, 400],
