{
  "AcquisitionMatrixPE": 106,
  "AcquisitionNumber": 1,
  "AcquisitionTime": "14:48:47.872500",
  "BandwidthPerPixelPhaseEncode": 16.846,
  "BaseResolution": 106,
  "BodyPartExamined": "BRAIN",
  "CoilCombinationMethod": "Sum of Squares",
  "ConsistencyInfo": "N4_VE11C_LATEST_20160120",
  "ConversionSoftware": "dcm2niix",
  "ConversionSoftwareVersion": "v1.0.20220720",
  "DerivedVendorReportedEchoSpacing": 0.000560012,
  "DeviceSerialNumber": "166108",
  "DwellTime": 1.8e-06,
  "EchoTime": 0.0352,
  "EchoTrainLength": 106,
  "EffectiveEchoSpacing": 0.000560012,
  "FlipAngle": 60,
  "HeudiconvVersion": "1.3.0",
  "ImageComments": "Unaliased MB4/PE3/LB",
  "ImageOrientationPatientDICOM": [1, 0, 0, 0, 1, 0],
  "ImageOrientationText": "Tra",
  "ImageType": [
    "ORIGINAL",
    "PRIMARY",
    "M",
    "MB",
    "ND",
    "MOSAIC"
],
  "ImagingFrequency": 123.244,
  "InPlanePhaseEncodingDirectionDICOM": "COL",
  "InstitutionAddress": "Bedford Way 26,London,London,GB,WC1H 0AP",
  "InstitutionName": "University College",
  "InstitutionalDepartmentName": "Department",
  "MRAcquisitionType": "2D",
  "MagneticFieldStrength": 3,
  "Manufacturer": "Siemens",
  "ManufacturersModelName": "Prisma",
  "MatrixCoilMode": "SENSE",
  "Modality": "MR",
  "MultibandAccelerationFactor": 4,
  "NonlinearGradientCorrection": false,
  "PartialFourier": 1,
  "PatientPosition": "HFS",
  "PercentPhaseFOV": 100,
  "PercentSampling": 100,
  "PhaseEncodingDirection": "j-",
  "PhaseEncodingSteps": 106,
  "PhaseResolution": 1,
  "PixelBandwidth": 2620,
  "ProcedureStepDescription": "Egor^MovieProject2",
  "ProtocolName": "task-backtothefuture_run-1",
  "PulseSequenceDetails": "%CustomerSeq%\\cmrr_mbep2d_bold",
  "ReceiveCoilActiveElements": "HEA;HEP",
  "ReceiveCoilName": "Head_32",
  "ReconMatrixPE": 106,
  "RepetitionTime": 1.5,
  "SAR": 0.0733825,
  "ScanOptions": "FS\\EXT",
  "ScanningSequence": "EP",
  "SequenceName": "epfid2d1_106",
  "SequenceVariant": "SK\\SS",
  "SeriesDescription": "task-backtothefuture_run-1",
  "SeriesNumber": 3,
  "ShimSetting": [-1572, 632, 7442, 400, 14, 106, 13, -6],
  "SliceThickness": 2,
  "SliceTiming": [0, 1.0675, 0.6575, 0.245, 1.315, 0.9025, 0.4925, 0.08, 1.15, 0.74, 0.3275, 1.3975, 0.985, 0.575, 0.1625, 1.2325, 0.82, 0.41, 0, 1.0675, 0.6575, 0.245, 1.315, 0.9025, 0.4925, 0.08, 1.15, 0.74, 0.3275, 1.3975, 0.985, 0.575, 0.1625, 1.2325, 0.82, 0.41, 0, 1.0675, 0.6575, 0.245, 1.315, 0.9025, 0.4925, 0.08, 1.15, 0.74, 0.3275, 1.3975, 0.985, 0.575, 0.1625, 1.2325, 0.82, 0.41, 0, 1.0675, 0.6575, 0.245, 1.315, 0.9025, 0.4925, 0.08, 1.15, 0.74, 0.3275, 1.3975, 0.985, 0.575, 0.1625, 1.2325, 0.82, 0.41],
  "SoftwareVersions": "syngo MR E11",
  "SpacingBetweenSlices": 2,
  "StationName": "AWP166108",
  "TaskName": "backtothefuture",
  "TotalReadoutTime": 0.0588013,
  "TxRefAmp": 222.008,
  "WipMemBlock": "aa09746d-5348-44ab-b628-1530b092dd44||Sequence: R016 ve11c/master r/e634e98; Dec 19 2017 11:00:25 by eja",
  "dcmmeta_affine": [
    [-2.0, 0.0, 0.0, 106.0],
    [0.0, 2.0, 0.0, -97.97590637207031],
    [0.0, 0.0, 2.0, -46.90361404418945],
    [0.0, 0.0, 0.0, 1.0]
],
  "dcmmeta_reorient_transform": [
    [0.0, -1.0, 0.0, 105.0],
    [1.0, 0.0, 0.0, 0.0],
    [0.0, 0.0, 1.0, 0.0],
    [0.0, 0.0, 0.0, 1.0]
],
  "dcmmeta_shape": [106, 106, 72, 1360],
  "dcmmeta_slice_dim": 2,
  "dcmmeta_version": 0.6,
  "global": {
    "const": {
      "AcquisitionMatrix": [106, 0, 0, 106],
      "AngioFlag": "N",
      "BitsAllocated": 16,
      "BitsStored": 16,
      "BodyPartExamined": "BRAIN",
      "CardiacNumberOfImages": 1,
      "Columns": 954,
      "EchoNumbers": 1,
      "EchoTime": 35.2,
      "EchoTrainLength": 106,
      "FlipAngle": 60.0,
      "HighBit": 15,
      "ImageOrientationPatient": [1.0, 0.0, 0.0, 0.0, 1.0, 0.0],
      "ImagePositionPatient": [-954.0, -960.02409648895, -46.903614044189],
      "ImageType": [
        "ORIGINAL",
        "PRIMARY",
        "M",
        "MB",
        "ND",
        "MOSAIC"
],
      "ImagedNucleus": "1H",
      "ImagingFrequency": 123.243656,
      "InPlanePhaseEncodingDirection": "COL",
      "MRAcquisitionType": "2D",
      "MagneticFieldStrength": 3.0,
      "Manufacturer": "SIEMENS",
      "ManufacturerModelName": "Prisma",
      "Modality": "MR",
      "NominalInterval": 0,
      "NumberOfAverages": 1.0,
      "NumberOfPhaseEncodingSteps": 106,
      "PercentPhaseFieldOfView": 100.0,
      "PercentSampling": 100.0,
      "PerformedProcedureStepStartTime": "143252.300000",
      "PhotometricInterpretation": "MONOCHROME2",
      "PixelBandwidth": 2620.0,
      "PixelRepresentation": 0,
      "PixelSpacing": [2.0, 2.0],
      "ProtocolName": "task-backtothefuture_run-1",
      "RepetitionTime": 1500.0,
      "Rows": 954,
      "SAR": 0.07338244975186,
      "SamplesPerPixel": 1,
      "ScanOptions": [
        "FS",
        "EXT"
],
      "ScanningSequence": "EP",
      "SequenceName": "epfid2d1_106",
      "SequenceVariant": [
        "SK",
        "SS"
],
      "SeriesDescription": "task-backtothefuture_run-1",
      "SeriesNumber": 3,
      "SeriesTime": "144944.520000",
      "SliceLocation": -46.903614044189,
      "SliceThickness": 2.0,
      "SmallestImagePixelValue": 0,
      "SoftwareVersions": "syngo MR E11",
      "SpacingBetweenSlices": 1.9999999462719,
      "SpecificCharacterSet": "ISO_IR 100",
      "StudyID": "1",
      "StudyTime": "143252.225000",
      "TransmitCoilName": "Body",
      "VariableFlipAngleFlag": "N",
      "WindowCenterWidthExplanation": "Algo1",
      "dBdt": 0.0},
    "slices": {}
  },
  "time": {
    "samples": {
      "AcquisitionNumber": [1, 2, 3, 4, 5, 6, 7, 8, 9, 10, 11, 12, 13, 14, 15, 16, 17, 18, 19, 20, 21, 22, 23, 24, 25, 26, 27, 28, 29, 30, 31, 32, 33, 34, 35, 36, 37, 38, 39, 40, 41, 42, 43, 44, 45, 46, 47, 48, 49, 50, 51, 52, 53, 54, 55, 56, 57, 58, 59, 60, 61, 62, 63, 64, 65, 66, 67, 68, 69, 70, 71, 72, 73, 74, 75, 76, 77, 78, 79, 80, 81, 82, 83, 84, 85, 86, 87, 88, 89, 90, 91, 92, 93, 94, 95, 96, 97, 98, 99, 100, 101, 102, 103, 104, 105, 106, 107, 108, 109, 110, 111, 112, 113, 114, 115, 116, 117, 118, 119, 120, 121, 122, 123, 124, 125, 126, 127, 128, 129, 130, 131, 132, 133, 134, 135, 136, 137, 138, 139, 140, 141, 142, 143, 144, 145, 146, 147, 148, 149, 150, 151, 152, 153, 154, 155, 156, 157, 158, 159, 160, 161, 162, 163, 164, 165, 166, 167, 168, 169, 170, 171, 172, 173, 174, 175, 176, 177, 178, 179, 180, 181, 182, 183, 184, 185, 186, 187, 188, 189, 190, 191, 192, 193, 194, 195, 196, 197, 198, 199, 200, 201, 202, 203, 204, 205, 206, 207, 208, 209, 210, 211, 212, 213, 214, 215, 216, 217, 218, 219, 220, 221, 222, 223, 224, 225, 226, 227, 228, 229, 230, 231, 232, 233, 234, 235, 236, 237, 238, 239, 240, 241, 242, 243, 244, 245, 246, 247, 248, 249, 250, 251, 252, 253, 254, 255, 256, 257, 258, 259, 260, 261, 262, 263, 264, 265, 266, 267, 268, 269, 270, 271, 272, 273, 274, 275, 276, 277, 278, 279, 280, 281, 282, 283, 284, 285, 286, 287, 288, 289, 290, 291, 292, 293, 294, 295, 296, 297, 298, 299, 300, 301, 302, 303, 304, 305, 306, 307, 308, 309, 310, 311, 312, 313, 314, 315, 316, 317, 318, 319, 320, 321, 322, 323, 324, 325, 326, 327, 328, 329, 330, 331, 332, 333, 334, 335, 336, 337, 338, 339, 340, 341, 342, 343, 344, 345, 346, 347, 348, 349, 350, 351, 352, 353, 354, 355, 356, 357, 358, 359, 360, 361, 362, 363, 364, 365, 366, 367, 368, 369, 370, 371, 372, 373, 374, 375, 376, 377, 378, 379, 380, 381, 382, 383, 384, 385, 386, 387, 388, 389, 390, 391, 392, 393, 394, 395, 396, 397, 398, 399, 400, 401, 402, 403, 404, 405, 406, 407, 408, 409, 410, 411, 412, 413, 414, 415, 416, 417, 418, 419, 420, 421, 422, 423, 424, 425, 426, 427, 428, 429, 430, 431, 432, 433, 434, 435, 436, 437, 438, 439, 440, 441, 442, 443, 444, 445, 446, 447, 448, 449, 450, 451, 452, 453, 454, 455, 456, 457, 458, 459, 460, 461, 462, 463, 464, 465, 466, 467, 468, 469, 470, 471, 472, 473, 474, 475, 476, 477, 478, 479, 480, 481, 482, 483, 484, 485, 486, 487, 488, 489, 490, 491, 492, 493, 494, 495, 496, 497, 498, 499, 500, 501, 502, 503, 504, 505, 506, 507, 508, 509, 510, 511, 512, 513, 514, 515, 516, 517, 518, 519, 520, 521, 522, 523, 524, 525, 526, 527, 528, 529, 530, 531, 532, 533, 534, 535, 536, 537, 538, 539, 540, 541, 542, 543, 544, 545, 546, 547, 548, 549, 550, 551, 552, 553, 554, 555, 556, 557, 558, 559, 560, 561, 562, 563, 564, 565, 566, 567, 568, 569, 570, 571, 572, 573, 574, 575, 576, 577, 578, 579, 580, 581, 582, 583, 584, 585, 586, 587, 588, 589, 590, 591, 592, 593, 594, 595, 596, 597, 598, 599, 600, 601, 602, 603, 604, 605, 606, 607, 608, 609, 610, 611, 612, 613, 614, 615, 616, 617, 618, 619, 620, 621, 622, 623, 624, 625, 626, 627, 628, 629, 630, 631, 632, 633, 634, 635, 636, 637, 638, 639, 640, 641, 642, 643, 644, 645, 646, 647, 648, 649, 650, 651, 652, 653, 654, 655, 656, 657, 658, 659, 660, 661, 662, 663, 664, 665, 666, 667, 668, 669, 670, 671, 672, 673, 674, 675, 676, 677, 678, 679, 680, 681, 682, 683, 684, 685, 686, 687, 688, 689, 690, 691, 692, 693, 694, 695, 696, 697, 698, 699, 700, 701, 702, 703, 704, 705, 706, 707, 708, 709, 710, 711, 712, 713, 714, 715, 716, 717, 718, 719, 720, 721, 722, 723, 724, 725, 726, 727, 728, 729, 730, 731, 732, 733, 734, 735, 736, 737, 738, 739, 740, 741, 742, 743, 744, 745, 746, 747, 748, 749, 750, 751, 752, 753, 754, 755, 756, 757, 758, 759, 760, 761, 762, 763, 764, 765, 766, 767, 768, 769, 770, 771, 772, 773, 774, 775, 776, 777, 778, 779, 780, 781, 782, 783, 784, 785, 786, 787, 788, 789, 790, 791, 792, 793, 794, 795, 796, 797, 798, 799, 800, 801, 802, 803, 804, 805, 806, 807, 808, 809, 810, 811, 812, 813, 814, 815, 816, 817, 818, 819, 820, 821, 822, 823, 824, 825, 826, 827, 828, 829, 830, 831, 832, 833, 834, 835, 836, 837, 838, 839, 840, 841, 842, 843, 844, 845, 846, 847, 848, 849, 850, 851, 852, 853, 854, 855, 856, 857, 858, 859, 860, 861, 862, 863, 864, 865, 866, 867, 868, 869, 870, 871, 872, 873, 874, 875, 876, 877, 878, 879, 880, 881, 882, 883, 884, 885, 886, 887, 888, 889, 890, 891, 892, 893, 894, 895, 896, 897, 898, 899, 900, 901, 902, 903, 904, 905, 906, 907, 908, 909, 910, 911, 912, 913, 914, 915, 916, 917, 918, 919, 920, 921, 922, 923, 924, 925, 926, 927, 928, 929, 930, 931, 932, 933, 934, 935, 936, 937, 938, 939, 940, 941, 942, 943, 944, 945, 946, 947, 948, 949, 950, 951, 952, 953, 954, 955, 956, 957, 958, 959, 960, 961, 962, 963, 964, 965, 966, 967, 968, 969, 970, 971, 972, 973, 974, 975, 976, 977, 978, 979, 980, 981, 982, 983, 984, 985, 986, 987, 988, 989, 990, 991, 992, 993, 994, 995, 996, 997, 998, 999, 1000, 1001, 1002, 1003, 1004, 1005, 1006, 1007, 1008, 1009, 1010, 1011, 1012, 1013, 1014, 1015, 1016, 1017, 1018, 1019, 1020, 1021, 1022, 1023, 1024, 1025, 1026, 1027, 1028, 1029, 1030, 1031, 1032, 1033, 1034, 1035, 1036, 1037, 1038, 1039, 1040, 1041, 1042, 1043, 1044, 1045, 1046, 1047, 1048, 1049, 1050, 1051, 1052, 1053, 1054, 1055, 1056, 1057, 1058, 1059, 1060, 1061, 1062, 1063, 1064, 1065, 1066, 1067, 1068, 1069, 1070, 1071, 1072, 1073, 1074, 1075, 1076, 1077, 1078, 1079, 1080, 1081, 1082, 1083, 1084, 1085, 1086, 1087, 1088, 1089, 1090, 1091, 1092, 1093, 1094, 1095, 1096, 1097, 1098, 1099, 1100, 1101, 1102, 1103, 1104, 1105, 1106, 1107, 1108, 1109, 1110, 1111, 1112, 1113, 1114, 1115, 1116, 1117, 1118, 1119, 1120, 1121, 1122, 1123, 1124, 1125, 1126, 1127, 1128, 1129, 1130, 1131, 1132, 1133, 1134, 1135, 1136, 1137, 1138, 1139, 1140, 1141, 1142, 1143, 1144, 1145, 1146, 1147, 1148, 1149, 1150, 1151, 1152, 1153, 1154, 1155, 1156, 1157, 1158, 1159, 1160, 1161, 1162, 1163, 1164, 1165, 1166, 1167, 1168, 1169, 1170, 1171, 1172, 1173, 1174, 1175, 1176, 1177, 1178, 1179, 1180, 1181, 1182, 1183, 1184, 1185, 1186, 1187, 1188, 1189, 1190, 1191, 1192, 1193, 1194, 1195, 1196, 1197, 1198, 1199, 1200, 1201, 1202, 1203, 1204, 1205, 1206, 1207, 1208, 1209, 1210, 1211, 1212, 1213, 1214, 1215, 1216, 1217, 1218, 1219, 1220, 1221, 1222, 1223, 1224, 1225, 1226, 1227, 1228, 1229, 1230, 1231, 1232, 1233, 1234, 1235, 1236, 1237, 1238, 1239, 1240, 1241, 1242, 1243, 1244, 1245, 1246, 1247, 1248, 1249, 1250, 1251, 1252, 1253, 1254, 1255, 1256, 1257, 1258, 1259, 1260, 1261, 1262, 1263, 1264, 1265, 1266, 1267, 1268, 1269, 1270, 1271, 1272, 1273, 1274, 1275, 1276, 1277, 1278, 1279, 1280, 1281, 1282, 1283, 1284, 1285, 1286, 1287, 1288, 1289, 1290, 1291, 1292, 1293, 1294, 1295, 1296, 1297, 1298, 1299, 1300, 1301, 1302, 1303, 1304, 1305, 1306, 1307, 1308, 1309, 1310, 1311, 1312, 1313, 1314, 1315, 1316, 1317, 1318, 1319, 1320, 1321, 1322, 1323, 1324, 1325, 1326, 1327, 1328, 1329, 1330, 1331, 1332, 1333, 1334, 1335, 1336, 1337, 1338, 1339, 1340, 1341, 1342, 1343, 1344, 1345, 1346, 1347, 1348, 1349, 1350, 1351, 1352, 1353, 1354, 1355, 1356, 1357, 1358, 1359, 1360],
      "AcquisitionTime": ["144847.872500", "144849.372500", "144850.872500", "144852.372500", "144853.872500", "144855.372500", "144856.872500", "144858.372500", "144859.872500", "144901.372500", "144902.872500", "144904.372500", "144905.872500", "144907.372500", "144908.872500", "144910.372500", "144911.872500", "144913.372500", "144914.872500", "144916.372500", "144917.872500", "144919.372500", "144920.872500", "144922.372500", "144923.872500", "144925.372500", "144926.872500", "144928.372500", "144929.872500", "144931.372500", "144932.872500", "144934.372500", "144935.872500", "144937.372500", "144938.872500", "144940.372500", "144941.872500", "144943.372500", "144944.872500", "144946.372500", "144947.872500", "144949.372500", "144950.872500", "144952.372500", "144953.872500", "144955.372500", "144956.872500", "144958.372500", "144959.872500", "145001.372500", "145002.872500", "145004.372500", "145005.872500", "145007.372500", "145008.872500", "145010.372500", "145011.872500", "145013.372500", "145014.872500", "145016.372500", "145017.872500", "145019.372500", "145020.872500", "145022.372500", "145023.872500", "145025.372500", "145026.872500", "145028.372500", "145029.872500", "145031.372500", "145032.872500", "145034.372500", "145035.872500", "145037.372500", "145038.872500", "145040.372500", "145041.872500", "145043.372500", "145044.872500", "145046.372500", "145047.872500", "145049.372500", "145050.872500", "145052.372500", "145053.872500", "145055.372500", "145056.872500", "145058.372500", "145059.872500", "145101.372500", "145102.872500", "145104.372500", "145105.872500", "145107.372500", "145108.872500", "145110.372500", "145111.872500", "145113.372500", "145114.872500", "145116.372500", "145117.872500", "145119.372500", "145120.872500", "145122.372500", "145123.872500", "145125.372500", "145126.872500", "145128.372500", "145129.872500", "145131.372500", "145132.872500", "145134.372500", "145135.872500", "145137.372500", "145138.872500", "145140.372500", "145141.872500", "145143.372500", "145144.872500", "145146.372500", "145147.872500", "145149.372500", "145150.872500", "145152.372500", "145153.872500", "145155.372500", "145156.872500", "145158.372500", "145159.872500", "145201.372500", "145202.872500", "145204.372500", "145205.872500", "145207.372500", "145208.872500", "145210.372500", "145211.872500", "145213.372500", "145214.872500", "145216.372500", "145217.872500", "145219.372500", "145220.872500", "145222.372500", "145223.872500", "145225.372500", "145226.872500", "145228.372500", "145229.872500", "145231.372500", "145232.872500", "145234.372500", "145235.872500", "145237.372500", "145238.872500", "145240.372500", "145241.872500", "145243.372500", "145244.872500", "145246.372500", "145247.872500", "145249.372500", "145250.872500", "145252.372500", "145253.872500", "145255.372500", "145256.872500", "145258.372500", "145259.872500", "145301.372500", "145302.872500", "145304.372500", "145305.872500", "145307.372500", "145308.872500", "145310.372500", "145311.872500", "145313.372500", "145314.872500", "145316.372500", "145317.872500", "145319.372500", "145320.872500", "145322.372500", "145323.872500", "145325.372500", "145326.872500", "145328.372500", "145329.872500", "145331.372500", "145332.872500", "145334.372500", "145335.872500", "145337.372500", "145338.872500", "145340.372500", "145341.872500", "145343.372500", "145344.872500", "145346.372500", "145347.872500", "145349.372500", "145350.872500", "145352.372500", "145353.872500", "145355.372500", "145356.872500", "145358.372500", "145359.872500", "145401.372500", "145402.872500", "145404.372500", "145405.872500", "145407.372500", "145408.872500", "145410.372500", "145411.872500", "145413.372500", "145414.872500", "145416.372500", "145417.872500", "145419.372500", "145420.872500", "145422.372500", "145423.872500", "145425.372500", "145426.872500", "145428.372500", "145429.872500", "145431.372500", "145432.872500", "145434.372500", "145435.872500", "145437.372500", "145438.872500", "145440.372500", "145441.872500", "145443.372500", "145444.872500", "145446.372500", "145447.872500", "145449.372500", "145450.872500", "145452.372500", "145453.872500", "145455.372500", "145456.872500", "145458.372500", "145459.872500", "145501.372500", "145502.872500", "145504.372500", "145505.872500", "145507.372500", "145508.872500", "145510.372500", "145511.872500", "145513.372500", "145514.872500", "145516.372500", "145517.872500", "145519.372500", "145520.872500", "145522.372500", "145523.872500", "145525.372500", "145526.872500", "145528.372500", "145529.872500", "145531.372500", "145532.872500", "145534.372500", "145535.872500", "145537.372500", "145538.872500", "145540.372500", "145541.872500", "145543.372500", "145544.872500", "145546.372500", "145547.872500", "145549.372500", "145550.872500", "145552.372500", "145553.872500", "145555.372500", "145556.872500", "145558.372500", "145559.872500", "145601.372500", "145602.872500", "145604.372500", "145605.872500", "145607.372500", "145608.872500", "145610.372500", "145611.872500", "145613.372500", "145614.872500", "145616.372500", "145617.872500", "145619.372500", "145620.872500", "145622.372500", "145623.872500", "145625.372500", "145626.872500", "145628.372500", "145629.872500", "145631.372500", "145632.872500", "145634.372500", "145635.872500", "145637.372500", "145638.872500", "145640.372500", "145641.872500", "145643.372500", "145644.872500", "145646.372500", "145647.872500", "145649.372500", "145650.872500", "145652.372500", "145653.872500", "145655.372500", "145656.872500", "145658.372500", "145659.872500", "145701.372500", "145702.872500", "145704.372500", "145705.872500", "145707.372500", "145708.872500", "145710.372500", "145711.872500", "145713.372500", "145714.872500", "145716.372500", "145717.872500", "145719.372500", "145720.872500", "145722.372500", "145723.872500", "145725.372500", "145726.872500", "145728.372500", "145729.872500", "145731.372500", "145732.872500", "145734.372500", "145735.872500", "145737.372500", "145738.872500", "145740.372500", "145741.872500", "145743.372500", "145744.872500", "145746.372500", "145747.872500", "145749.372500", "145750.872500", "145752.372500", "145753.872500", "145755.372500", "145756.872500", "145758.372500", "145759.872500", "145801.372500", "145802.872500", "145804.372500", "145805.872500", "145807.372500", "145808.872500", "145810.372500", "145811.872500", "145813.372500", "145814.872500", "145816.372500", "145817.872500", "145819.372500", "145820.872500", "145822.372500", "145823.872500", "145825.372500", "145826.872500", "145828.372500", "145829.872500", "145831.372500", "145832.872500", "145834.372500", "145835.872500", "145837.372500", "145838.872500", "145840.372500", "145841.872500", "145843.372500", "145844.872500", "145846.372500", "145847.872500", "145849.372500", "145850.872500", "145852.372500", "145853.872500", "145855.372500", "145856.872500", "145858.372500", "145859.872500", "145901.372500", "145902.872500", "145904.372500", "145905.872500", "145907.372500", "145908.872500", "145910.372500", "145911.872500", "145913.372500", "145914.872500", "145916.372500", "145917.872500", "145919.372500", "145920.872500", "145922.372500", "145923.872500", "145925.372500", "145926.872500", "145928.372500", "145929.872500", "145931.372500", "145932.872500", "145934.372500", "145935.872500", "145937.372500", "145938.872500", "145940.372500", "145941.872500", "145943.372500", "145944.872500", "145946.372500", "145947.872500", "145949.372500", "145950.872500", "145952.372500", "145953.872500", "145955.372500", "145956.872500", "145958.372500", "145959.872500", "150001.372500", "150002.872500", "150004.372500", "150005.872500", "150007.372500", "150008.872500", "150010.372500", "150011.872500", "150013.372500", "150014.872500", "150016.372500", "150017.872500", "150019.372500", "150020.872500", "150022.372500", "150023.872500", "150025.372500", "150026.872500", "150028.372500", "150029.872500", "150031.372500", "150032.872500", "150034.372500", "150035.872500", "150037.372500", "150038.872500", "150040.372500", "150041.872500", "150043.372500", "150044.872500", "150046.372500", "150047.872500", "150049.372500", "150050.872500", "150052.372500", "150053.872500", "150055.372500", "150056.872500", "150058.372500", "150059.872500", "150101.372500", "150102.872500", "150104.372500", "150105.872500", "150107.372500", "150108.872500", "150110.372500", "150111.872500", "150113.372500", "150114.872500", "150116.372500", "150117.872500", "150119.372500", "150120.872500", "150122.372500", "150123.872500", "150125.372500", "150126.872500", "150128.372500", "150129.872500", "150131.372500", "150132.872500", "150134.372500", "150135.872500", "150137.372500", "150138.872500", "150140.372500", "150141.872500", "150143.372500", "150144.872500", "150146.372500", "150147.872500", "150149.372500", "150150.872500", "150152.372500", "150153.872500", "150155.372500", "150156.872500", "150158.372500", "150159.872500", "150201.372500", "150202.872500", "150204.372500", "150205.872500", "150207.372500", "150208.872500", "150210.372500", "150211.872500", "150213.372500", "150214.872500", "150216.372500", "150217.872500", "150219.372500", "150220.872500", "150222.372500", "150223.872500", "150225.372500", "150226.872500", "150228.372500", "150229.872500", "150231.372500", "150232.872500", "150234.372500", "150235.872500", "150237.372500", "150238.872500", "150240.372500", "150241.872500", "150243.372500", "150244.872500", "150246.372500", "150247.872500", "150249.372500", "150250.872500", "150252.372500", "150253.872500", "150255.372500", "150256.872500", "150258.372500", "150259.872500", "150301.372500", "150302.872500", "150304.372500", "150305.872500", "150307.372500", "150308.872500", "150310.372500", "150311.872500", "150313.372500", "150314.872500", "150316.372500", "150317.872500", "150319.372500", "150320.872500", "150322.372500", "150323.872500", "150325.372500", "150326.872500", "150328.372500", "150329.872500", "150331.372500", "150332.872500", "150334.372500", "150335.872500", "150337.372500", "150338.872500", "150340.372500", "150341.872500", "150343.372500", "150344.872500", "150346.372500", "150347.872500", "150349.372500", "150350.872500", "150352.372500", "150353.872500", "150355.372500", "150356.872500", "150358.372500", "150359.872500", "150401.372500", "150402.872500", "150404.372500", "150405.872500", "150407.372500", "150408.872500", "150410.372500", "150411.872500", "150413.372500", "150414.872500", "150416.372500", "150417.872500", "150419.372500", "150420.872500", "150422.372500", "150423.872500", "150425.372500", "150426.872500", "150428.372500", "150429.872500", "150431.372500", "150432.872500", "150434.372500", "150435.872500", "150437.372500", "150438.872500", "150440.372500", "150441.872500", "150443.372500", "150444.872500", "150446.372500", "150447.872500", "150449.372500", "150450.872500", "150452.372500", "150453.872500", "150455.372500", "150456.872500", "150458.372500", "150459.872500", "150501.372500", "150502.872500", "150504.372500", "150505.872500", "150507.372500", "150508.872500", "150510.372500", "150511.872500", "150513.372500", "150514.872500", "150516.372500", "150517.872500", "150519.372500", "150520.872500", "150522.372500", "150523.872500", "150525.372500", "150526.872500", "150528.372500", "150529.872500", "150531.372500", "150532.872500", "150534.372500", "150535.872500", "150537.372500", "150538.872500", "150540.372500", "150541.872500", "150543.372500", "150544.872500", "150546.372500", "150547.872500", "150549.372500", "150550.872500", "150552.372500", "150553.872500", "150555.372500", "150556.872500", "150558.372500", "150559.872500", "150601.372500", "150602.872500", "150604.372500", "150605.872500", "150607.372500", "150608.872500", "150610.372500", "150611.872500", "150613.372500", "150614.872500", "150616.372500", "150617.872500", "150619.372500", "150620.872500", "150622.372500", "150623.872500", "150625.372500", "150626.872500", "150628.372500", "150629.872500", "150631.372500", "150632.872500", "150634.372500", "150635.872500", "150637.372500", "150638.872500", "150640.372500", "150641.872500", "150643.372500", "150644.872500", "150646.372500", "150647.872500", "150649.372500", "150650.872500", "150652.372500", "150653.872500", "150655.372500", "150656.872500", "150658.372500", "150659.872500", "150701.372500", "150702.872500", "150704.372500", "150705.872500", "150707.372500", "150708.872500", "150710.372500", "150711.872500", "150713.372500", "150714.872500", "150716.372500", "150717.872500", "150719.372500", "150720.872500", "150722.372500", "150723.872500", "150725.372500", "150726.872500", "150728.372500", "150729.872500", "150731.372500", "150732.872500", "150734.372500", "150735.872500", "150737.372500", "150738.872500", "150740.372500", "150741.872500", "150743.372500", "150744.872500", "150746.372500", "150747.872500", "150749.372500", "150750.872500", "150752.372500", "150753.872500", "150755.372500", "150756.872500", "150758.372500", "150759.872500", "150801.372500", "150802.872500", "150804.372500", "150805.872500", "150807.372500", "150808.872500", "150810.372500", "150811.872500", "150813.372500", "150814.872500", "150816.372500", "150817.872500", "150819.372500", "150820.872500", "150822.372500", "150823.872500", "150825.372500", "150826.872500", "150828.372500", "150829.872500", "150831.372500", "150832.872500", "150834.372500", "150835.872500", "150837.372500", "150838.872500", "150840.372500", "150841.872500", "150843.372500", "150844.872500", "150846.372500", "150847.872500", "150849.372500", "150850.872500", "150852.372500", "150853.872500", "150855.372500", "150856.872500", "150858.372500", "150859.872500", "150901.372500", "150902.872500", "150904.372500", "150905.872500", "150907.372500", "150908.872500", "150910.372500", "150911.872500", "150913.372500", "150914.872500", "150916.372500", "150917.872500", "150919.372500", "150920.872500", "150922.372500", "150923.872500", "150925.372500", "150926.872500", "150928.372500", "150929.872500", "150931.372500", "150932.872500", "150934.372500", "150935.872500", "150937.372500", "150938.872500", "150940.372500", "150941.872500", "150943.372500", "150944.872500", "150946.372500", "150947.872500", "150949.372500", "150950.872500", "150952.372500", "150953.872500", "150955.372500", "150956.872500", "150958.372500", "150959.872500", "151001.372500", "151002.872500", "151004.372500", "151005.872500", "151007.372500", "151008.872500", "151010.372500", "151011.872500", "151013.372500", "151014.872500", "151016.372500", "151017.872500", "151019.372500", "151020.872500", "151022.372500", "151023.872500", "151025.372500", "151026.872500", "151028.372500", "151029.872500", "151031.372500", "151032.872500", "151034.372500", "151035.872500", "151037.372500", "151038.872500", "151040.372500", "151041.872500", "151043.372500", "151044.872500", "151046.372500", "151047.872500", "151049.372500", "151050.872500", "151052.372500", "151053.872500", "151055.372500", "151056.872500", "151058.372500", "151059.872500", "151101.372500", "151102.872500", "151104.372500", "151105.872500", "151107.372500", "151108.872500", "151110.372500", "151111.872500", "151113.372500", "151114.872500", "151116.372500", "151117.872500", "151119.372500", "151120.872500", "151122.372500", "151123.872500", "151125.372500", "151126.872500", "151128.372500", "151129.872500", "151131.372500", "151132.872500", "151134.372500", "151135.872500", "151137.372500", "151138.872500", "151140.372500", "151141.872500", "151143.372500", "151144.872500", "151146.372500", "151147.872500", "151149.372500", "151150.872500", "151152.372500", "151153.872500", "151155.372500", "151156.872500", "151158.372500", "151159.872500", "151201.372500", "151202.872500", "151204.372500", "151205.872500", "151207.372500", "151208.872500", "151210.372500", "151211.872500", "151213.372500", "151214.872500", "151216.372500", "151217.872500", "151219.372500", "151220.872500", "151222.372500", "151223.872500", "151225.372500", "151226.872500", "151228.372500", "151229.872500", "151231.372500", "151232.872500", "151234.372500", "151235.872500", "151237.372500", "151238.872500", "151240.372500", "151241.872500", "151243.372500", "151244.872500", "151246.372500", "151247.872500", "151249.372500", "151250.872500", "151252.372500", "151253.872500", "151255.372500", "151256.872500", "151258.372500", "151259.872500", "151301.372500", "151302.872500", "151304.372500", "151305.872500", "151307.372500", "151308.872500", "151310.372500", "151311.872500", "151313.372500", "151314.872500", "151316.372500", "151317.872500", "151319.372500", "151320.872500", "151322.372500", "151323.872500", "151325.372500", "151326.872500", "151328.372500", "151329.872500", "151331.372500", "151332.872500", "151334.372500", "151335.872500", "151337.372500", "151338.872500", "151340.372500", "151341.872500", "151343.372500", "151344.872500", "151346.372500", "151347.872500", "151349.372500", "151350.872500", "151352.372500", "151353.872500", "151355.372500", "151356.872500", "151358.372500", "151359.872500", "151401.372500", "151402.872500", "151404.372500", "151405.872500", "151407.372500", "151408.872500", "151410.372500", "151411.872500", "151413.372500", "