{
  "AcquisitionMatrixPE": 106,
  "AcquisitionNumber": 1,
  "AcquisitionTime": "15:26:37.342500",
  "BandwidthPerPixelPhaseEncode": 16.846,
  "BaseResolution": 106,
  "BodyPartExamined": "BRAIN",
  "CoilCombinationMethod": "Sum of Squares",
  "ConsistencyInfo": "N4_VE11C_LATEST_20160120",
  "ConversionSoftware": "dcm2niix",
  "ConversionSoftwareVersion": "v1.0.20220720",
  "DerivedVendorReportedEchoSpacing": 0.000560012,
  "DeviceSerialNumber": "166108",
  "DwellTime": 1.8e-06,
  "EchoTime": 0.0352,
  "EchoTrainLength": 106,
  "EffectiveEchoSpacing": 0.000560012,
  "FlipAngle": 60,
  "HeudiconvVersion": "1.3.0",
  "ImageComments": "Unaliased MB4/PE3/LB",
  "ImageOrientationPatientDICOM": [1, 0, 0, 0, 1, 0],
  "ImageOrientationText": "Tra",
  "ImageType": [
    "ORIGINAL",
    "PRIMARY",
    "M",
    "MB",
    "ND",
    "MOSAIC"
],
  "ImagingFrequency": 123.244,
  "InPlanePhaseEncodingDirectionDICOM": "COL",
  "InstitutionAddress": "Bedford Way 26,London,London,GB,WC1H 0AP",
  "InstitutionName": "University College",
  "InstitutionalDepartmentName": "Department",
  "MRAcquisitionType": "2D",
  "MagneticFieldStrength": 3,
  "Manufacturer": "Siemens",
  "ManufacturersModelName": "Prisma",
  "MatrixCoilMode": "SENSE",
  "Modality": "MR",
  "MultibandAccelerationFactor": 4,
  "NonlinearGradientCorrection": false,
  "PartialFourier": 1,
  "PatientPosition": "HFS",
  "PercentPhaseFOV": 100,
  "PercentSampling": 100,
  "PhaseEncodingDirection": "j-",
  "PhaseEncodingSteps": 106,
  "PhaseResolution": 1,
  "PixelBandwidth": 2620,
  "ProcedureStepDescription": "Egor^MovieProject2",
  "ProtocolName": "task-backtothefuture_run-2",
  "PulseSequenceDetails": "%CustomerSeq%\\cmrr_mbep2d_bold",
  "ReceiveCoilActiveElements": "HEA;HEP",
  "ReceiveCoilName": "Head_32",
  "ReconMatrixPE": 106,
  "RepetitionTime": 1.5,
  "SAR": 0.0733965,
  "ScanOptions": "FS\\EXT",
  "ScanningSequence": "EP",
  "SequenceName": "epfid2d1_106",
  "SequenceVariant": "SK\\SS",
  "SeriesDescription": "task-backtothefuture_run-2",
  "SeriesNumber": 7,
  "ShimSetting": [-1572, 632, 7442, 400, 14, 106, 13, -6],
  "SliceThickness": 2,
  "SliceTiming": [0, 1.0675, 0.6575, 0.245, 1.315, 0.905, 0.4925, 0.0825, 1.15, 0.74, 0.3275, 1.3975, 0.985, 0.575, 0.165, 1.2325, 0.8225, 0.41, 0, 1.0675, 0.6575, 0.245, 1.315, 0.905, 0.4925, 0.0825, 1.15, 0.74, 0.3275, 1.3975, 0.985, 0.575, 0.165, 1.2325, 0.8225, 0.41, 0, 1.0675, 0.6575, 0.245, 1.315, 0.905, 0.4925, 0.0825, 1.15, 0.74, 0.3275, 1.3975, 0.985, 0.575, 0.165, 1.2325, 0.8225, 0.41, 0, 1.0675, 0.6575, 0.245, 1.315, 0.905, 0.4925, 0.0825, 1.15, 0.74, 0.3275, 1.3975, 0.985, 0.575, 0.165, 1.2325, 0.8225, 0.41],
  "SoftwareVersions": "syngo MR E11",
  "SpacingBetweenSlices": 2,
  "StationName": "AWP166108",
  "TaskName": "backtothefuture",
  "TotalReadoutTime": 0.0588013,
  "TxRefAmp": 222.008,
  "WipMemBlock": "0657dfef-96ea-46fe-b204-b614f1daa7cc||Sequence: R016 ve11c/master r/e634e98; Dec 19 2017 11:00:25 by eja",
  "dcmmeta_affine": [
    [-2.0, 0.0, 0.0, 106.0],
    [0.0, 2.0, 0.0, -97.97590637207031],
    [0.0, 0.0, 2.0, -46.90361404418945],
    [0.0, 0.0, 0.0, 1.0]
],
  "dcmmeta_reorient_transform": [
    [0.0, -1.0, 0.0, 105.0],
    [1.0, 0.0, 0.0, 0.0],
    [0.0, 0.0, 1.0, 0.0],
    [0.0, 0.0, 0.0, 1.0]
],
  "dcmmeta_shape": [106, 106, 72, 1522],
  "dcmmeta_slice_dim": 2,
  "dcmmeta_version": 0.6,
  "global": {
    "const": {
      "AcquisitionMatrix": [106, 0, 0, 106],
      "AngioFlag": "N",
      "BitsAllocated": 16,
      "BitsStored": 16,
      "BodyPartExamined": "BRAIN",
      "CardiacNumberOfImages": 1,
      "Columns": 954,
      "EchoNumbers": 1,
      "EchoTime": 35.2,
      "EchoTrainLength": 106,
      "FlipAngle": 60.0,
      "HighBit": 15,
      "ImageOrientationPatient": [1.0, 0.0, 0.0, 0.0, 1.0, 0.0],
      "ImagePositionPatient": [-954.0, -960.02409648895, -46.903614044189],
      "ImageType": [
        "ORIGINAL",
        "PRIMARY",
        "M",
        "MB",
        "ND",
        "MOSAIC"
],
      "ImagedNucleus": "1H",
      "ImagingFrequency": 123.24369,
      "InPlanePhaseEncodingDirection": "COL",
      "MRAcquisitionType": "2D",
      "MagneticFieldStrength": 3.0,
      "Manufacturer": "SIEMENS",
      "ManufacturerModelName": "Prisma",
      "Modality": "MR",
      "NominalInterval": 0,
      "NumberOfAverages": 1.0,
      "NumberOfPhaseEncodingSteps": 106,
      "PercentPhaseFieldOfView": 100.0,
      "PercentSampling": 100.0,
      "PerformedProcedureStepStartTime": "143252.300000",
      "PhotometricInterpretation": "MONOCHROME2",
      "PixelBandwidth": 2620.0,
      "PixelRepresentation": 0,
      "PixelSpacing": [2.0, 2.0],
      "ProtocolName": "task-backtothefuture_run-2",
      "RepetitionTime": 1500.0,
      "Rows": 954,
      "SAR": 0.07339647850647,
      "SamplesPerPixel": 1,
      "ScanOptions": [
        "FS",
        "EXT"
],
      "ScanningSequence": "EP",
      "SequenceName": "epfid2d1_106",
      "SequenceVariant": [
        "SK",
        "SS"
],
      "SeriesDescription": "task-backtothefuture_run-2",
      "SeriesNumber": 7,
      "SeriesTime": "152724.452000",
      "SliceLocation": -46.903614044189,
      "SliceThickness": 2.0,
      "SmallestImagePixelValue": 0,
      "SoftwareVersions": "syngo MR E11",
      "SpacingBetweenSlices": 1.9999999462719,
      "SpecificCharacterSet": "ISO_IR 100",
      "StudyID": "1",
      "StudyTime": "143252.225000",
      "TransmitCoilName": "Body",
      "VariableFlipAngleFlag": "N",
      "WindowCenterWidthExplanation": "Algo1",
      "dBdt": 0.0},
    "slices": {}
  },
  "time": {
    "samples": {
      "AcquisitionNumber": [1, 2, 3, 4, 5, 6, 7, 8, 9, 10, 11, 12, 13, 14, 15, 16, 17, 18, 19, 20, 21, 22, 23, 24, 25, 26, 27, 28, 29, 30, 31, 32, 33, 34, 35, 36, 37, 38, 39, 40, 41, 42, 43, 44, 45, 46, 47, 48, 49, 50, 51, 52, 53, 54, 55, 56, 57, 58, 59, 60, 61, 62, 63, 64, 65, 66, 67, 68, 69, 70, 71, 72, 73, 74, 75, 76, 77, 78, 79, 80, 81, 82, 83, 84, 85, 86, 87, 88, 89, 90, 91, 92, 93, 94, 95, 96, 97, 98, 99, 100, 101, 102, 103, 104, 105, 106, 107, 108, 109, 110, 111, 112, 113, 114, 115, 116, 117, 118, 119, 120, 121, 122, 123, 124, 125, 126, 127, 128, 129, 130, 131, 132, 133, 134, 135, 136, 137, 138, 139, 140, 141, 142, 143, 144, 145, 146, 147, 148, 149, 150, 151, 152, 153, 154, 155, 156, 157, 158, 159, 160, 161, 162, 163, 164, 165, 166, 167, 168, 169, 170, 171, 172, 173, 174, 175, 176, 177, 178, 179, 180, 181, 182, 183, 184, 185, 186, 187, 188, 189, 190, 191, 192, 193, 194, 195, 196, 197, 198, 199, 200, 201, 202, 203, 204, 205, 206, 207, 208, 209, 210, 211, 212, 213, 214, 215, 216, 217, 218, 219, 220, 221, 222, 223, 224, 225, 226, 227, 228, 229, 230, 231, 232, 233, 234, 235, 236, 237, 238, 239, 240, 241, 242, 243, 244, 245, 246, 247, 248, 249, 250, 251, 252, 253, 254, 255, 256, 257, 258, 259, 260, 261, 262, 263, 264, 265, 266, 267, 268, 269, 270, 271, 272, 273, 274, 275, 276, 277, 278, 279, 280, 281, 282, 283, 284, 285, 286, 287, 288, 289, 290, 291, 292, 293, 294, 295, 296, 297, 298, 299, 300, 301, 302, 303, 304, 305, 306, 307, 308, 309, 310, 311, 312, 313, 314, 315, 316, 317, 318, 319, 320, 321, 322, 323, 324, 325, 326, 327, 328, 329, 330, 331, 332, 333, 334, 335, 336, 337, 338, 339, 340, 341, 342, 343, 344, 345, 346, 347, 348, 349, 350, 351, 352, 353, 354, 355, 356, 357, 358, 359, 360, 361, 362, 363, 364, 365, 366, 367, 368, 369, 370, 371, 372, 373, 374, 375, 376, 377, 378, 379, 380, 381, 382, 383, 384, 385, 386, 387, 388, 389, 390, 391, 392, 393, 394, 395, 396, 397, 398, 399, 400, 401, 402, 403, 404, 405, 406, 407, 408, 409, 410, 411, 412, 413, 414, 415, 416, 417, 418, 419, 420, 421, 422, 423, 424, 425, 426, 427, 428, 429, 430, 431, 432, 433, 434, 435, 436, 437, 438, 439, 440, 441, 442, 443, 444, 445, 446, 447, 448, 449, 450, 451, 452, 453, 454, 455, 456, 457, 458, 459, 460, 461, 462, 463, 464, 465, 466, 467, 468, 469, 470, 471, 472, 473, 474, 475, 476, 477, 478, 479, 480, 481, 482, 483, 484, 485, 486, 487, 488, 489, 490, 491, 492, 493, 494, 495, 496, 497, 498, 499, 500, 501, 502, 503, 504, 505, 506, 507, 508, 509, 510, 511, 512, 513, 514, 515, 516, 517, 518, 519, 520, 521, 522, 523, 524, 525, 526, 527, 528, 529, 530, 531, 532, 533, 534, 535, 536, 537, 538, 539, 540, 541, 542, 543, 544, 545, 546, 547, 548, 549, 550, 551, 552, 553, 554, 555, 556, 557, 558, 559, 560, 561, 562, 563, 564, 565, 566, 567, 568, 569, 570, 571, 572, 573, 574, 575, 576, 577, 578, 579, 580, 581, 582, 583, 584, 585, 586, 587, 588, 589, 590, 591, 592, 593, 594, 595, 596, 597, 598, 599, 600, 601, 602, 603, 604, 605, 606, 607, 608, 609, 610, 611, 612, 613, 614, 615, 616, 617, 618, 619, 620, 621, 622, 623, 624, 625, 626, 627, 628, 629, 630, 631, 632, 633, 634, 635, 636, 637, 638, 639, 640, 641, 642, 643, 644, 645, 646, 647, 648, 649, 650, 651, 652, 653, 654, 655, 656, 657, 658, 659, 660, 661, 662, 663, 664, 665, 666, 667, 668, 669, 670, 671, 672, 673, 674, 675, 676, 677, 678, 679, 680, 681, 682, 683, 684, 685, 686, 687, 688, 689, 690, 691, 692, 693, 694, 695, 696, 697, 698, 699, 700, 701, 702, 703, 704, 705, 706, 707, 708, 709, 710, 711, 712, 713, 714, 715, 716, 717, 718, 719, 720, 721, 722, 723, 724, 725, 726, 727, 728, 729, 730, 731, 732, 733, 734, 735, 736, 737, 738, 739, 740, 741, 742, 743, 744, 745, 746, 747, 748, 749, 750, 751, 752, 753, 754, 755, 756, 757, 758, 759, 760, 761, 762, 763, 764, 765, 766, 767, 768, 769, 770, 771, 772, 773, 774, 775, 776, 777, 778, 779, 780, 781, 782, 783, 784, 785, 786, 787, 788, 789, 790, 791, 792, 793, 794, 795, 796, 797, 798, 799, 800, 801, 802, 803, 804, 805, 806, 807, 808, 809, 810, 811, 812, 813, 814, 815, 816, 817, 818, 819, 820, 821, 822, 823, 824, 825, 826, 827, 828, 829, 830, 831, 832, 833, 834, 835, 836, 837, 838, 839, 840, 841, 842, 843, 844, 845, 846, 847, 848, 849, 850, 851, 852, 853, 854, 855, 856, 857, 858, 859, 860, 861, 862, 863, 864, 865, 866, 867, 868, 869, 870, 871, 872, 873, 874, 875, 876, 877, 878, 879, 880, 881, 882, 883, 884, 885, 886, 887, 888, 889, 890, 891, 892, 893, 894, 895, 896, 897, 898, 899, 900, 901, 902, 903, 904, 905, 906, 907, 908, 909, 910, 911, 912, 913, 914, 915, 916, 917, 918, 919, 920, 921, 922, 923, 924, 925, 926, 927, 928, 929, 930, 931, 932, 933, 934, 935, 936, 937, 938, 939, 940, 941, 942, 943, 944, 945, 946, 947, 948, 949, 950, 951, 952, 953, 954, 955, 956, 957, 958, 959, 960, 961, 962, 963, 964, 965, 966, 967, 968, 969, 970, 971, 972, 973, 974, 975, 976, 977, 978, 979, 980, 981, 982, 983, 984, 985, 986, 987, 988, 989, 990, 991, 992, 993, 994, 995, 996, 997, 998, 999, 1000, 1001, 1002, 1003, 1004, 1005, 1006, 1007, 1008, 1009, 1010, 1011, 1012, 1013, 1014, 1015, 1016, 1017, 1018, 1019, 1020, 1021, 1022, 1023, 1024, 1025, 1026, 1027, 1028, 1029, 1030, 1031, 1032, 1033, 1034, 1035, 1036, 1037, 1038, 1039, 1040, 1041, 1042, 1043, 1044, 1045, 1046, 1047, 1048, 1049, 1050, 1051, 1052, 1053, 1054, 1055, 1056, 1057, 1058, 1059, 1060, 1061, 1062, 1063, 1064, 1065, 1066, 1067, 1068, 1069, 1070, 1071, 1072, 1073, 1074, 1075, 1076, 1077, 1078, 1079, 1080, 1081, 1082, 1083, 1084, 1085, 1086, 1087, 1088, 1089, 1090, 1091, 1092, 1093, 1094, 1095, 1096, 1097, 1098, 1099, 1100, 1101, 1102, 1103, 1104, 1105, 1106, 1107, 1108, 1109, 1110, 1111, 1112, 1113, 1114, 1115, 1116, 1117, 1118, 1119, 1120, 1121, 1122, 1123, 1124, 1125, 1126, 1127, 1128, 1129, 1130, 1131, 1132, 1133, 1134, 1135, 1136, 1137, 1138, 1139, 1140, 1141, 1142, 1143, 1144, 1145, 1146, 1147, 1148, 1149, 1150, 1151, 1152, 1153, 1154, 1155, 1156, 1157, 1158, 1159, 1160, 1161, 1162, 1163, 1164, 1165, 1166, 1167, 1168, 1169, 1170, 1171, 1172, 1173, 1174, 1175, 1176, 1177, 1178, 1179, 1180, 1181, 1182, 1183, 1184, 1185, 1186, 1187, 1188, 1189, 1190, 1191, 1192, 1193, 1194, 1195, 1196, 1197, 1198, 1199, 1200, 1201, 1202, 1203, 1204, 1205, 1206, 1207, 1208, 1209, 1210, 1211, 1212, 1213, 1214, 1215, 1216, 1217, 1218, 1219, 1220, 1221, 1222, 1223, 1224, 1225, 1226, 1227, 1228, 1229, 1230, 1231, 1232, 1233, 1234, 1235, 1236, 1237, 1238, 1239, 1240, 1241, 1242, 1243, 1244, 1245, 1246, 1247, 1248, 1249, 1250, 1251, 1252, 1253, 1254, 1255, 1256, 1257, 1258, 1259, 1260, 1261, 1262, 1263, 1264, 1265, 1266, 1267, 1268, 1269, 1270, 1271, 1272, 1273, 1274, 1275, 1276, 1277, 1278, 1279, 1280, 1281, 1282, 1283, 1284, 1285, 1286, 1287, 1288, 1289, 1290, 1291, 1292, 1293, 1294, 1295, 1296, 1297, 1298, 1299, 1300, 1301, 1302, 1303, 1304, 1305, 1306, 1307, 1308, 1309, 1310, 1311, 1312, 1313, 1314, 1315, 1316, 1317, 1318, 1319, 1320, 1321, 1322, 1323, 1324, 1325, 1326, 1327, 1328, 1329, 1330, 1331, 1332, 1333, 1334, 1335, 1336, 1337, 1338, 1339, 1340, 1341, 1342, 1343, 1344, 1345, 1346, 1347, 1348, 1349, 1350, 1351, 1352, 1353, 1354, 1355, 1356, 1357, 1358, 1359, 1360, 1361, 1362, 1363, 1364, 1365, 1366, 1367, 1368, 1369, 1370, 1371, 1372, 1373, 1374, 1375, 1376, 1377, 1378, 1379, 1380, 1381, 1382, 1383, 1384, 1385, 1386, 1387, 1388, 1389, 1390, 1391, 1392, 1393, 1394, 1395, 1396, 1397, 1398, 1399, 1400, 1401, 1402, 1403, 1404, 1405, 1406, 1407, 1408, 1409, 1410, 1411, 1412, 1413, 1414, 1415, 1416, 1417, 1418, 1419, 1420, 1421, 1422, 1423, 1424, 1425, 1426, 1427, 1428, 1429, 1430, 1431, 1432, 1433, 1434, 1435, 1436, 1437, 1438, 1439, 1440, 1441, 1442, 1443, 1444, 1445, 1446, 1447, 1448, 1449, 1450, 1451, 1452, 1453, 1454, 1455, 1456, 1457, 1458, 1459, 1460, 1461, 1462, 1463, 1464, 1465, 1466, 1467, 1468, 1469, 1470, 1471, 1472, 1473, 1474, 1475, 1476, 1477, 1478, 1479, 1480, 1481, 1482, 1483, 1484, 1485, 1486, 1487, 1488, 1489, 1490, 1491, 1492, 1493, 1494, 1495, 1496, 1497, 1498, 1499, 1500, 1501, 1502, 1503, 1504, 1505, 1506, 1507, 1508, 1509, 1510, 1511, 1512, 1513, 1514, 1515, 1516, 1517, 1518, 1519, 1520, 1521, 1522],
      "AcquisitionTime": ["152637.342500", "152638.842500", "152640.342500", "152641.842500", "152643.342500", "152644.842500", "152646.342500", "152647.842500", "152649.342500", "152650.842500", "152652.342500", "152653.842500", "152655.342500", "152656.842500", "152658.342500", "152659.842500", "152701.342500", "152702.842500", "152704.342500", "152705.842500", "152707.342500", "152708.842500", "152710.342500", "152711.842500", "152713.342500", "152714.842500", "152716.342500", "152717.842500", "152719.342500", "152720.842500", "152722.342500", "152723.842500", "152725.342500", "152726.842500", "152728.342500", "152729.842500", "152731.342500", "152732.842500", "152734.342500", "152735.842500", "152737.342500", "152738.842500", "152740.342500", "152741.842500", "152743.342500", "152744.842500", "152746.342500", "152747.842500", "152749.342500", "152750.842500", "152752.342500", "152753.842500", "152755.342500", "152756.842500", "152758.342500", "152759.842500", "152801.342500", "152802.842500", "152804.342500", "152805.842500", "152807.342500", "152808.842500", "152810.342500", "152811.842500", "152813.342500", "152814.842500", "152816.342500", "152817.842500", "152819.342500", "152820.842500", "152822.342500", "152823.842500", "152825.342500", "152826.842500", "152828.342500", "152829.842500", "152831.342500", "152832.842500", "152834.342500", "152835.842500", "152837.342500", "152838.842500", "152840.342500", "152841.842500", "152843.342500", "152844.842500", "152846.342500", "152847.842500", "152849.342500", "152850.842500", "152852.342500", "152853.842500", "152855.342500", "152856.842500", "152858.342500", "152859.842500", "152901.342500", "152902.842500", "152904.342500", "152905.842500", "152907.342500", "152908.842500", "152910.342500", "152911.842500", "152913.342500", "152914.842500", "152916.342500", "152917.842500", "152919.342500", "152920.842500", "152922.342500", "152923.842500", "152925.342500", "152926.842500", "152928.342500", "152929.842500", "152931.342500", "152932.842500", "152934.342500", "152935.842500", "152937.342500", "152938.842500", "152940.342500", "152941.842500", "152943.342500", "152944.842500", "152946.342500", "152947.842500", "152949.342500", "152950.842500", "152952.342500", "152953.842500", "152955.342500", "152956.842500", "152958.342500", "152959.842500", "153001.342500", "153002.842500", "153004.342500", "153005.842500", "153007.342500", "153008.842500", "153010.342500", "153011.842500", "153013.342500", "153014.842500", "153016.342500", "153017.842500", "153019.342500", "153020.842500", "153022.342500", "153023.842500", "153025.342500", "153026.842500", "153028.342500", "153029.842500", "153031.342500", "153032.842500", "153034.342500", "153035.842500", "153037.342500", "153038.842500", "153040.342500", "153041.842500", "153043.342500", "153044.842500", "153046.342500", "153047.842500", "153049.342500", "153050.842500", "153052.342500", "153053.842500", "153055.342500", "153056.842500", "153058.342500", "153059.842500", "153101.342500", "153102.842500", "153104.342500", "153105.842500", "153107.342500", "153108.842500", "153110.342500", "153111.842500", "153113.342500", "153114.842500", "153116.342500", "153117.842500", "153119.342500", "153120.842500", "153122.342500", "153123.842500", "153125.342500", "153126.842500", "153128.342500", "153129.842500", "153131.342500", "153132.842500", "153134.342500", "153135.842500", "153137.342500", "153138.842500", "153140.342500", "153141.842500", "153143.342500", "153144.842500", "153146.342500", "153147.842500", "153149.342500", "153150.842500", "153152.342500", "153153.842500", "153155.342500", "153156.842500", "153158.342500", "153159.842500", "153201.342500", "153202.842500", "153204.342500", "153205.842500", "153207.342500", "153208.842500", "153210.342500", "153211.842500", "153213.342500", "153214.842500", "153216.342500", "153217.842500", "153219.342500", "153220.842500", "153222.342500", "153223.842500", "153225.342500", "153226.842500", "153228.342500", "153229.842500", "153231.342500", "153232.842500", "153234.342500", "153235.842500", "153237.342500", "153238.842500", "153240.342500", "153241.842500", "153243.342500", "153244.842500", "153246.342500", "153247.842500", "153249.342500", "153250.842500", "153252.342500", "153253.842500", "153255.342500", "153256.842500", "153258.342500", "153259.842500", "153301.342500", "153302.842500", "153304.342500", "153305.842500", "153307.342500", "153308.842500", "153310.342500", "153311.842500", "153313.342500", "153314.842500", "153316.342500", "153317.842500", "153319.342500", "153320.842500", "153322.342500", "153323.842500", "153325.342500", "153326.842500", "153328.342500", "153329.842500", "153331.342500", "153332.842500", "153334.342500", "153335.842500", "153337.342500", "153338.842500", "153340.342500", "153341.842500", "153343.342500", "153344.842500", "153346.342500", "153347.842500", "153349.342500", "153350.842500", "153352.342500", "153353.842500", "153355.342500", "153356.842500", "153358.342500", "153359.842500", "153401.342500", "153402.842500", "153404.342500", "153405.842500", "153407.342500", "153408.842500", "153410.342500", "153411.842500", "153413.342500", "153414.842500", "153416.342500", "153417.842500", "153419.342500", "153420.842500", "153422.342500", "153423.842500", "153425.342500", "153426.842500", "153428.342500", "153429.842500", "153431.342500", "153432.842500", "153434.342500", "153435.842500", "153437.342500", "153438.842500", "153440.342500", "153441.842500", "153443.342500", "153444.842500", "153446.342500", "153447.842500", "153449.342500", "153450.842500", "153452.342500", "153453.842500", "153455.342500", "153456.842500", "153458.342500", "153459.842500", "153501.342500", "153502.842500", "153504.342500", "153505.842500", "153507.342500", "153508.842500", "153510.342500", "153511.842500", "153513.342500", "153514.842500", "153516.342500", "153517.842500", "153519.342500", "153520.842500", "153522.342500", "153523.842500", "153525.342500", "153526.842500", "153528.342500", "153529.842500", "153531.342500", "153532.842500", "153534.342500", "153535.842500", "153537.342500", "153538.842500", "153540.342500", "153541.842500", "153543.342500", "153544.842500", "153546.342500", "153547.842500", "153549.342500", "153550.842500", "153552.342500", "153553.842500", "153555.342500", "153556.842500", "153558.342500", "153559.842500", "153601.342500", "153602.842500", "153604.342500", "153605.842500", "153607.342500", "153608.842500", "153610.342500", "153611.842500", "153613.342500", "153614.842500", "153616.342500", "153617.842500", "153619.342500", "153620.842500", "153622.342500", "153623.842500", "153625.342500", "153626.842500", "153628.342500", "153629.842500", "153631.342500", "153632.842500", "153634.342500", "153635.842500", "153637.342500", "153638.842500", "153640.342500", "153641.842500", "153643.342500", "153644.842500", "153646.342500", "153647.842500", "153649.342500", "153650.842500", "153652.342500", "153653.842500", "153655.342500", "153656.842500", "153658.342500", "153659.842500", "153701.342500", "153702.842500", "153704.342500", "153705.842500", "153707.342500", "153708.842500", "153710.342500", "153711.842500", "153713.342500", "153714.842500", "153716.342500", "153717.842500", "153719.342500", "153720.842500", "153722.342500", "153723.842500", "153725.342500", "153726.842500", "153728.342500", "153729.842500", "153731.342500", "153732.842500", "153734.342500", "153735.842500", "153737.342500", "153738.842500", "153740.342500", "153741.842500", "153743.342500", "153744.842500", "153746.342500", "153747.842500", "153749.342500", "153750.842500", "153752.342500", "153753.842500", "153755.342500", "153756.842500", "153758.342500", "153759.842500", "153801.342500", "153802.842500", "153804.342500", "153805.842500", "153807.342500", "153808.842500", "153810.342500", "153811.842500", "153813.342500", "153814.842500", "153816.342500", "153817.842500", "153819.342500", "153820.842500", "153822.342500", "153823.842500", "153825.342500", "153826.842500", "153828.342500", "153829.842500", "153831.342500", "153832.842500", "153834.342500", "153835.842500", "153837.342500", "153838.842500", "153840.342500", "153841.842500", "153843.342500", "153844.842500", "153846.342500", "153847.842500", "153849.342500", "153850.842500", "153852.342500", "153853.842500", "153855.342500", "153856.842500", "153858.342500", "153859.842500", "153901.342500", "153902.842500", "153904.342500", "153905.842500", "153907.342500", "153908.842500", "153910.342500", "153911.842500", "153913.342500", "153914.842500", "153916.342500", "153917.842500", "153919.342500", "153920.842500", "153922.342500", "153923.842500", "153925.342500", "153926.842500", "153928.342500", "153929.842500", "153931.342500", "153932.842500", "153934.342500", "153935.842500", "153937.342500", "153938.842500", "153940.342500", "153941.842500", "153943.342500", "153944.842500", "153946.342500", "153947.842500", "153949.342500", "153950.842500", "153952.342500", "153953.842500", "153955.342500", "153956.842500", "153958.342500", "153959.842500", "154001.342500", "154002.842500", "154004.342500", "154005.842500", "154007.342500", "154008.842500", "154010.342500", "154011.842500", "154013.342500", "154014.842500", "154016.342500", "154017.842500", "154019.342500", "154020.842500", "154022.342500", "154023.842500", "154025.342500", "154026.842500", "154028.342500", "154029.842500", "154031.342500", "154032.842500", "154034.342500", "154035.842500", "154037.342500", "154038.842500", "154040.342500", "154041.842500", "154043.342500", "154044.842500", "154046.342500", "154047.842500", "154049.342500", "154050.842500", "154052.342500", "154053.842500", "154055.342500", "154056.842500", "154058.342500", "154059.842500", "154101.342500", "154102.842500", "154104.342500", "154105.842500", "154107.342500", "154108.842500", "154110.342500", "154111.842500", "154113.342500", "154114.842500", "154116.342500", "154117.842500", "154119.342500", "154120.842500", "154122.342500", "154123.842500", "154125.342500", "154126.842500", "154128.342500", "154129.842500", "154131.342500", "154132.842500", "154134.342500", "154135.842500", "154137.342500", "154138.842500", "154140.342500", "154141.842500", "154143.342500", "154144.842500", "154146.342500", "154147.842500", "154149.342500", "154150.842500", "154152.342500", "154153.842500", "154155.342500", "154156.842500", "154158.342500", "154159.842500", "154201.342500", "154202.842500", "154204.342500", "154205.842500", "154207.342500", "154208.842500", "154210.342500", "154211.842500", "154213.342500", "154214.842500", "154216.342500", "154217.842500", "154219.342500", "154220.842500", "154222.342500", "154223.842500", "154225.342500", "154226.842500", "154228.342500", "154229.842500", "154231.342500", "154232.842500", "154234.342500", "154235.842500", "154237.342500", "154238.842500", "154240.342500", "154241.842500", "154243.342500", "154244.842500", "154246.342500", "154247.842500", "154249.342500", "154250.842500", "154252.342500", "154253.842500", "154255.342500", "154256.842500", "154258.342500", "154259.842500", "154301.342500", "154302.842500", "154304.342500", "154305.842500", "154307.342500", "154308.842500", "154310.342500", "154311.842500", "154313.342500", "154314.842500", "154316.342500", "154317.842500", "154319.342500", "154320.842500", "154322.342500", "154323.842500", "154325.342500", "154326.842500", "154328.342500", "154329.842500", "154331.342500", "154332.842500", "154334.342500", "154335.842500", "154337.342500", "154338.842500", "154340.342500", "154341.842500", "154343.342500", "154344.842500", "154346.342500", "154347.842500", "154349.342500", "154350.842500", "154352.342500", "154353.842500", "154355.342500", "154356.842500", "154358.342500", "154359.842500", "154401.342500", "154402.842500", "154404.342500", "154405.842500", "154407.342500", "154408.842500", "154410.342500", "154411.842500", "154413.342500", "154414.842500", "154416.342500", "154417.842500", "154419.342500", "154420.842500", "154422.342500", "154423.842500", "154425.342500", "154426.842500", "154428.342500", "154429.842500", "154431.342500", "154432.842500", "154434.342500", "154435.842500", "154437.342500", "154438.842500", "154440.342500", "154441.842500", "154443.342500", "154444.842500", "154446.342500", "154447.842500", "154449.342500", "154450.842500", "154452.342500", "154453.842500", "154455.342500", "154456.842500", "154458.342500", "154459.842500", "154501.342500", "154502.842500", "154504.342500", "154505.842500", "154507.342500", "154508.842500", "154510.342500", "154511.842500", "154513.342500", "154514.842500", "154516.342500", "154517.842500", "154519.342500", "154520.842500", "154522.342500", "154523.842500", "154525.342500", "154526.842500", "154528.342500", "154529.842500", "154531.342500", "154532.842500", "154534.342500", "154535.842500", "154537.342500", "154538.842500", "154540.342500", "154541.842500", "154543.342500", "154544.842500", "154546.342500", "154547.842500", "154549.342500", "154550.842500", "154552.342500", "154553.842500", "154555.342500", "154556.842500", "154558.342500", "154559.842500", "154601.342500", "154602.842500", "154604.342500", "154605.842500", "154607.342500", "154608.842500", "154610.342500", "154611.842500", "154613.342500", "154614.842500", "154616.342500", "154617.842500", "154619.342500", "154620.842500", "154622.342500", "154623.842500", "154625.342500", "154626.842500", "154628.342500", "154629.842500", "154631.342500", "154632.842500", "154634.342500", "154635.842500", "154637.342500", "154638.842500", "154640.342500", "154641.842500", "154643.342500", "154644.842500", "154646.342500", "154647.842500", "154649.342500", "154650.842500", "154652.342500", "154653.842500", "154655.342500", "154656.842500", "154658.342500", "154659.842500", "154701.342500", "154702.842500", "154704.342500", "154705.842500", "154707.342500", "154708.842500", "154710.342500", "154711.842500", "154713.342500", "154714.842500", "154716.342500", "154717.842500", "154719.342500", "154720.842500", "154722.342500", "154723.842500", "154725.342500", "154726.842500", "154728.342500", "154729.842500", "154731.342500", "154732.842500", "154734.342500", "154735.842500", "154737.342500", "154738.842500", "154740.342500", "154741.842500", "154743.342500", "154744.842500", "154746.342500", "154747.842500", "154749.342500", "154750.842500", "154752.342500", "154753.842500", "154755.342500", "154756.842500", "154758.342500", "154759.842500", "154801.342500", "154802.842500", "154804.342500", "154805.842500", "154807.342500", "154808.842500", "154810.342500", "154811.842500", "154813.342500", "154814.842500", "154816.342500", "154817.842500", "154819.342500", "154820.842500", "154822.342500", "154823.842500", "154825.342500", "154826.842500", "154828.342500", "154829.842500", "154831.342500", "154832.842500", "154834.342500", "154835.842500", "154837.342500", "154838.842500", "154840.342500", "154841.842500", "154843.342500", "154844.842500", "154846.342500", "154847.842500", "154849.342500", "154850.842500", "154852.342500", "154853.842500", "154855.342500", "154856.842500", "154858.342500", "154859.842500", "154901.342500", "154902.842500", "154904.342500", "154905.842500", "154907.342500", "154908.842500", "154910.342500", "154911.842500", "154913.342500", "154914.842500", "154916.342500", "154917.842500", "154919.342500", "154920.842500", "154922.342500", "154923.842500", "154925.342500", "154926.842500", "154928.342500", "154929.842500", "154931.342500", "154932.842500", "154934.342500", "154935.842500", "154937.342500", "154938.842500", "154940.342500", "154941.842500", "154943.342500", "154944.842500", "154946.342500", "154947.842500", "154949.342500", "154950.842500", "154952.342500", "154953.842500", "154955.342500", "154956.842500", "154958.342500", "154959.842500", "155001.342500", "155002.842500", "155004.342500", "155005.842500", "155007.342500", "155008.842500", "155010.342500", "155011.842500", "155013.342500", "155014.842500", "155016.342500", "155017.842500", "155019.342500", "155020.842500", "155022.342500", "155023.842500", "155025.342500", "155026.842500", "155028.342500", "155029.842500", "155031.342500", "155032.842500", "155034.342500", "155035.842500", "155037.