{
  "AcquisitionMatrixPE": 106,
  "AcquisitionNumber": 1,
  "AcquisitionTime": "16:11:16.825000",
  "BandwidthPerPixelPhaseEncode": 16.846,
  "BaseResolution": 106,
  "BodyPartExamined": "BRAIN",
  "CoilCombinationMethod": "Sum of Squares",
  "ConsistencyInfo": "N4_VE11C_LATEST_20160120",
  "ConversionSoftware": "dcm2niix",
  "ConversionSoftwareVersion": "v1.0.20220720",
  "DerivedVendorReportedEchoSpacing": 0.000560012,
  "DeviceSerialNumber": "166108",
  "DwellTime": 1.8e-06,
  "EchoTime": 0.0352,
  "EchoTrainLength": 106,
  "EffectiveEchoSpacing": 0.000560012,
  "FlipAngle": 60,
  "HeudiconvVersion": "1.3.0",
  "ImageComments": "Unaliased MB4/PE3/LB",
  "ImageOrientationPatientDICOM": [1, 0, 0, 0, 1, 0],
  "ImageOrientationText": "Tra",
  "ImageType": [
    "ORIGINAL",
    "PRIMARY",
    "M",
    "MB",
    "ND",
    "MOSAIC"
],
  "ImagingFrequency": 123.244,
  "InPlanePhaseEncodingDirectionDICOM": "COL",
  "InstitutionAddress": "Bedford Way 26,London,London,GB,WC1H 0AP",
  "InstitutionName": "University College",
  "InstitutionalDepartmentName": "Department",
  "MRAcquisitionType": "2D",
  "MagneticFieldStrength": 3,
  "Manufacturer": "Siemens",
  "ManufacturersModelName": "Prisma",
  "MatrixCoilMode": "SENSE",
  "Modality": "MR",
  "MultibandAccelerationFactor": 4,
  "NonlinearGradientCorrection": false,
  "PartialFourier": 1,
  "PatientPosition": "HFS",
  "PercentPhaseFOV": 100,
  "PercentSampling": 100,
  "PhaseEncodingDirection": "j-",
  "PhaseEncodingSteps": 106,
  "PhaseResolution": 1,
  "PixelBandwidth": 2620,
  "ProcedureStepDescription": "Egor^MovieProject2",
  "ProtocolName": "task-backtothefuture_run-3",
  "PulseSequenceDetails": "%CustomerSeq%\\cmrr_mbep2d_bold",
  "ReceiveCoilActiveElements": "HEA;HEP",
  "ReceiveCoilName": "Head_32",
  "ReconMatrixPE": 106,
  "RepetitionTime": 1.5,
  "SAR": 0.0734028,
  "ScanOptions": "FS\\EXT",
  "ScanningSequence": "EP",
  "SequenceName": "epfid2d1_106",
  "SequenceVariant": "SK\\SS",
  "SeriesDescription": "task-backtothefuture_run-3",
  "SeriesNumber": 11,
  "ShimSetting": [-1572, 632, 7442, 400, 14, 106, 13, -6],
  "SliceThickness": 2,
  "SliceTiming": [0, 1.07, 0.6575, 0.2475, 1.315, 0.905, 0.495, 0.0825, 1.1525, 0.74, 0.33, 1.3975, 0.9875, 0.575, 0.165, 1.235, 0.8225, 0.4125, 0, 1.07, 0.6575, 0.2475, 1.315, 0.905, 0.495, 0.0825, 1.1525, 0.74, 0.33, 1.3975, 0.9875, 0.575, 0.165, 1.235, 0.8225, 0.4125, 0, 1.07, 0.6575, 0.2475, 1.315, 0.905, 0.495, 0.0825, 1.1525, 0.74, 0.33, 1.3975, 0.9875, 0.575, 0.165, 1.235, 0.8225, 0.4125, 0, 1.07, 0.6575, 0.2475, 1.315, 0.905, 0.495, 0.0825, 1.1525, 0.74, 0.33, 1.3975, 0.9875, 0.575, 0.165, 1.235, 0.8225, 0.4125],
  "SoftwareVersions": "syngo MR E11",
  "SpacingBetweenSlices": 2,
  "StationName": "AWP166108",
  "TaskName": "backtothefuture",
  "TotalReadoutTime": 0.0588013,
  "TxRefAmp": 222.008,
  "WipMemBlock": "b15a4db2-cef3-4f8b-a688-17907b395f08||Sequence: R016 ve11c/master r/e634e98; Dec 19 2017 11:00:25 by eja",
  "dcmmeta_affine": [
    [-2.0, 0.0, 0.0, 106.0],
    [0.0, 2.0, 0.0, -97.97590637207031],
    [0.0, 0.0, 2.0, -46.90361404418945],
    [0.0, 0.0, 0.0, 1.0]
],
  "dcmmeta_reorient_transform": [
    [0.0, -1.0, 0.0, 105.0],
    [1.0, 0.0, 0.0, 0.0],
    [0.0, 0.0, 1.0, 0.0],
    [0.0, 0.0, 0.0, 1.0]
],
  "dcmmeta_shape": [106, 106, 72, 1608],
  "dcmmeta_slice_dim": 2,
  "dcmmeta_version": 0.6,
  "global": {
    "const": {
      "AcquisitionMatrix": [106, 0, 0, 106],
      "AngioFlag": "N",
      "BitsAllocated": 16,
      "BitsStored": 16,
      "BodyPartExamined": "BRAIN",
      "CardiacNumberOfImages": 1,
      "Columns": 954,
      "EchoNumbers": 1,
      "EchoTime": 35.2,
      "EchoTrainLength": 106,
      "FlipAngle": 60.0,
      "HighBit": 15,
      "ImageOrientationPatient": [1.0, 0.0, 0.0, 0.0, 1.0, 0.0],
      "ImagePositionPatient": [-954.0, -960.02409648895, -46.903614044189],
      "ImageType": [
        "ORIGINAL",
        "PRIMARY",
        "M",
        "MB",
        "ND",
        "MOSAIC"
],
      "ImagedNucleus": "1H",
      "ImagingFrequency": 123.243706,
      "InPlanePhaseEncodingDirection": "COL",
      "MRAcquisitionType": "2D",
      "MagneticFieldStrength": 3.0,
      "Manufacturer": "SIEMENS",
      "ManufacturerModelName": "Prisma",
      "Modality": "MR",
      "NominalInterval": 0,
      "NumberOfAverages": 1.0,
      "NumberOfPhaseEncodingSteps": 106,
      "PercentPhaseFieldOfView": 100.0,
      "PercentSampling": 100.0,
      "PerformedProcedureStepStartTime": "143252.300000",
      "PhotometricInterpretation": "MONOCHROME2",
      "PixelBandwidth": 2620.0,
      "PixelRepresentation": 0,
      "PixelSpacing": [2.0, 2.0],
      "ProtocolName": "task-backtothefuture_run-3",
      "RepetitionTime": 1500.0,
      "Rows": 954,
      "SAR": 0.07340279379785,
      "SamplesPerPixel": 1,
      "ScanOptions": [
        "FS",
        "EXT"
],
      "ScanningSequence": "EP",
      "SequenceName": "epfid2d1_106",
      "SequenceVariant": [
        "SK",
        "SS"
],
      "SeriesDescription": "task-backtothefuture_run-3",
      "SeriesNumber": 11,
      "SeriesTime": "161201.839000",
      "SliceLocation": -46.903614044189,
      "SliceThickness": 2.0,
      "SmallestImagePixelValue": 0,
      "SoftwareVersions": "syngo MR E11",
      "SpacingBetweenSlices": 1.9999999462719,
      "SpecificCharacterSet": "ISO_IR 100",
      "StudyID": "1",
      "StudyTime": "143252.225000",
      "TransmitCoilName": "Body",
      "VariableFlipAngleFlag": "N",
      "WindowCenterWidthExplanation": "Algo1",
      "dBdt": 0.0},
    "slices": {}
  },
  "time": {
    "samples": {
      "AcquisitionNumber": [1, 2, 3, 4, 5, 6, 7, 8, 9, 10, 11, 12, 13, 14, 15, 16, 17, 18, 19, 20, 21, 22, 23, 24, 25, 26, 27, 28, 29, 30, 31, 32, 33, 34, 35, 36, 37, 38, 39, 40, 41, 42, 43, 44, 45, 46, 47, 48, 49, 50, 51, 52, 53, 54, 55, 56, 57, 58, 59, 60, 61, 62, 63, 64, 65, 66, 67, 68, 69, 70, 71, 72, 73, 74, 75, 76, 77, 78, 79, 80, 81, 82, 83, 84, 85, 86, 87, 88, 89, 90, 91, 92, 93, 94, 95, 96, 97, 98, 99, 100, 101, 102, 103, 104, 105, 106, 107, 108, 109, 110, 111, 112, 113, 114, 115, 116, 117, 118, 119, 120, 121, 122, 123, 124, 125, 126, 127, 128, 129, 130, 131, 132, 133, 134, 135, 136, 137, 138, 139, 140, 141, 142, 143, 144, 145, 146, 147, 148, 149, 150, 151, 152, 153, 154, 155, 156, 157, 158, 159, 160, 161, 162, 163, 164, 165, 166, 167, 168, 169, 170, 171, 172, 173, 174, 175, 176, 177, 178, 179, 180, 181, 182, 183, 184, 185, 186, 187, 188, 189, 190, 191, 192, 193, 194, 195, 196, 197, 198, 199, 200, 201, 202, 203, 204, 205, 206, 207, 208, 209, 210, 211, 212, 213, 214, 215, 216, 217, 218, 219, 220, 221, 222, 223, 224, 225, 226, 227, 228, 229, 230, 231, 232, 233, 234, 235, 236, 237, 238, 239, 240, 241, 242, 243, 244, 245, 246, 247, 248, 249, 250, 251, 252, 253, 254, 255, 256, 257, 258, 259, 260, 261, 262, 263, 264, 265, 266, 267, 268, 269, 270, 271, 272, 273, 274, 275, 276, 277, 278, 279, 280, 281, 282, 283, 284, 285, 286, 287, 288, 289, 290, 291, 292, 293, 294, 295, 296, 297, 298, 299, 300, 301, 302, 303, 304, 305, 306, 307, 308, 309, 310, 311, 312, 313, 314, 315, 316, 317, 318, 319, 320, 321, 322, 323, 324, 325, 326, 327, 328, 329, 330, 331, 332, 333, 334, 335, 336, 337, 338, 339, 340, 341, 342, 343, 344, 345, 346, 347, 348, 349, 350, 351, 352, 353, 354, 355, 356, 357, 358, 359, 360, 361, 362, 363, 364, 365, 366, 367, 368, 369, 370, 371, 372, 373, 374, 375, 376, 377, 378, 379, 380, 381, 382, 383, 384, 385, 386, 387, 388, 389, 390, 391, 392, 393, 394, 395, 396, 397, 398, 399, 400, 401, 402, 403, 404, 405, 406, 407, 408, 409, 410, 411, 412, 413, 414, 415, 416, 417, 418, 419, 420, 421, 422, 423, 424, 425, 426, 427, 428, 429, 430, 431, 432, 433, 434, 435, 436, 437, 438, 439, 440, 441, 442, 443, 444, 445, 446, 447, 448, 449, 450, 451, 452, 453, 454, 455, 456, 457, 458, 459, 460, 461, 462, 463, 464, 465, 466, 467, 468, 469, 470, 471, 472, 473, 474, 475, 476, 477, 478, 479, 480, 481, 482, 483, 484, 485, 486, 487, 488, 489, 490, 491, 492, 493, 494, 495, 496, 497, 498, 499, 500, 501, 502, 503, 504, 505, 506, 507, 508, 509, 510, 511, 512, 513, 514, 515, 516, 517, 518, 519, 520, 521, 522, 523, 524, 525, 526, 527, 528, 529, 530, 531, 532, 533, 534, 535, 536, 537, 538, 539, 540, 541, 542, 543, 544, 545, 546, 547, 548, 549, 550, 551, 552, 553, 554, 555, 556, 557, 558, 559, 560, 561, 562, 563, 564, 565, 566, 567, 568, 569, 570, 571, 572, 573, 574, 575, 576, 577, 578, 579, 580, 581, 582, 583, 584, 585, 586, 587, 588, 589, 590, 591, 592, 593, 594, 595, 596, 597, 598, 599, 600, 601, 602, 603, 604, 605, 606, 607, 608, 609, 610, 611, 612, 613, 614, 615, 616, 617, 618, 619, 620, 621, 622, 623, 624, 625, 626, 627, 628, 629, 630, 631, 632, 633, 634, 635, 636, 637, 638, 639, 640, 641, 642, 643, 644, 645, 646, 647, 648, 649, 650, 651, 652, 653, 654, 655, 656, 657, 658, 659, 660, 661, 662, 663, 664, 665, 666, 667, 668, 669, 670, 671, 672, 673, 674, 675, 676, 677, 678, 679, 680, 681, 682, 683, 684, 685, 686, 687, 688, 689, 690, 691, 692, 693, 694, 695, 696, 697, 698, 699, 700, 701, 702, 703, 704, 705, 706, 707, 708, 709, 710, 711, 712, 713, 714, 715, 716, 717, 718, 719, 720, 721, 722, 723, 724, 725, 726, 727, 728, 729, 730, 731, 732, 733, 734, 735, 736, 737, 738, 739, 740, 741, 742, 743, 744, 745, 746, 747, 748, 749, 750, 751, 752, 753, 754, 755, 756, 757, 758, 759, 760, 761, 762, 763, 764, 765, 766, 767, 768, 769, 770, 771, 772, 773, 774, 775, 776, 777, 778, 779, 780, 781, 782, 783, 784, 785, 786, 787, 788, 789, 790, 791, 792, 793, 794, 795, 796, 797, 798, 799, 800, 801, 802, 803, 804, 805, 806, 807, 808, 809, 810, 811, 812, 813, 814, 815, 816, 817, 818, 819, 820, 821, 822, 823, 824, 825, 826, 827, 828, 829, 830, 831, 832, 833, 834, 835, 836, 837, 838, 839, 840, 841, 842, 843, 844, 845, 846, 847, 848, 849, 850, 851, 852, 853, 854, 855, 856, 857, 858, 859, 860, 861, 862, 863, 864, 865, 866, 867, 868, 869, 870, 871, 872, 873, 874, 875, 876, 877, 878, 879, 880, 881, 882, 883, 884, 885, 886, 887, 888, 889, 890, 891, 892, 893, 894, 895, 896, 897, 898, 899, 900, 901, 902, 903, 904, 905, 906, 907, 908, 909, 910, 911, 912, 913, 914, 915, 916, 917, 918, 919, 920, 921, 922, 923, 924, 925, 926, 927, 928, 929, 930, 931, 932, 933, 934, 935, 936, 937, 938, 939, 940, 941, 942, 943, 944, 945, 946, 947, 948, 949, 950, 951, 952, 953, 954, 955, 956, 957, 958, 959, 960, 961, 962, 963, 964, 965, 966, 967, 968, 969, 970, 971, 972, 973, 974, 975, 976, 977, 978, 979, 980, 981, 982, 983, 984, 985, 986, 987, 988, 989, 990, 991, 992, 993, 994, 995, 996, 997, 998, 999, 1000, 1001, 1002, 1003, 1004, 1005, 1006, 1007, 1008, 1009, 1010, 1011, 1012, 1013, 1014, 1015, 1016, 1017, 1018, 1019, 1020, 1021, 1022, 1023, 1024, 1025, 1026, 1027, 1028, 1029, 1030, 1031, 1032, 1033, 1034, 1035, 1036, 1037, 1038, 1039, 1040, 1041, 1042, 1043, 1044, 1045, 1046, 1047, 1048, 1049, 1050, 1051, 1052, 1053, 1054, 1055, 1056, 1057, 1058, 1059, 1060, 1061, 1062, 1063, 1064, 1065, 1066, 1067, 1068, 1069, 1070, 1071, 1072, 1073, 1074, 1075, 1076, 1077, 1078, 1079, 1080, 1081, 1082, 1083, 1084, 1085, 1086, 1087, 1088, 1089, 1090, 1091, 1092, 1093, 1094, 1095, 1096, 1097, 1098, 1099, 1100, 1101, 1102, 1103, 1104, 1105, 1106, 1107, 1108, 1109, 1110, 1111, 1112, 1113, 1114, 1115, 1116, 1117, 1118, 1119, 1120, 1121, 1122, 1123, 1124, 1125, 1126, 1127, 1128, 1129, 1130, 1131, 1132, 1133, 1134, 1135, 1136, 1137, 1138, 1139, 1140, 1141, 1142, 1143, 1144, 1145, 1146, 1147, 1148, 1149, 1150, 1151, 1152, 1153, 1154, 1155, 1156, 1157, 1158, 1159, 1160, 1161, 1162, 1163, 1164, 1165, 1166, 1167, 1168, 1169, 1170, 1171, 1172, 1173, 1174, 1175, 1176, 1177, 1178, 1179, 1180, 1181, 1182, 1183, 1184, 1185, 1186, 1187, 1188, 1189, 1190, 1191, 1192, 1193, 1194, 1195, 1196, 1197, 1198, 1199, 1200, 1201, 1202, 1203, 1204, 1205, 1206, 1207, 1208, 1209, 1210, 1211, 1212, 1213, 1214, 1215, 1216, 1217, 1218, 1219, 1220, 1221, 1222, 1223, 1224, 1225, 1226, 1227, 1228, 1229, 1230, 1231, 1232, 1233, 1234, 1235, 1236, 1237, 1238, 1239, 1240, 1241, 1242, 1243, 1244, 1245, 1246, 1247, 1248, 1249, 1250, 1251, 1252, 1253, 1254, 1255, 1256, 1257, 1258, 1259, 1260, 1261, 1262, 1263, 1264, 1265, 1266, 1267, 1268, 1269, 1270, 1271, 1272, 1273, 1274, 1275, 1276, 1277, 1278, 1279, 1280, 1281, 1282, 1283, 1284, 1285, 1286, 1287, 1288, 1289, 1290, 1291, 1292, 1293, 1294, 1295, 1296, 1297, 1298, 1299, 1300, 1301, 1302, 1303, 1304, 1305, 1306, 1307, 1308, 1309, 1310, 1311, 1312, 1313, 1314, 1315, 1316, 1317, 1318, 1319, 1320, 1321, 1322, 1323, 1324, 1325, 1326, 1327, 1328, 1329, 1330, 1331, 1332, 1333, 1334, 1335, 1336, 1337, 1338, 1339, 1340, 1341, 1342, 1343, 1344, 1345, 1346, 1347, 1348, 1349, 1350, 1351, 1352, 1353, 1354, 1355, 1356, 1357, 1358, 1359, 1360, 1361, 1362, 1363, 1364, 1365, 1366, 1367, 1368, 1369, 1370, 1371, 1372, 1373, 1374, 1375, 1376, 1377, 1378, 1379, 1380, 1381, 1382, 1383, 1384, 1385, 1386, 1387, 1388, 1389, 1390, 1391, 1392, 1393, 1394, 1395, 1396, 1397, 1398, 1399, 1400, 1401, 1402, 1403, 1404, 1405, 1406, 1407, 1408, 1409, 1410, 1411, 1412, 1413, 1414, 1415, 1416, 1417, 1418, 1419, 1420, 1421, 1422, 1423, 1424, 1425, 1426, 1427, 1428, 1429, 1430, 1431, 1432, 1433, 1434, 1435, 1436, 1437, 1438, 1439, 1440, 1441, 1442, 1443, 1444, 1445, 1446, 1447, 1448, 1449, 1450, 1451, 1452, 1453, 1454, 1455, 1456, 1457, 1458, 1459, 1460, 1461, 1462, 1463, 1464, 1465, 1466, 1467, 1468, 1469, 1470, 1471, 1472, 1473, 1474, 1475, 1476, 1477, 1478, 1479, 1480, 1481, 1482, 1483, 1484, 1485, 1486, 1487, 1488, 1489, 1490, 1491, 1492, 1493, 1494, 1495, 1496, 1497, 1498, 1499, 1500, 1501, 1502, 1503, 1504, 1505, 1506, 1507, 1508, 1509, 1510, 1511, 1512, 1513, 1514, 1515, 1516, 1517, 1518, 1519, 1520, 1521, 1522, 1523, 1524, 1525, 1526, 1527, 1528, 1529, 1530, 1531, 1532, 1533, 1534, 1535, 1536, 1537, 1538, 1539, 1540, 1541, 1542, 1543, 1544, 1545, 1546, 1547, 1548, 1549, 1550, 1551, 1552, 1553, 1554, 1555, 1556, 1557, 1558, 1559, 1560, 1561, 1562, 1563, 1564, 1565, 1566, 1567, 1568, 1569, 1570, 1571, 1572, 1573, 1574, 1575, 1576, 1577, 1578, 1579, 1580, 1581, 1582, 1583, 1584, 1585, 1586, 1587, 1588, 1589, 1590, 1591, 1592, 1593, 1594, 1595, 1596, 1597, 1598, 1599, 1600, 1601, 1602, 1603, 1604, 1605, 1606, 1607, 1608],
      "AcquisitionTime": ["161116.825000", "161118.325000", "161119.825000", "161121.325000", "161122.825000", "161124.325000", "161125.825000", "161127.325000", "161128.825000", "161130.325000", "161131.825000", "161133.325000", "161134.825000", "161136.325000", "161137.825000", "161139.325000", "161140.825000", "161142.325000", "161143.825000", "161145.325000", "161146.825000", "161148.325000", "161149.825000", "161151.325000", "161152.825000", "161154.325000", "161155.825000", "161157.325000", "161158.825000", "161200.325000", "161201.825000", "161203.325000", "161204.825000", "161206.325000", "161207.825000", "161209.325000", "161210.825000", "161212.325000", "161213.825000", "161215.325000", "161216.825000", "161218.325000", "161219.825000", "161221.325000", "161222.825000", "161224.325000", "161225.825000", "161227.325000", "161228.825000", "161230.325000", "161231.825000", "161233.325000", "161234.825000", "161236.325000", "161237.825000", "161239.325000", "161240.825000", "161242.325000", "161243.825000", "161245.325000", "161246.825000", "161248.325000", "161249.825000", "161251.325000", "161252.825000", "161254.325000", "161255.825000", "161257.325000", "161258.825000", "161300.325000", "161301.825000", "161303.325000", "161304.825000", "161306.325000", "161307.825000", "161309.325000", "161310.825000", "161312.325000", "161313.825000", "161315.325000", "161316.825000", "161318.325000", "161319.825000", "161321.325000", "161322.825000", "161324.325000", "161325.825000", "161327.325000", "161328.825000", "161330.325000", "161331.825000", "161333.325000", "161334.825000", "161336.325000", "161337.825000", "161339.325000", "161340.825000", "161342.325000", "161343.825000", "161345.325000", "161346.825000", "161348.325000", "161349.825000", "161351.325000", "161352.825000", "161354.325000", "161355.825000", "161357.325000", "161358.825000", "161400.325000", "161401.825000", "161403.325000", "161404.825000", "161406.325000", "161407.825000", "161409.325000", "161410.825000", "161412.325000", "161413.825000", "161415.325000", "161416.825000", "161418.325000", "161419.825000", "161421.325000", "161422.825000", "161424.325000", "161425.825000", "161427.325000", "161428.825000", "161430.325000", "161431.825000", "161433.325000", "161434.825000", "161436.325000", "161437.825000", "161439.325000", "161440.825000", "161442.325000", "161443.825000", "161445.325000", "161446.825000", "161448.325000", "161449.825000", "161451.325000", "161452.825000", "161454.325000", "161455.825000", "161457.325000", "161458.825000", "161500.325000", "161501.825000", "161503.325000", "161504.825000", "161506.325000", "161507.825000", "161509.325000", "161510.825000", "161512.325000", "161513.825000", "161515.325000", "161516.825000", "161518.325000", "161519.825000", "161521.325000", "161522.825000", "161524.325000", "161525.825000", "161527.325000", "161528.825000", "161530.325000", "161531.825000", "161533.325000", "161534.825000", "161536.325000", "161537.825000", "161539.325000", "161540.825000", "161542.325000", "161543.825000", "161545.325000", "161546.825000", "161548.325000", "161549.825000", "161551.325000", "161552.825000", "161554.325000", "161555.825000", "161557.325000", "161558.825000", "161600.325000", "161601.825000", "161603.325000", "161604.825000", "161606.325000", "161607.825000", "161609.325000", "161610.825000", "161612.325000", "161613.825000", "161615.325000", "161616.825000", "161618.325000", "161619.825000", "161621.325000", "161622.825000", "161624.325000", "161625.825000", "161627.325000", "161628.825000", "161630.325000", "161631.825000", "161633.325000", "161634.825000", "161636.325000", "161637.825000", "161639.325000", "161640.825000", "161642.325000", "161643.825000", "161645.325000", "161646.825000", "161648.325000", "161649.825000", "161651.325000", "161652.825000", "161654.325000", "161655.825000", "161657.325000", "161658.825000", "161700.325000", "161701.825000", "161703.325000", "161704.825000", "161706.325000", "161707.825000", "161709.325000", "161710.825000", "161712.325000", "161713.825000", "161715.325000", "161716.825000", "161718.325000", "161719.825000", "161721.325000", "161722.825000", "161724.325000", "161725.825000", "161727.325000", "161728.825000", "161730.325000", "161731.825000", "161733.325000", "161734.825000", "161736.325000", "161737.825000", "161739.325000", "161740.825000", "161742.325000", "161743.825000", "161745.325000", "161746.825000", "161748.325000", "161749.825000", "161751.325000", "161752.825000", "161754.325000", "161755.825000", "161757.325000", "161758.825000", "161800.325000", "161801.825000", "161803.325000", "161804.825000", "161806.325000", "161807.825000", "161809.325000", "161810.825000", "161812.325000", "161813.825000", "161815.325000", "161816.825000", "161818.325000", "161819.825000", "161821.325000", "161822.825000", "161824.325000", "161825.825000", "161827.325000", "161828.825000", "161830.325000", "161831.825000", "161833.325000", "161834.825000", "161836.325000", "161837.825000", "161839.325000", "161840.825000", "161842.325000", "161843.825000", "161845.325000", "161846.825000", "161848.325000", "161849.825000", "161851.325000", "161852.825000", "161854.325000", "161855.825000", "161857.325000", "161858.825000", "161900.325000", "161901.825000", "161903.325000", "161904.825000", "161906.325000", "161907.825000", "161909.325000", "161910.825000", "161912.325000", "161913.825000", "161915.325000", "161916.825000", "161918.325000", "161919.825000", "161921.325000", "161922.825000", "161924.325000", "161925.825000", "161927.325000", "161928.825000", "161930.325000", "161931.825000", "161933.325000", "161934.825000", "161936.325000", "161937.825000", "161939.325000", "161940.825000", "161942.325000", "161943.825000", "161945.325000", "161946.825000", "161948.325000", "161949.825000", "161951.325000", "161952.825000", "161954.325000", "161955.825000", "161957.325000", "161958.825000", "162000.325000", "162001.825000", "162003.325000", "162004.825000", "162006.325000", "162007.825000", "162009.325000", "162010.825000", "162012.325000", "162013.825000", "162015.325000", "162016.825000", "162018.325000", "162019.825000", "162021.325000", "162022.825000", "162024.325000", "162025.825000", "162027.325000", "162028.825000", "162030.325000", "162031.825000", "162033.325000", "162034.825000", "162036.325000", "162037.825000", "162039.325000", "162040.825000", "162042.325000", "162043.825000", "162045.325000", "162046.825000", "162048.325000", "162049.825000", "162051.325000", "162052.825000", "162054.325000", "162055.825000", "162057.325000", "162058.825000", "162100.325000", "162101.825000", "162103.325000", "162104.825000", "162106.325000", "162107.825000", "162109.325000", "162110.825000", "162112.325000", "162113.825000", "162115.325000", "162116.825000", "162118.325000", "162119.825000", "162121.325000", "162122.825000", "162124.325000", "162125.825000", "162127.325000", "162128.825000", "162130.325000", "162131.825000", "162133.325000", "162134.825000", "162136.325000", "162137.825000", "162139.325000", "162140.825000", "162142.325000", "162143.825000", "162145.325000", "162146.825000", "162148.325000", "162149.825000", "162151.325000", "162152.825000", "162154.325000", "162155.825000", "162157.325000", "162158.825000", "162200.325000", "162201.825000", "162203.325000", "162204.825000", "162206.325000", "162207.825000", "162209.325000", "162210.825000", "162212.325000", "162213.825000", "162215.325000", "162216.825000", "162218.325000", "162219.825000", "162221.325000", "162222.825000", "162224.325000", "162225.825000", "162227.325000", "162228.825000", "162230.325000", "162231.825000", "162233.325000", "162234.825000", "162236.325000", "162237.825000", "162239.325000", "162240.825000", "162242.325000", "162243.825000", "162245.325000", "162246.825000", "162248.325000", "162249.825000", "162251.325000", "162252.825000", "162254.325000", "162255.825000", "162257.325000", "162258.825000", "162300.325000", "162301.825000", "162303.325000", "162304.825000", "162306.325000", "162307.825000", "162309.325000", "162310.825000", "162312.325000", "162313.825000", "162315.325000", "162316.825000", "162318.325000", "162319.825000", "162321.325000", "162322.825000", "162324.325000", "162325.825000", "162327.325000", "162328.825000", "162330.325000", "162331.825000", "162333.325000", "162334.825000", "162336.325000", "162337.825000", "162339.325000", "162340.825000", "162342.325000", "162343.825000", "162345.325000", "162346.825000", "162348.325000", "162349.825000", "162351.325000", "162352.825000", "162354.325000", "162355.825000", "162357.325000", "162358.825000", "162400.325000", "162401.825000", "162403.325000", "162404.825000", "162406.325000", "162407.825000", "162409.325000", "162410.825000", "162412.325000", "162413.825000", "162415.325000", "162416.825000", "162418.325000", "162419.825000", "162421.325000", "162422.825000", "162424.325000", "162425.825000", "162427.325000", "162428.825000", "162430.325000", "162431.825000", "162433.325000", "162434.825000", "162436.325000", "162437.825000", "162439.325000", "162440.825000", "162442.325000", "162443.825000", "162445.325000", "162446.825000", "162448.325000", "162449.825000", "162451.325000", "162452.825000", "162454.325000", "162455.825000", "162457.325000", "162458.825000", "162500.325000", "162501.825000", "162503.325000", "162504.825000", "162506.325000", "162507.825000", "162509.325000", "162510.825000", "162512.325000", "162513.825000", "162515.325000", "162516.825000", "162518.325000", "162519.825000", "162521.325000", "162522.825000", "162524.325000", "162525.825000", "162527.325000", "162528.825000", "162530.325000", "162531.825000", "162533.325000", "162534.825000", "162536.325000", "162537.825000", "162539.325000", "162540.825000", "162542.325000", "162543.825000", "162545.325000", "162546.825000", "162548.325000", "162549.825000", "162551.325000", "162552.825000", "162554.325000", "162555.825000", "162557.325000", "162558.825000", "162600.325000", "162601.825000", "162603.325000", "162604.825000", "162606.325000", "162607.825000", "162609.325000", "162610.825000", "162612.325000", "162613.825000", "162615.325000", "162616.825000", "162618.325000", "162619.825000", "162621.325000", "162622.825000", "162624.325000", "162625.825000", "162627.325000", "162628.825000", "162630.325000", "162631.825000", "162633.325000", "162634.825000", "162636.325000", "162637.825000", "162639.325000", "162640.825000", "162642.325000", "162643.825000", "162645.325000", "162646.825000", "162648.325000", "162649.825000", "162651.325000", "162652.825000", "162654.325000", "162655.825000", "162657.325000", "162658.825000", "162700.325000", "162701.825000", "162703.325000", "162704.825000", "162706.325000", "162707.825000", "162709.325000", "162710.825000", "162712.325000", "162713.825000", "162715.325000", "162716.825000", "162718.325000", "162719.825000", "162721.325000", "162722.825000", "162724.325000", "162725.825000", "162727.325000", "162728.825000", "162730.325000", "162731.825000", "162733.325000", "162734.825000", "162736.325000", "162737.825000", "162739.325000", "162740.825000", "162742.325000", "162743.825000", "162745.325000", "162746.825000", "162748.325000", "162749.825000", "162751.325000", "162752.825000", "162754.325000", "162755.825000", "162757.325000", "162758.825000", "162800.325000", "162801.825000", "162803.325000", "162804.825000", "162806.325000", "162807.825000", "162809.325000", "162810.825000", "162812.325000", "162813.825000", "162815.325000", "162816.825000", "162818.325000", "162819.825000", "162821.325000", "162822.825000", "162824.325000", "162825.825000", "162827.325000", "162828.825000", "162830.325000", "162831.825000", "162833.325000", "162834.825000", "162836.325000", "162837.825000", "162839.325000", "162840.825000", "162842.325000", "162843.825000", "162845.325000", "162846.825000", "162848.325000", "162849.825000", "162851.325000", "162852.825000", "162854.325000", "162855.825000", "162857.325000", "162858.825000", "162900.325000", "162901.825000", "162903.325000", "162904.825000", "162906.325000", "162907.825000", "162909.325000", "162910.825000", "162912.325000", "162913.825000", "162915.325000", "162916.825000", "162918.325000", "162919.825000", "162921.325000", "162922.825000", "162924.325000", "162925.825000", "162927.325000", "162928.825000", "162930.325000", "162931.825000", "162933.325000", "162934.825000", "162936.325000", "162937.825000", "162939.325000", "162940.825000", "162942.325000", "162943.825000", "162945.325000", "162946.825000", "162948.325000", "162949.825000", "162951.325000", "162952.825000", "162954.325000", "162955.825000", "162957.325000", "162958.825000", "163000.325000", "163001.825000", "163003.325000", "163004.825000", "163006.325000", "163007.825000", "163009.325000", "163010.825000", "163012.325000", "163013.825000", "163015.325000", "163016.825000", "163018.325000", "163019.825000", "163021.325000", "163022.825000", "163024.325000", "163025.825000", "163027.325000", "163028.825000", "163030.325000", "163031.825000", "163033.325000", "163034.825000", "163036.325000", "163037.825000", "163039.325000", "163040.825000", "163042.325000", "163043.825000", "163045.325000", "163046.825000", "163048.325000", "163049.825000", "163051.325000", "163052.825000", "163054.325000", "163055.825000", "163057.325000", "163058.825000", "163100.325000", "163101.825000", "163103.325000", "163104.825000", "163106.325000", "163107.825000", "163109.325000", "163110.825000", "163112.325000", "163113.825000", "163115.325000", "163116.825000", "163118.325000", "163119.825000", "163121.325000", "163122.825000", "163124.325000", "163125.825000", "163127.325000", "163128.825000", "163130.325000", "163131.825000", "163133.325000", "163134.825000", "163136.325000", "163137.825000", "163139.325000", "163140.825000", "163142.325000", "163143.825000", "163145.325000", "163146.825000", "163148.325000", "163149.825000", "163151.325000", "163152.825000", "163154.325000", "163155.825000", "163157.325000", "163158.825000", "163200.325000", "163201.825000", "163203.325000", "163204.825000", "163206.325000", "163207.825000", "163209.325000", "163210.825000", "163212.325000", "163213.825000", "163215.325000", "163216.825000", "163218.325000", "163219.825000", "163221.325000", "163222.825000", "163224.325000", "163225.825000", "163227.325000", "163228.825000", "163230.325000", "163231.825000", "163233.325000", "163234.825000", "163236.325000", "163237.825000", "163239.325000", "163240.825000", "163242.325000", "163243.825000", "163245.325000", "163246.825000", "163248.325000", "163249.825000", "163251.325000", "163252.825000", "163254.325000", "163255.825000", "163257.325000", "163258.825000", "163300.325000", "163301.825000", "163303.325000", "163304.825000", "163306.325000", "163307.825000", "163309.325000", "163310.825000", "163312.325000", "163313.825000", "163315.325000", "163316.825000", "163318.325000", "163319.825000", "163321.325000", "163322.825000", "163324.325000", "163325.825000", "163327.325000", "163328.825000", "163330.325000", "163331.825000", "163333.325000", "163334.825000", "163336.325000", "163337.825000", "163339.325000", "163340.825000", "163342.325000", "163343.825000", "163345.325000", "163346.825000", "163348.325000", "163349.825000", "163351.325000", "163352.825000", "163354.325000", "163355.825000", "163357.325000", "163358.825000", "163400.325000", "163401.825000", "163403.325000", "163404.825000", "163406.325000", "163407.825000", "163409.325000", "163410.825000", "163412.325000", "163413.825000", "163415.325000", "163416.825000", "163418.325000", "163419.825000", "163421.325000", "163422.825000", "163424.325000", "163425.825000", "163427.325000", "163428.825000", "163430.325000",