{
  "AcquisitionMatrixPE": 106,
  "AcquisitionNumber": 1,
  "AcquisitionTime": "11:37:57.687500",
  "BandwidthPerPixelPhaseEncode": 13.477,
  "BaseResolution": 106,
  "BodyPartExamined": "BRAIN",
  "CoilCombinationMethod": "Sum of Squares",
  "ConsistencyInfo": "N4_VE11C_LATEST_20160120",
  "ConversionSoftware": "dcm2niix",
  "ConversionSoftwareVersion": "v1.0.20220720",
  "DerivedVendorReportedEchoSpacing": 0.000700005,
  "DeviceSerialNumber": "166108",
  "DwellTime": 2.6e-06,
  "EchoTime": 0.03,
  "EchoTrainLength": 80,
  "EffectiveEchoSpacing": 0.000700005,
  "FlipAngle": 62,
  "HeudiconvVersion": "1.3.0",
  "ImageComments": "Unaliased MB4/PE3/LB",
  "ImageOrientationPatientDICOM": [1, 0, 0, 0, 0.845262, -0.534352],
  "ImageOrientationText": "Tra>Cor(-32.3)",
  "ImageType": [
    "ORIGINAL",
    "PRIMARY",
    "M",
    "MB",
    "ND",
    "MOSAIC"
],
  "ImagingFrequency": 123.244,
  "InPlanePhaseEncodingDirectionDICOM": "COL",
  "InstitutionAddress": "Bedford Way 26,London,London,GB,WC1H 0AP",
  "InstitutionName": "University College",
  "InstitutionalDepartmentName": "Department",
  "MRAcquisitionType": "2D",
  "MagneticFieldStrength": 3,
  "Manufacturer": "Siemens",
  "ManufacturersModelName": "Prisma",
  "MatrixCoilMode": "SENSE",
  "Modality": "MR",
  "MultibandAccelerationFactor": 4,
  "NonlinearGradientCorrection": false,
  "PartialFourier": 0.75,
  "PatientPosition": "HFS",
  "PercentPhaseFOV": 100,
  "PercentSampling": 100,
  "PhaseEncodingDirection": "j-",
  "PhaseEncodingSteps": 80,
  "PhaseResolution": 1,
  "PixelBandwidth": 1815,
  "ProcedureStepDescription": "Egor^MovieProject2",
  "ProtocolName": "func-bold_task-tono_run-01",
  "PulseSequenceDetails": "%CustomerSeq%\\cmrr_mbep2d_bold",
  "ReceiveCoilActiveElements": "HEA;HEP",
  "ReceiveCoilName": "Head_32",
  "ReconMatrixPE": 106,
  "RepetitionTime": 1,
  "SAR": 0.039959,
  "ScanOptions": "PFP\\FS\\EXT",
  "ScanningSequence": "EP",
  "SequenceName": "epfid2d1_106",
  "SequenceVariant": "SK\\SS",
  "SeriesDescription": "func-bold_task-tono_run-01",
  "SeriesNumber": 18,
  "ShimSetting": [-1598, 675, 7428, 254, -46, 222, 19, 11],
  "SliceThickness": 2,
  "SliceTiming": [0, 0.535, 0.09, 0.625, 0.18, 0.7125, 0.2675, 0.8025, 0.3575, 0.8925, 0.4475, 0, 0.535, 0.09, 0.625, 0.18, 0.7125, 0.2675, 0.8025, 0.3575, 0.8925, 0.4475, 0, 0.535, 0.09, 0.625, 0.18, 0.7125, 0.2675, 0.8025, 0.3575, 0.8925, 0.4475, 0, 0.535, 0.09, 0.625, 0.18, 0.7125, 0.2675, 0.8025, 0.3575, 0.8925, 0.4475],
  "SoftwareVersions": "syngo MR E11",
  "SpacingBetweenSlices": 2,
  "StationName": "AWP166108",
  "TaskName": "tonotopy",
  "TotalReadoutTime": 0.0735005,
  "TxRefAmp": 245.358,
  "WipMemBlock": "f9ea51f0-c285-47ff-8421-99ee8b43929d||Sequence: R016 ve11c/master r/e634e98; Dec 19 2017 11:00:25 by eja",
  "dcmmeta_affine": [
    [-2.0, 0.0, 0.0, 106.0],
    [0.0, 1.690523624420166, -1.0687047243118286, -52.65559005737305],
    [0.0, 1.0687047243118286, 1.690523624420166, -79.87129211425781],
    [0.0, 0.0, 0.0, 1.0]
],
  "dcmmeta_reorient_transform": [
    [0.0, -1.0, 0.0, 105.0],
    [1.0, 0.0, 0.0, 0.0],
    [0.0, 0.0, 1.0, 0.0],
    [0.0, 0.0, 0.0, 1.0]
],
  "dcmmeta_shape": [106, 106, 44, 264],
  "dcmmeta_slice_dim": 2,
  "dcmmeta_version": 0.6,
  "global": {
    "const": {
      "AcquisitionMatrix": [106, 0, 0, 106],
      "AngioFlag": "N",
      "BitsAllocated": 16,
      "BitsStored": 16,
      "BodyPartExamined": "BRAIN",
      "CardiacNumberOfImages": 1,
      "Columns": 742,
      "EchoNumbers": 1,
      "EchoTime": 30.0,
      "EchoTrainLength": 80,
      "FlipAngle": 62.0,
      "HighBit": 15,
      "ImageOrientationPatient": [1.0, 0.0, 0.0, 0.0, 0.84526182597848, -0.5343523608477],
      "ImagePositionPatient": [-742.0, -662.43591519586, 372.19080291477],
      "ImageType": [
        "ORIGINAL",
        "PRIMARY",
        "M",
        "MB",
        "ND",
        "MOSAIC"
],
      "ImagedNucleus": "1H",
      "ImagingFrequency": 123.2437,
      "InPlanePhaseEncodingDirection": "COL",
      "MRAcquisitionType": "2D",
      "MagneticFieldStrength": 3.0,
      "Manufacturer": "SIEMENS",
      "ManufacturerModelName": "Prisma",
      "Modality": "MR",
      "NominalInterval": 0,
      "NumberOfAverages": 1.0,
      "NumberOfPhaseEncodingSteps": 80,
      "PercentPhaseFieldOfView": 100.0,
      "PercentSampling": 100.0,
      "PerformedProcedureStepStartTime": "103736.922000",
      "PhotometricInterpretation": "MONOCHROME2",
      "PixelBandwidth": 1815.0,
      "PixelRepresentation": 0,
      "PixelSpacing": [2.0, 2.0],
      "ProtocolName": "func-bold_task-tono_run-01",
      "RepetitionTime": 1000.0,
      "Rows": 742,
      "SAR": 0.03995897609094,
      "SamplesPerPixel": 1,
      "ScanOptions": [
        "PFP",
        "FS",
        "EXT"
],
      "ScanningSequence": "EP",
      "SequenceName": "epfid2d1_106",
      "SequenceVariant": [
        "SK",
        "SS"
],
      "SeriesDescription": "func-bold_task-tono_run-01",
      "SeriesNumber": 18,
      "SeriesTime": "113823.984000",
      "SliceLocation": -39.375517511082,
      "SliceThickness": 2.0,
      "SmallestImagePixelValue": 0,
      "SoftwareVersions": "syngo MR E11",
      "SpacingBetweenSlices": 1.9999999830514,
      "SpecificCharacterSet": "ISO_IR 100",
      "StudyID": "1",
      "StudyTime": "103736.855000",
      "TransmitCoilName": "Body",
      "VariableFlipAngleFlag": "N",
      "WindowCenterWidthExplanation": "Algo1",
      "dBdt": 0.0},
    "slices": {}
  },
  "time": {
    "samples": {
      "AcquisitionNumber": [1, 2, 3, 4, 5, 6, 7, 8, 9, 10, 11, 12, 13, 14, 15, 16, 17, 18, 19, 20, 21, 22, 23, 24, 25, 26, 27, 28, 29, 30, 31, 32, 33, 34, 35, 36, 37, 38, 39, 40, 41, 42, 43, 44, 45, 46, 47, 48, 49, 50, 51, 52, 53, 54, 55, 56, 57, 58, 59, 60, 61, 62, 63, 64, 65, 66, 67, 68, 69, 70, 71, 72, 73, 74, 75, 76, 77, 78, 79, 80, 81, 82, 83, 84, 85, 86, 87, 88, 89, 90, 91, 92, 93, 94, 95, 96, 97, 98, 99, 100, 101, 102, 103, 104, 105, 106, 107, 108, 109, 110, 111, 112, 113, 114, 115, 116, 117, 118, 119, 120, 121, 122, 123, 124, 125, 126, 127, 128, 129, 130, 131, 132, 133, 134, 135, 136, 137, 138, 139, 140, 141, 142, 143, 144, 145, 146, 147, 148, 149, 150, 151, 152, 153, 154, 155, 156, 157, 158, 159, 160, 161, 162, 163, 164, 165, 166, 167, 168, 169, 170, 171, 172, 173, 174, 175, 176, 177, 178, 179, 180, 181, 182, 183, 184, 185, 186, 187, 188, 189, 190, 191, 192, 193, 194, 195, 196, 197, 198, 199, 200, 201, 202, 203, 204, 205, 206, 207, 208, 209, 210, 211, 212, 213, 214, 215, 216, 217, 218, 219, 220, 221, 222, 223, 224, 225, 226, 227, 228, 229, 230, 231, 232, 233, 234, 235, 236, 237, 238, 239, 240, 241, 242, 243, 244, 245, 246, 247, 248, 249, 250, 251, 252, 253, 254, 255, 256, 257, 258, 259, 260, 261, 262, 263, 264],
      "AcquisitionTime": ["113757.687500", "113758.687500", "113759.687500", "113800.687500", "113801.687500", "113802.687500", "113803.687500", "113804.687500", "113805.687500", "113806.687500", "113807.687500", "113808.687500", "113809.687500", "113810.687500", "113811.687500", "113812.687500", "113813.687500", "113814.687500", "113815.687500", "113816.687500", "113817.687500", "113818.687500", "113819.687500", "113820.687500", "113821.687500", "113822.687500", "113823.687500", "113824.687500", "113825.687500", "113826.687500", "113827.687500", "113828.687500", "113829.687500", "113830.687500", "113831.687500", "113832.687500", "113833.687500", "113834.687500", "113835.687500", "113836.687500", "113837.687500", "113838.687500", "113839.687500", "113840.687500", "113841.687500", "113842.687500", "113843.687500", "113844.687500", "113845.687500", "113846.687500", "113847.687500", "113848.687500", "113849.687500", "113850.687500", "113851.687500", "113852.687500", "113853.687500", "113854.687500", "113855.687500", "113856.687500", "113857.687500", "113858.687500", "113859.687500", "113900.687500", "113901.687500", "113902.687500", "113903.687500", "113904.687500", "113905.687500", "113906.687500", "113907.687500", "113908.687500", "113909.687500", "113910.687500", "113911.687500", "113912.687500", "113913.687500", "113914.687500", "113915.687500", "113916.687500", "113917.687500", "113918.687500", "113919.687500", "113920.687500", "113921.687500", "113922.687500", "113923.687500", "113924.687500", "113925.687500", "113926.687500", "113927.687500", "113928.687500", "113929.687500", "113930.687500", "113931.687500", "113932.687500", "113933.687500", "113934.687500", "113935.687500", "113936.687500", "113937.687500", "113938.687500", "113939.687500", "113940.687500", "113941.687500", "113942.687500", "113943.687500", "113944.687500", "113945.687500", "113946.687500", "113947.687500", "113948.687500", "113949.687500", "113950.687500", "113951.687500", "113952.687500", "113953.687500", "113954.687500", "113955.687500", "113956.687500", "113957.687500", "113958.687500", "113959.687500", "114000.687500", "114001.687500", "114002.687500", "114003.687500", "114004.687500", "114005.687500", "114006.687500", "114007.687500", "114008.687500", "114009.687500", "114010.687500", "114011.687500", "114012.687500", "114013.687500", "114014.687500", "114015.687500", "114016.687500", "114017.687500", "114018.687500", "114019.687500", "114020.687500", "114021.687500", "114022.687500", "114023.687500", "114024.687500", "114025.687500", "114026.687500", "114027.687500", "114028.687500", "114029.687500", "114030.687500", "114031.687500", "114032.687500", "114033.687500", "114034.687500", "114035.687500", "114036.687500", "114037.687500", "114038.687500", "114039.687500", "114040.687500", "114041.687500", "114042.687500", "114043.687500", "114044.687500", "114045.687500", "114046.687500", "114047.687500", "114048.687500", "114049.687500", "114050.687500", "114051.687500", "114052.687500", "114053.687500", "114054.687500", "114055.687500", "114056.687500", "114057.687500", "114058.687500", "114059.687500", "114100.687500", "114101.687500", "114102.687500", "114103.687500", "114104.687500", "114105.687500", "114106.687500", "114107.687500", "114108.687500", "114109.687500", "114110.687500", "114111.687500", "114112.687500", "114113.687500", "114114.687500", "114115.687500", "114116.687500", "114117.687500", "114118.687500", "114119.687500", "114120.687500", "114121.687500", "114122.687500", "114123.687500", "114124.687500", "114125.687500", "114126.687500", "114127.687500", "114128.687500", "114129.687500", "114130.687500", "114131.687500", "114132.687500", "114133.687500", "114134.687500", "114135.687500", "114136.687500", "114137.687500", "114138.687500", "114139.687500", "114140.687500", "114141.687500", "114142.687500", "114143.687500", "114144.687500", "114145.687500", "114146.687500", "114147.687500", "114148.687500", "114149.687500", "114150.687500", "114151.687500", "114152.687500", "114153.687500", "114154.687500", "114155.687500", "114156.687500", "114157.687500", "114158.687500", "114159.687500", "114200.687500", "114201.687500", "114202.687500", "114203.687500", "114204.687500", "114205.687500", "114206.687500", "114207.687500", "114208.687500", "114209.687500", "114210.687500", "114211.687500", "114212.687500", "114213.687500", "114214.687500", "114215.687500", "114216.687500", "114217.687500", "114218.687500", "114219.687500", "114220.687500"],
      "ContentTime": ["113823.986000", "113823.990000", "113823.992000", "113823.995000", "113824.001000", "113824.004000", "113824.007000", "113824.009000", "113824.012000", "113824.014000", "113824.017000", "113824.019000", "113824.022000", "113824.024000", "113824.027000", "113824.029000", "113824.032000", "113824.034000", "113824.037000", "113824.039000", "113824.051000", "113824.053000", "113824.056000", "113824.058000", "113824.060000", "113843.954000", "113843.957000", "113843.960000", "113843.962000", "113843.965000", "113843.967000", "113843.970000", "113843.972000", "113843.975000", "113843.977000", "113843.980000", "113843.982000", "113843.985000", "113843.987000", "113843.990000", "113843.992000", "113843.995000", "113844.004000", "113844.006000", "113844.009000", "113903.954000", "113903.957000", "113903.960000", "113903.962000", "113903.965000", "113903.967000", "113903.970000", "113903.972000", "113903.975000", "113903.977000", "113903.980000", "113903.982000", "113903.985000", "113903.987000", "113903.990000", "113903.992000", "113903.995000", "113903.997000", "113904.001000", "113904.003000", "113923.954000", "113923.957000", "113923.960000", "113923.962000", "113923.965000", "113923.967000", "113923.970000", "113923.972000", "113923.975000", "113923.977000", "113923.980000", "113923.982000", "113923.985000", "113923.987000", "113923.990000", "113923.992000", "113923.995000", "113923.997000", "113924.001000", "113924.003000", "113943.955000", "113943.957000", "113943.960000", "113943.962000", "113943.965000", "113943.967000", "113943.970000", "113943.972000", "113943.975000", "113943.977000", "113943.980000", "113943.982000", "113943.985000", "113943.987000", "113943.990000", "113943.992000", "113943.995000", "113943.997000", "113944.001000", "113944.003000", "114003.954000", "114003.957000", "114003.960000", "114003.962000", "114003.965000", "114003.967000", "114003.970000", "114003.973000", "114003.975000", "114003.978000", "114003.980000", "114003.983000", "114003.985000", "114003.988000", "114003.990000", "114003.993000", "114003.995000", "114003.998000", "114004.001000", "114004.004000", "114023.955000", "114023.957000", "114023.960000", "114023.963000", "114023.965000", "114023.968000", "114023.970000", "114023.973000", "114023.975000", "114023.977000", "114023.980000", "114023.982000", "114023.985000", "114023.987000", "114023.990000", "114023.992000", "114023.995000", "114023.997000", "114024.001000", "114024.003000", "114043.955000", "114043.958000", "114043.961000", "114043.963000", "114043.966000", "114043.968000", "114043.970000", "114043.973000", "114043.976000", "114043.978000", "114043.981000", "114043.983000", "114043.986000", "114043.988000", "114043.991000", "114043.993000", "114043.996000", "114043.998000", "114044.001000", "114044.004000", "114103.954000", "114103.957000", "114103.960000", "114103.962000", "114103.965000", "114103.967000", "114103.970000", "114103.972000", "114103.975000", "114103.977000", "114103.980000", "114103.982000", "114103.985000", "114103.987000", "114104.000000", "114104.002000", "114104.005000", "114104.007000", "114104.010000", "114104.012000", "114123.954000", "114123.957000", "114123.960000", "114123.962000", "114123.965000", "114123.967000", "114123.970000", "114123.972000", "114123.975000", "114123.977000", "114123.980000", "114123.982000", "114123.985000", "114123.987000", "114123.990000", "114123.992000", "114123.996000", "114124.000000", "114124.005000", "114124.008000", "114143.955000", "114143.957000", "114143.960000", "114143.963000", "114143.965000", "114143.967000", "114143.970000", "114143.973000", "114143.975000", "114143.978000", "114143.980000", "114143.983000", "114143.985000", "114143.987000", "114143.990000", "114143.992000", "114143.995000", "114143.997000", "114144.001000", "114144.003000", "114203.954000", "114203.957000", "114203.960000", "114203.962000", "114203.965000", "114203.967000", "114203.970000", "114203.972000", "114203.975000", "114203.977000", "114203.980000", "114203.982000", "114203.985000", "114203.987000", "114203.990000", "114203.992000", "114203.995000", "114203.997000", "114204.001000", "114204.003000", "114222.766000", "114222.769000", "114222.771000", "114222.774000", "114222.776000", "114222.779000", "114222.782000", "114222.784000", "114222.787000", "114222.807000", "114222.809000", "114222.812000", "114222.814000", "114222.817000", "114222.819000", "114222.822000", "114222.824000", "114222.827000", "114222.829000"],
      "InstanceCreationTime": ["113823.986000", "113823.990000", "113823.992000", "113823.995000", "113824.001000", "113824.004000", "113824.007000", "113824.009000", "113824.012000", "113824.014000", "113824.017000", "113824.019000", "113824.022000", "113824.024000", "113824.027000", "113824.029000", "113824.032000", "113824.034000", "113824.037000", "113824.039000", "113824.051000", "113824.053000", "113824.056000", "113824.058000", "113824.060000", "113843.954000", "113843.957000", "113843.960000", "113843.962000", "113843.965000", "113843.967000", "113843.970000", "113843.972000", "113843.975000", "113843.977000", "113843.980000", "113843.982000", "113843.985000", "113843.987000", "113843.990000", "113843.992000", "113843.995000", "113844.004000", "113844.006000", "113844.009000", "113903.954000", "113903.957000", "113903.960000", "113903.962000", "113903.965000", "113903.967000", "113903.970000", "113903.972000", "113903.975000", "113903.977000", "113903.980000", "113903.982000", "113903.985000", "113903.987000", "113903.990000", "113903.992000", "113903.995000", "113903.997000", "113904.001000", "113904.003000", "113923.954000", "113923.957000", "113923.960000", "113923.962000", "113923.965000", "113923.967000", "113923.970000", "113923.972000", "113923.975000", "113923.977000", "113923.980000", "113923.982000", "113923.985000", "113923.987000", "113923.990000", "113923.992000", "113923.995000", "113923.997000", "113924.001000", "113924.003000", "113943.955000", "113943.957000", "113943.960000", "113943.962000", "113943.965000", "113943.967000", "113943.970000", "113943.972000", "113943.975000", "113943.977000", "113943.980000", "113943.982000", "113943.985000", "113943.987000", "113943.990000", "113943.992000", "113943.995000", "113943.997000", "113944.001000", "113944.003000", "114003.954000", "114003.957000", "114003.960000", "114003.962000", "114003.965000", "114003.967000", "114003.970000", "114003.973000", "114003.975000", "114003.978000", "114003.980000", "114003.983000", "114003.985000", "114003.988000", "114003.990000", "114003.993000", "114003.995000", "114003.998000", "114004.001000", "114004.004000", "114023.955000", "114023.957000", "114023.960000", "114023.963000", "114023.965000", "114023.968000", "114023.970000", "114023.973000", "114023.975000", "114023.977000", "114023.980000", "114023.982000", "114023.985000", "114023.987000", "114023.990000", "114023.992000", "114023.995000", "114023.997000", "114024.001000", "114024.003000", "114043.955000", "114043.958000", "114043.961000", "114043.963000", "114043.966000", "114043.968000", "114043.970000", "114043.973000", "114043.976000", "114043.978000", "114043.981000", "114043.983000", "114043.986000", "114043.988000", "114043.991000", "114043.993000", "114043.996000", "114043.998000", "114044.001000", "114044.004000", "114103.954000", "114103.957000", "114103.960000", "114103.962000", "114103.965000", "114103.967000", "114103.970000", "114103.972000", "114103.975000", "114103.977000", "114103.980000", "114103.982000", "114103.985000", "114103.987000", "114104.000000", "114104.002000", "114104.005000", "114104.007000", "114104.010000", "114104.012000", "114123.954000", "114123.957000", "114123.960000", "114123.962000", "114123.965000", "114123.967000", "114123.970000", "114123.972000", "114123.975000", "114123.977000", "114123.980000", "114123.982000", "114123.985000", "114123.987000", "114123.990000", "114123.992000", "114123.996000", "114124.000000", "114124.005000", "114124.008000", "114143.955000", "114143.957000", "114143.960000", "114143.963000", "114143.965000", "114143.967000", "114143.970000", "114143.973000", "114143.975000", "114143.978000", "114143.980000", "114143.983000", "114143.985000", "114143.987000", "114143.990000", "114143.992000", "114143.995000", "114143.997000", "114144.001000", "114144.003000", "114203.954000", "114203.957000", "114203.960000", "114203.962000", "114203.965000", "114203.967000", "114203.970000", "114203.972000", "114203.975000", "114203.977000", "114203.980000", "114203.982000", "114203.985000", "114203.987000", "114203.990000", "114203.992000", "114203.995000", "114203.997000", "114204.001000", "114204.003000", "114222.766000", "114222.769000", "114222.771000", "114222.774000", "114222.776000", "114222.779000", "114222.782000", "114222.784000", "114222.787000", "114222.807000", "114222.809000", "114222.812000", "114222.814000", "114222.817000", "114222.819000", "114222.822000", "114222.824000", "114222.827000", "114222.829000"],
      "InstanceNumber": [1, 2, 3, 4, 5, 6, 7, 8, 9, 10, 11, 12, 13, 14, 15, 16, 17, 18, 19, 20, 21, 22, 23, 24, 25, 26, 27, 28, 29, 30, 31, 32, 33, 34, 35, 36, 37, 38, 39, 40, 41, 42, 43, 44, 45, 46, 47, 48, 49, 50, 51, 52, 53, 54, 55, 56, 57, 58, 59, 60, 61, 62, 63, 64, 65, 66, 67, 68, 69, 70, 71, 72, 73, 74, 75, 76, 77, 78, 79, 80, 81, 82, 83, 84, 85, 86, 87, 88, 89, 90, 91, 92, 93, 94, 95, 96, 97, 98, 99, 100, 101, 102, 103, 104, 105, 106, 107, 108, 109, 110, 111, 112, 113, 114, 115, 116, 117, 118, 119, 120, 121, 122, 123, 124, 125, 126, 127, 128, 129, 130, 131, 132, 133, 134, 135, 136, 137, 138, 139, 140, 141, 142, 143, 144, 145, 146, 147, 148, 149, 150, 151, 152, 153, 154, 155, 156, 157, 158, 159, 160, 161, 162, 163, 164, 165, 166, 167, 168, 169, 170, 171, 172, 173, 174, 175, 176, 177, 178, 179, 180, 181, 182, 183, 184, 185, 186, 187, 188, 189, 190, 191, 192, 193, 194, 195, 196, 197, 198, 199, 200, 201, 202, 203, 204, 205, 206, 207, 208, 209, 210, 211, 212, 213, 214, 215, 216, 217, 218, 219, 220, 221, 222, 223, 224, 225, 226, 227, 228, 229, 230, 231, 232, 233, 234, 235, 236, 237, 238, 239, 240, 241, 242, 243, 244, 245, 246, 247, 248, 249, 250, 251, 252, 253, 254, 255, 256, 257, 258, 259, 260, 261, 262, 263, 264],
      "LargestImagePixelValue": [13212, 13068, 12886, 12892, 12768, 12874, 12843, 13426, 13280, 12749, 12659, 12554, 12571, 12575, 12555, 12601, 12580, 12749, 12841, 12562, 12567, 12575, 12653, 12701, 12890, 12992, 12934, 12848, 12828, 12785, 12655, 12682, 12694, 12734, 13172, 13463, 13501, 12850, 12672, 12811, 13564, 13479, 13337, 13033, 13047, 12923, 12977, 12878, 13113, 13179, 13154, 13107, 12928, 12671, 12913, 13326, 13198, 13244, 13343, 13331, 13163, 12985, 12938, 12695, 13477, 13676, 13766, 13794, 13687, 13289, 13505, 13074, 13306, 13368, 13237, 13630, 13706, 13538, 13328, 13199, 13324, 13741, 13961, 13643, 13815, 13750, 13796, 13839, 13684, 13437, 13712, 14203, 13906, 13739, 13447, 13863, 13623, 14177, 14197, 14071, 13754, 13933, 13848, 13751, 13690, 13962, 14165, 14340, 14204, 13986, 13821, 13766, 13875, 14029, 13857, 13864, 13893, 13861, 13822, 14001, 14257, 14242, 14176, 13819, 13713, 13710, 14100, 13726, 13955, 14334, 14372, 14225, 13850, 13969, 13639, 13761, 13618, 13973, 14576, 14185, 14188, 13604, 13692, 13771, 13968, 14176, 14143, 14370, 14171, 13563, 13552, 13942, 14192, 14004, 13649, 13547, 13816, 13792, 13769, 13443, 13624, 13794, 14004, 13949, 13724, 13927, 14065, 14103, 13601, 13958, 13998, 14199, 14213, 13785, 14114, 13867, 13892, 13615, 13916, 14167, 14200, 14242, 14051, 13874, 14131, 14272, 14290, 14130, 14190, 14269, 14351, 14016, 13795, 14026, 14016, 13784, 13982, 14219, 14184, 13969, 13983, 13992, 14031, 13901, 13840, 13745, 13912, 13951, 13992, 13932, 14151, 14107, 14236, 14086, 13896, 13692, 13974, 13945, 13538, 14088, 14178, 14359, 14010, 14096, 14431, 14312, 14329, 14220, 14303, 14110, 14225, 13719, 14150, 14316, 14404, 14402, 14514, 14849, 14216, 13979, 14399, 14633, 14663, 14341, 14218, 14222, 14098, 14113, 14187, 14376, 14620, 14546, 14166, 14336, 14130, 14375, 14109, 14450, 14682, 14662, 14454, 14176, 13869, 14348],
      "TriggerTime": [8102.5, 9102.5, 10102.5, 11102.5, 12102.5, 13102.5, 14102.5, 15102.5, 16102.5, 17102.5, 18102.5, 19102.5, 20102.5, 21102.5, 22102.5, 23102.5, 24102.5, 25102.5, 26102.5, 27102.5, 28102.5, 29102.5, 30102.5, 31102.5, 32102.5, 33102.5, 34102.5, 35102.5, 36102.5, 37102.5, 38102.5, 39102.5, 40102.5, 41102.5, 42102.5, 43102.5, 44102.5, 45102.5, 46102.5, 47102.5, 48102.5, 49102.5, 50102.5, 51102.5, 52102.5, 53102.5, 54102.5, 55102.5, 56102.5, 57102.5, 58102.5, 59102.5, 60102.5, 61102.5, 62102.5, 63102.5, 64102.5, 65102.5, 66102.5, 67102.5, 68102.5, 69102.5, 70102.5, 71102.5, 72102.5, 73102.5, 74102.5, 75102.5, 76102.5, 77102.5, 78102.5, 79102.5, 80102.5, 81102.5, 82102.5, 83102.5, 84102.5, 85102.5, 86102.5, 87102.5, 88102.5, 89102.5, 90102.5, 91102.5, 92102.5, 93102.5, 94102.5, 95102.5, 96102.5, 97102.5, 98102.5, 99102.5, 100102.5, 101102.5, 102102.5, 103102.5, 104102.5, 105102.5, 106102.5, 107102.5, 108102.5, 109102.5, 110102.5, 111102.5, 112102.5, 113102.5, 114102.5, 115102.5, 116102.5, 117102.5, 118102.5, 119102.5, 120102.5, 121102.5, 122102.5, 123102.5, 124102.5, 125102.5, 126102.5, 127102.5, 128102.5, 129102.5, 130102.5, 131102.5, 132102.5, 133102.5, 134102.5, 135102.5, 136102.5, 137102.5, 138102.5, 139102.5, 140102.5, 141102.5, 142102.5, 143102.5, 144102.5, 145102.5, 146102.5, 147102.5, 148102.5, 149102.5, 150102.5, 151102.5, 152102.5, 153102.5, 154102.5, 155102.5, 156102.5, 157102.5, 158102.5, 159102.5, 160102.5, 161102.5, 162102.5, 163102.5, 164102.5, 165102.5, 166102.5, 167102.5, 168102.5, 169102.5, 170102.5, 171102.5, 172102.5, 173102.5, 174102.5, 175102.5, 176102.5, 177102.5, 178102.5, 179102.5, 180102.5, 181102.5, 182102.5, 183102.5, 184102.5, 185102.5, 186102.5, 187102.5, 188102.5, 189102.5, 190102.5, 191102.5, 192102.5, 193102.5, 194102.5, 195102.5, 196102.5, 197102.5, 198102.5, 199102.5, 200102.5, 201102.5, 202102.5, 203102.5, 204102.5, 205102.5, 206102.5, 207102.5, 208102.5, 209102.5, 210102.5, 211102.5, 212102.5, 213102.5, 214102.5, 215102.5, 216102.5, 217102.5, 218102.5, 219102.5, 220102.5, 221102.5, 222102.5, 223102.5, 224102.5, 225102.5, 226102.5, 227102.5, 228102.5, 229102.5, 230102.5, 231102.5, 232102.5, 233102.5, 234102.5, 235102.5, 236102.5, 237102.5, 238102.5, 239102.5, 240102.5, 241102.5, 242102.5, 243102.5, 244102.5, 245102.5, 246102.5, 247102.5, 248102.5, 249102.5, 250102.5, 251102.5, 252102.5, 253102.5, 254102.5, 255102.5, 256102.5, 257102.5, 258102.5, 259102.5, 260102.5, 261102.5, 262102.5, 263102.5, 264102.5, 265102.5, 266102.5, 267102.5, 268102.5, 269102.5, 270102.5, 271102.5],
      "WindowCenter": [4492.0, 4487.0, 4474.0, 4461.0, 4472.0, 4461.0, 4474.0, 4497.0, 4485.0, 4473.0, 4461.0, 4461.0, 4462.0, 4475.0, 4477.0, 4477.0, 4478.0, 4488.0, 4488.0, 4478.0, 4479.0, 4479.0, 4489.0, 4488.0, 4488.0, 4499.0, 4489.0, 4490.0, 4490.0, 4490.0, 4491.0, 4502.0, 4492.0, 4504.0, 4516.0, 4528.0, 4527.0, 4505.0, 4503.0, 4504.0, 4516.0, 4527.0, 4527.0, 4515.0, 4516.0, 4506.0, 4515.0, 4503.0, 4500.0, 4498.0, 4498.0, 4500.0, 4490.0, 4491.0, 4491.0, 4512.0, 4502.0, 4500.0, 4499.0, 4498.0, 4488.0, 4488.0, 4489.0, 4489.0, 4500.0, 4512.0, 4512.0, 4512.0, 4510.0, 4499.0, 4500.0, 4501.0, 4513.0, 4514.0, 4504.0, 4513.0, 4513.0, 4513.0, 4512.0, 4500.0, 4501.0, 4512.0, 4523.0, 4513.0, 4512.0, 4512.0, 4513.0, 4524.0, 4513.0, 4512.0, 4511.0, 4521.0, 4513.0, 4522.0, 4512.0, 4514.0, 4529.0, 4541.0, 4539.0, 4525.0, 4512.0, 4510.0, 4499.0, 4508.0, 4509.0, 4509.0, 4511.0, 4522.0, 4511.0, 4511.0, 4510.0, 4511.0, 4511.0, 4521.0, 4511.0, 4510.0, 4510.0, 4512.0, 4512.0, 4522.0, 4522.0, 4522.0, 4522.0, 4512.0, 4512.0, 4513.0, 4525.0, 4524.0, 4524.0, 4536.0, 4537.0, 4526.0, 4515.0, 4524.0, 4514.0, 4513.0, 4514.0, 4525.0, 4537.0, 4527.0, 4526.0, 4514.0, 4512.0, 4512.0, 4523.0, 4522.0, 4511.0, 4520.0, 4524.0, 4514.0, 4513.0, 4523.0, 4523.0, 4523.0, 4512.0, 4501.0, 4511.0, 4512.0, 4512.0, 4501.0, 4500.0, 4511.0, 4523.0, 4512.0, 4511.0, 4509.0, 4509.0, 4509.0, 4499.0, 4509.0, 4510.0, 4511.0, 4522.0, 4513.0, 4524.0, 4514.0, 4513.0, 4512.0, 4512.0, 4511.0, 4512.0, 4522.0, 4512.0, 4511.0, 4511.0, 4522.0, 4521.0, 4511.0, 4510.0, 4521.0, 4522.0, 4511.0, 4500.0, 4511.0, 4512.0, 4513.0, 4523.0, 4523.0, 4524.0, 4523.0, 4523.0, 4524.0, 4525.0, 4515.0, 4514.0, 4512.0, 4512.0, 4512.0, 4511.0, 4511.0, 4510.0, 4509.0, 4509.0, 4509.0, 4499.0, 4498.0, 4509.0, 4510.0, 4500.0, 4510.0, 4511.0, 4522.0, 4522.0, 4512.0, 4522.0, 4522.0, 4521.0, 4510.0, 4521.0, 4512.0, 4523.0, 4514.0, 4524.0, 4525.0, 4525.0, 4524.0, 4525.0, 4536.0, 4526.0, 4527.0, 4537.0, 4548.0, 4549.0, 4537.0, 4526.0, 4526.0, 4525.0, 4524.0, 4513.0, 4523.0, 4535.0, 4524.0, 4523.0, 4523.0, 4523.0, 4522.0, 4511.0, 4520.0, 4521.0, 4521.0, 4520.0, 4509.0, 4511.0, 4523.0],
