{
  "AcquisitionMatrixPE": 106,
  "AcquisitionNumber": 1,
  "AcquisitionTime": "11:43:34.907500",
  "BandwidthPerPixelPhaseEncode": 13.477,
  "BaseResolution": 106,
  "BodyPartExamined": "BRAIN",
  "CoilCombinationMethod": "Sum of Squares",
  "ConsistencyInfo": "N4_VE11C_LATEST_20160120",
  "ConversionSoftware": "dcm2niix",
  "ConversionSoftwareVersion": "v1.0.20220720",
  "DerivedVendorReportedEchoSpacing": 0.000700005,
  "DeviceSerialNumber": "166108",
  "DwellTime": 2.6e-06,
  "EchoTime": 0.03,
  "EchoTrainLength": 80,
  "EffectiveEchoSpacing": 0.000700005,
  "FlipAngle": 62,
  "HeudiconvVersion": "1.3.0",
  "ImageComments": "Unaliased MB4/PE3/LB",
  "ImageOrientationPatientDICOM": [1, 0, 0, 0, 0.845262, -0.534352],
  "ImageOrientationText": "Tra>Cor(-32.3)",
  "ImageType": [
    "ORIGINAL",
    "PRIMARY",
    "M",
    "MB",
    "ND",
    "MOSAIC"
],
  "ImagingFrequency": 123.244,
  "InPlanePhaseEncodingDirectionDICOM": "COL",
  "InstitutionAddress": "Bedford Way 26,London,London,GB,WC1H 0AP",
  "InstitutionName": "University College",
  "InstitutionalDepartmentName": "Department",
  "MRAcquisitionType": "2D",
  "MagneticFieldStrength": 3,
  "Manufacturer": "Siemens",
  "ManufacturersModelName": "Prisma",
  "MatrixCoilMode": "SENSE",
  "Modality": "MR",
  "MultibandAccelerationFactor": 4,
  "NonlinearGradientCorrection": false,
  "PartialFourier": 0.75,
  "PatientPosition": "HFS",
  "PercentPhaseFOV": 100,
  "PercentSampling": 100,
  "PhaseEncodingDirection": "j-",
  "PhaseEncodingSteps": 80,
  "PhaseResolution": 1,
  "PixelBandwidth": 1815,
  "ProcedureStepDescription": "Egor^MovieProject2",
  "ProtocolName": "func-bold_task-tono_run-02",
  "PulseSequenceDetails": "%CustomerSeq%\\cmrr_mbep2d_bold",
  "ReceiveCoilActiveElements": "HEA;HEP",
  "ReceiveCoilName": "Head_32",
  "ReconMatrixPE": 106,
  "RepetitionTime": 1,
  "SAR": 0.039959,
  "ScanOptions": "PFP\\FS\\EXT",
  "ScanningSequence": "EP",
  "SequenceName": "epfid2d1_106",
  "SequenceVariant": "SK\\SS",
  "SeriesDescription": "func-bold_task-tono_run-02",
  "SeriesNumber": 20,
  "ShimSetting": [-1598, 675, 7428, 254, -46, 222, 19, 11],
  "SliceThickness": 2,
  "SliceTiming": [0, 0.5325, 0.0875, 0.6225, 0.1775, 0.7125, 0.2675, 0.8, 0.355, 0.89, 0.445, 0, 0.5325, 0.0875, 0.6225, 0.1775, 0.7125, 0.2675, 0.8, 0.355, 0.89, 0.445, 0, 0.5325, 0.0875, 0.6225, 0.1775, 0.7125, 0.2675, 0.8, 0.355, 0.89, 0.445, 0, 0.5325, 0.0875, 0.6225, 0.1775, 0.7125, 0.2675, 0.8, 0.355, 0.89, 0.445],
  "SoftwareVersions": "syngo MR E11",
  "SpacingBetweenSlices": 2,
  "StationName": "AWP166108",
  "TaskName": "tonotopy",
  "TotalReadoutTime": 0.0735005,
  "TxRefAmp": 245.358,
  "WipMemBlock": "a3f45620-6077-4761-b4bc-6a915f86d585||Sequence: R016 ve11c/master r/e634e98; Dec 19 2017 11:00:25 by eja",
  "dcmmeta_affine": [
    [-2.0, 0.0, 0.0, 106.0],
    [0.0, 1.690523624420166, -1.0687047243118286, -52.65559005737305],
    [0.0, 1.0687047243118286, 1.690523624420166, -79.87129211425781],
    [0.0, 0.0, 0.0, 1.0]
],
  "dcmmeta_reorient_transform": [
    [0.0, -1.0, 0.0, 105.0],
    [1.0, 0.0, 0.0, 0.0],
    [0.0, 0.0, 1.0, 0.0],
    [0.0, 0.0, 0.0, 1.0]
],
  "dcmmeta_shape": [106, 106, 44, 264],
  "dcmmeta_slice_dim": 2,
  "dcmmeta_version": 0.6,
  "global": {
    "const": {
      "AcquisitionMatrix": [106, 0, 0, 106],
      "AngioFlag": "N",
      "BitsAllocated": 16,
      "BitsStored": 16,
      "BodyPartExamined": "BRAIN",
      "CardiacNumberOfImages": 1,
      "Columns": 742,
      "EchoNumbers": 1,
      "EchoTime": 30.0,
      "EchoTrainLength": 80,
      "FlipAngle": 62.0,
      "HighBit": 15,
      "ImageOrientationPatient": [1.0, 0.0, 0.0, 0.0, 0.84526182597848, -0.5343523608477],
      "ImagePositionPatient": [-742.0, -662.43591519586, 372.19080291477],
      "ImageType": [
        "ORIGINAL",
        "PRIMARY",
        "M",
        "MB",
        "ND",
        "MOSAIC"
],
      "ImagedNucleus": "1H",
      "ImagingFrequency": 123.243701,
      "InPlanePhaseEncodingDirection": "COL",
      "MRAcquisitionType": "2D",
      "MagneticFieldStrength": 3.0,
      "Manufacturer": "SIEMENS",
      "ManufacturerModelName": "Prisma",
      "Modality": "MR",
      "NominalInterval": 0,
      "NumberOfAverages": 1.0,
      "NumberOfPhaseEncodingSteps": 80,
      "PercentPhaseFieldOfView": 100.0,
      "PercentSampling": 100.0,
      "PerformedProcedureStepStartTime": "103736.922000",
      "PhotometricInterpretation": "MONOCHROME2",
      "PixelBandwidth": 1815.0,
      "PixelRepresentation": 0,
      "PixelSpacing": [2.0, 2.0],
      "ProtocolName": "func-bold_task-tono_run-02",
      "RepetitionTime": 1000.0,
      "Rows": 742,
      "SAR": 0.03995897609094,
      "SamplesPerPixel": 1,
      "ScanOptions": [
        "PFP",
        "FS",
        "EXT"
],
      "ScanningSequence": "EP",
      "SequenceName": "epfid2d1_106",
      "SequenceVariant": [
        "SK",
        "SS"
],
      "SeriesDescription": "func-bold_task-tono_run-02",
      "SeriesNumber": 20,
      "SeriesTime": "114404.050000",
      "SliceLocation": -39.375517511082,
      "SliceThickness": 2.0,
      "SmallestImagePixelValue": 0,
      "SoftwareVersions": "syngo MR E11",
      "SpacingBetweenSlices": 1.9999999830514,
      "SpecificCharacterSet": "ISO_IR 100",
      "StudyID": "1",
      "StudyTime": "103736.855000",
      "TransmitCoilName": "Body",
      "VariableFlipAngleFlag": "N",
      "WindowCenterWidthExplanation": "Algo1",
      "dBdt": 0.0},
    "slices": {}
  },
  "time": {
    "samples": {
      "AcquisitionNumber": [1, 2, 3, 4, 5, 6, 7, 8, 9, 10, 11, 12, 13, 14, 15, 16, 17, 18, 19, 20, 21, 22, 23, 24, 25, 26, 27, 28, 29, 30, 31, 32, 33, 34, 35, 36, 37, 38, 39, 40, 41, 42, 43, 44, 45, 46, 47, 48, 49, 50, 51, 52, 53, 54, 55, 56, 57, 58, 59, 60, 61, 62, 63, 64, 65, 66, 67, 68, 69, 70, 71, 72, 73, 74, 75, 76, 77, 78, 79, 80, 81, 82, 83, 84, 85, 86, 87, 88, 89, 90, 91, 92, 93, 94, 95, 96, 97, 98, 99, 100, 101, 102, 103, 104, 105, 106, 107, 108, 109, 110, 111, 112, 113, 114, 115, 116, 117, 118, 119, 120, 121, 122, 123, 124, 125, 126, 127, 128, 129, 130, 131, 132, 133, 134, 135, 136, 137, 138, 139, 140, 141, 142, 143, 144, 145, 146, 147, 148, 149, 150, 151, 152, 153, 154, 155, 156, 157, 158, 159, 160, 161, 162, 163, 164, 165, 166, 167, 168, 169, 170, 171, 172, 173, 174, 175, 176, 177, 178, 179, 180, 181, 182, 183, 184, 185, 186, 187, 188, 189, 190, 191, 192, 193, 194, 195, 196, 197, 198, 199, 200, 201, 202, 203, 204, 205, 206, 207, 208, 209, 210, 211, 212, 213, 214, 215, 216, 217, 218, 219, 220, 221, 222, 223, 224, 225, 226, 227, 228, 229, 230, 231, 232, 233, 234, 235, 236, 237, 238, 239, 240, 241, 242, 243, 244, 245, 246, 247, 248, 249, 250, 251, 252, 253, 254, 255, 256, 257, 258, 259, 260, 261, 262, 263, 264],
      "AcquisitionTime": ["114334.907500", "114335.907500", "114336.907500", "114337.907500", "114338.907500", "114339.907500", "114340.907500", "114341.907500", "114342.907500", "114343.907500", "114344.907500", "114345.907500", "114346.907500", "114347.907500", "114348.907500", "114349.907500", "114350.907500", "114351.907500", "114352.907500", "114353.907500", "114354.907500", "114355.907500", "114356.907500", "114357.907500", "114358.907500", "114359.907500", "114400.907500", "114401.907500", "114402.907500", "114403.907500", "114404.907500", "114405.907500", "114406.907500", "114407.907500", "114408.907500", "114409.907500", "114410.907500", "114411.907500", "114412.907500", "114413.907500", "114414.907500", "114415.907500", "114416.907500", "114417.907500", "114418.907500", "114419.907500", "114420.907500", "114421.907500", "114422.907500", "114423.907500", "114424.907500", "114425.907500", "114426.907500", "114427.907500", "114428.907500", "114429.907500", "114430.907500", "114431.907500", "114432.907500", "114433.907500", "114434.907500", "114435.907500", "114436.907500", "114437.907500", "114438.907500", "114439.907500", "114440.907500", "114441.907500", "114442.907500", "114443.907500", "114444.907500", "114445.907500", "114446.907500", "114447.907500", "114448.907500", "114449.907500", "114450.907500", "114451.907500", "114452.907500", "114453.907500", "114454.907500", "114455.907500", "114456.907500", "114457.907500", "114458.907500", "114459.907500", "114500.907500", "114501.907500", "114502.907500", "114503.907500", "114504.907500", "114505.907500", "114506.907500", "114507.907500", "114508.907500", "114509.907500", "114510.907500", "114511.907500", "114512.907500", "114513.907500", "114514.907500", "114515.907500", "114516.907500", "114517.907500", "114518.907500", "114519.907500", "114520.907500", "114521.907500", "114522.907500", "114523.907500", "114524.907500", "114525.907500", "114526.907500", "114527.907500", "114528.907500", "114529.907500", "114530.907500", "114531.907500", "114532.907500", "114533.907500", "114534.907500", "114535.907500", "114536.907500", "114537.907500", "114538.907500", "114539.907500", "114540.907500", "114541.907500", "114542.907500", "114543.907500", "114544.907500", "114545.907500", "114546.907500", "114547.907500", "114548.907500", "114549.907500", "114550.907500", "114551.907500", "114552.907500", "114553.907500", "114554.907500", "114555.907500", "114556.907500", "114557.907500", "114558.907500", "114559.907500", "114600.907500", "114601.907500", "114602.907500", "114603.907500", "114604.907500", "114605.907500", "114606.907500", "114607.907500", "114608.907500", "114609.907500", "114610.907500", "114611.907500", "114612.907500", "114613.907500", "114614.907500", "114615.907500", "114616.907500", "114617.907500", "114618.907500", "114619.907500", "114620.907500", "114621.907500", "114622.907500", "114623.907500", "114624.907500", "114625.907500", "114626.907500", "114627.907500", "114628.907500", "114629.907500", "114630.907500", "114631.907500", "114632.907500", "114633.907500", "114634.907500", "114635.907500", "114636.907500", "114637.907500", "114638.907500", "114639.907500", "114640.907500", "114641.907500", "114642.907500", "114643.907500", "114644.907500", "114645.907500", "114646.907500", "114647.907500", "114648.907500", "114649.907500", "114650.907500", "114651.907500", "114652.907500", "114653.907500", "114654.907500", "114655.907500", "114656.907500", "114657.907500", "114658.907500", "114659.907500", "114700.907500", "114701.907500", "114702.907500", "114703.907500", "114704.907500", "114705.907500", "114706.907500", "114707.907500", "114708.907500", "114709.907500", "114710.907500", "114711.907500", "114712.907500", "114713.907500", "114714.907500", "114715.907500", "114716.907500", "114717.907500", "114718.907500", "114719.907500", "114720.907500", "114721.907500", "114722.907500", "114723.907500", "114724.907500", "114725.907500", "114726.907500", "114727.907500", "114728.907500", "114729.907500", "114730.907500", "114731.907500", "114732.907500", "114733.907500", "114734.907500", "114735.907500", "114736.907500", "114737.907500", "114738.907500", "114739.907500", "114740.907500", "114741.907500", "114742.907500", "114743.907500", "114744.907500", "114745.907500", "114746.907500", "114747.907500", "114748.907500", "114749.907500", "114750.907500", "114751.907500", "114752.907500", "114753.907500", "114754.907500", "114755.907500", "114756.907500", "114757.907500"],
      "ContentTime": ["114404.052000", "114404.055000", "114404.064000", "114404.066000", "114404.069000", "114404.071000", "114404.073000", "114404.076000", "114404.078000", "114404.081000", "114404.084000", "114404.086000", "114404.089000", "114404.091000", "114404.094000", "114404.096000", "114404.099000", "114404.101000", "114404.104000", "114404.106000", "114404.109000", "114404.111000", "114404.113000", "114404.116000", "114404.118000", "114404.121000", "114404.123000", "114404.126000", "114424.018000", "114424.021000", "114424.024000", "114424.026000", "114424.028000", "114424.031000", "114424.033000", "114424.036000", "114424.038000", "114424.050000", "114424.053000", "114424.055000", "114424.058000", "114424.060000", "114424.062000", "114424.065000", "114424.067000", "114424.070000", "114424.076000", "114424.079000", "114444.018000", "114444.021000", "114444.027000", "114444.029000", "114444.032000", "114444.034000", "114444.037000", "114444.039000", "114444.042000", "114444.044000", "114444.047000", "114444.049000", "114444.052000", "114444.054000", "114444.057000", "114444.059000", "114444.062000", "114444.064000", "114444.067000", "114444.069000", "114504.018000", "114504.021000", "114504.024000", "114504.026000", "114504.028000", "114504.031000", "114504.033000", "114504.036000", "114504.038000", "114504.041000", "114504.043000", "114504.046000", "114504.048000", "114504.051000", "114504.053000", "114504.056000", "114504.058000", "114504.061000", "114504.063000", "114504.066000", "114524.019000", "114524.022000", "114524.025000", "114524.027000", "114524.029000", "114524.032000", "114524.035000", "114524.037000", "114524.039000", "114524.042000", "114524.044000", "114524.047000", "114524.049000", "114524.052000", "114524.054000", "114524.057000", "114524.059000", "114524.062000", "114524.064000", "114524.067000", "114544.018000", "114544.021000", "114544.024000", "114544.026000", "114544.029000", "114544.031000", "114544.045000", "114544.048000", "114544.050000", "114544.053000", "114544.055000", "114544.058000", "114544.060000", "114544.062000", "114544.065000", "114544.067000", "114544.070000", "114544.072000", "114544.075000", "114544.077000", "114604.018000", "114604.021000", "114604.024000", "114604.026000", "114604.029000", "114604.031000", "114604.034000", "114604.036000", "114604.039000", "114604.041000", "114604.044000", "114604.052000", "114604.055000", "114604.057000", "114604.060000", "114604.062000", "114604.065000", "114604.067000", "114604.070000", "114604.072000", "114624.018000", "114624.021000", "114624.024000", "114624.027000", "114624.029000", "114624.031000", "114624.034000", "114624.036000", "114624.039000", "114624.041000", "114624.044000", "114624.046000", "114624.049000", "114624.051000", "114624.053000", "114624.056000", "114624.058000", "114624.061000", "114624.063000", "114624.066000", "114644.018000", "114644.021000", "114644.024000", "114644.026000", "114644.029000", "114644.031000", "114644.034000", "114644.036000", "114644.039000", "114644.041000", "114644.044000", "114644.046000", "114644.049000", "114644.051000", "114644.054000", "114644.056000", "114644.059000", "114644.061000", "114644.064000", "114644.074000", "114704.018000", "114704.021000", "114704.024000", "114704.026000", "114704.029000", "114704.031000", "114704.034000", "114704.036000", "114704.038000", "114704.041000", "114704.044000", "114704.046000", "114704.049000", "114704.051000", "114704.054000", "114704.056000", "114704.058000", "114704.061000", "114704.064000", "114704.066000", "114724.018000", "114724.021000", "114724.023000", "114724.026000", "114724.028000", "114724.031000", "114724.033000", "114724.036000", "114724.038000", "114724.041000", "114724.043000", "114724.046000", "114724.048000", "114724.051000", "114724.053000", "114724.056000", "114724.058000", "114724.061000", "114724.063000", "114724.066000", "114744.019000", "114744.022000", "114744.025000", "114744.027000", "114744.029000", "114744.032000", "114744.034000", "114744.037000", "114744.039000", "114744.042000", "114744.044000", "114744.052000", "114744.054000", "114744.057000", "114744.060000", "114744.062000", "114744.064000", "114744.067000", "114744.070000", "114744.072000", "114759.288000", "114759.291000", "114759.294000", "114759.296000", "114759.299000", "114759.301000", "114759.304000", "114759.306000", "114759.309000", "114759.311000", "114759.314000", "114759.316000", "114759.318000", "114759.321000", "114759.324000", "114759.327000"],
      "InstanceCreationTime": ["114404.052000", "114404.055000", "114404.064000", "114404.066000", "114404.069000", "114404.071000", "114404.073000", "114404.076000", "114404.078000", "114404.081000", "114404.084000", "114404.086000", "114404.089000", "114404.091000", "114404.094000", "114404.096000", "114404.099000", "114404.101000", "114404.104000", "114404.106000", "114404.109000", "114404.111000", "114404.113000", "114404.116000", "114404.118000", "114404.121000", "114404.123000", "114404.126000", "114424.018000", "114424.021000", "114424.024000", "114424.026000", "114424.028000", "114424.031000", "114424.033000", "114424.036000", "114424.038000", "114424.050000", "114424.053000", "114424.055000", "114424.058000", "114424.060000", "114424.062000", "114424.065000", "114424.067000", "114424.070000", "114424.076000", "114424.079000", "114444.018000", "114444.021000", "114444.027000", "114444.029000", "114444.032000", "114444.034000", "114444.037000", "114444.039000", "114444.042000", "114444.044000", "114444.047000", "114444.049000", "114444.052000", "114444.054000", "114444.057000", "114444.059000", "114444.062000", "114444.064000", "114444.067000", "114444.069000", "114504.018000", "114504.021000", "114504.024000", "114504.026000", "114504.028000", "114504.031000", "114504.033000", "114504.036000", "114504.038000", "114504.041000", "114504.043000", "114504.046000", "114504.048000", "114504.051000", "114504.053000", "114504.056000", "114504.058000", "114504.061000", "114504.063000", "114504.066000", "114524.019000", "114524.022000", "114524.025000", "114524.027000", "114524.029000", "114524.032000", "114524.035000", "114524.037000", "114524.039000", "114524.042000", "114524.044000", "114524.047000", "114524.049000", "114524.052000", "114524.054000", "114524.057000", "114524.059000", "114524.062000", "114524.064000", "114524.067000", "114544.018000", "114544.021000", "114544.024000", "114544.026000", "114544.029000", "114544.031000", "114544.045000", "114544.048000", "114544.050000", "114544.053000", "114544.055000", "114544.058000", "114544.060000", "114544.062000", "114544.065000", "114544.067000", "114544.070000", "114544.072000", "114544.075000", "114544.077000", "114604.018000", "114604.021000", "114604.024000", "114604.026000", "114604.029000", "114604.031000", "114604.034000", "114604.036000", "114604.039000", "114604.041000", "114604.044000", "114604.052000", "114604.055000", "114604.057000", "114604.060000", "114604.062000", "114604.065000", "114604.067000", "114604.070000", "114604.072000", "114624.018000", "114624.021000", "114624.024000", "114624.027000", "114624.029000", "114624.031000", "114624.034000", "114624.036000", "114624.039000", "114624.041000", "114624.044000", "114624.046000", "114624.049000", "114624.051000", "114624.053000", "114624.056000", "114624.058000", "114624.061000", "114624.063000", "114624.066000", "114644.018000", "114644.021000", "114644.024000", "114644.026000", "114644.029000", "114644.031000", "114644.034000", "114644.036000", "114644.039000", "114644.041000", "114644.044000", "114644.046000", "114644.049000", "114644.051000", "114644.054000", "114644.056000", "114644.059000", "114644.061000", "114644.064000", "114644.074000", "114704.018000", "114704.021000", "114704.024000", "114704.026000", "114704.029000", "114704.031000", "114704.034000", "114704.036000", "114704.038000", "114704.041000", "114704.044000", "114704.046000", "114704.049000", "114704.051000", "114704.054000", "114704.056000", "114704.058000", "114704.061000", "114704.064000", "114704.066000", "114724.018000", "114724.021000", "114724.023000", "114724.026000", "114724.028000", "114724.031000", "114724.033000", "114724.036000", "114724.038000", "114724.041000", "114724.043000", "114724.046000", "114724.048000", "114724.051000", "114724.053000", "114724.056000", "114724.058000", "114724.061000", "114724.063000", "114724.066000", "114744.019000", "114744.022000", "114744.025000", "114744.027000", "114744.029000", "114744.032000", "114744.034000", "114744.037000", "114744.039000", "114744.042000", "114744.044000", "114744.052000", "114744.054000", "114744.057000", "114744.060000", "114744.062000", "114744.064000", "114744.067000", "114744.070000", "114744.072000", "114759.288000", "114759.291000", "114759.294000", "114759.296000", "114759.299000", "114759.301000", "114759.304000", "114759.306000", "114759.309000", "114759.311000", "114759.314000", "114759.316000", "114759.318000", "114759.321000", "114759.324000", "114759.327000"],
      "InstanceNumber": [1, 2, 3, 4, 5, 6, 7, 8, 9, 10, 11, 12, 13, 14, 15, 16, 17, 18, 19, 20, 21, 22, 23, 24, 25, 26, 27, 28, 29, 30, 31, 32, 33, 34, 35, 36, 37, 38, 39, 40, 41, 42, 43, 44, 45, 46, 47, 48, 49, 50, 51, 52, 53, 54, 55, 56, 57, 58, 59, 60, 61, 62, 63, 64, 65, 66, 67, 68, 69, 70, 71, 72, 73, 74, 75, 76, 77, 78, 79, 80, 81, 82, 83, 84, 85, 86, 87, 88, 89, 90, 91, 92, 93, 94, 95, 96, 97, 98, 99, 100, 101, 102, 103, 104, 105, 106, 107, 108, 109, 110, 111, 112, 113, 114, 115, 116, 117, 118, 119, 120, 121, 122, 123, 124, 125, 126, 127, 128, 129, 130, 131, 132, 133, 134, 135, 136, 137, 138, 139, 140, 141, 142, 143, 144, 145, 146, 147, 148, 149, 150, 151, 152, 153, 154, 155, 156, 157, 158, 159, 160, 161, 162, 163, 164, 165, 166, 167, 168, 169, 170, 171, 172, 173, 174, 175, 176, 177, 178, 179, 180, 181, 182, 183, 184, 185, 186, 187, 188, 189, 190, 191, 192, 193, 194, 195, 196, 197, 198, 199, 200, 201, 202, 203, 204, 205, 206, 207, 208, 209, 210, 211, 212, 213, 214, 215, 216, 217, 218, 219, 220, 221, 222, 223, 224, 225, 226, 227, 228, 229, 230, 231, 232, 233, 234, 235, 236, 237, 238, 239, 240, 241, 242, 243, 244, 245, 246, 247, 248, 249, 250, 251, 252, 253, 254, 255, 256, 257, 258, 259, 260, 261, 262, 263, 264],
      "LargestImagePixelValue": [14356, 13670, 14059, 14179, 14712, 15100, 14615, 13435, 12548, 12241, 12437, 12667, 13066, 13295, 13414, 13465, 13925, 13880, 13896, 13627, 13261, 13246, 13287, 13371, 13954, 13991, 14214, 14105, 14000, 13868, 13586, 13459, 13476, 13635, 13605, 13745, 13547, 13563, 13542, 13722, 13558, 13546, 13247, 12996, 12971, 13039, 13330, 13489, 13591, 13754, 13555, 13646, 13682, 13646, 13818, 13866, 13677, 13892, 13419, 13503, 13472, 13698, 13879, 14125, 13831, 13369, 13379, 13435, 13677, 13725, 13495, 13718, 13955, 13647, 13434, 13848, 14202, 13727, 13372, 13624, 13849, 13611, 13652, 13562, 13632, 13516, 13827, 13949, 14087, 14498, 13633, 13523, 13930, 13833, 13911, 13836, 14091, 14160, 13847, 14068, 13663, 14052, 13826, 13707, 13944, 14093, 14250, 13959, 14162, 13775, 13717, 13531, 13626, 13912, 14085, 13872, 13670, 13638, 13111, 13590, 13704, 13999, 14052, 13843, 13984, 13418, 13329, 13381, 13490, 13554, 13613, 13346, 13846, 14049, 13248, 13220, 13753, 13868, 13670, 13761, 13254, 12754, 12971, 13365, 13730, 13717, 13234, 13075, 13371, 13269, 13533, 13822, 13723, 13616, 13614, 13387, 13430, 13332, 13580, 13718, 13639, 13637, 13657, 13368, 13502, 13427, 13741, 14169, 13702, 14044, 13738, 13543, 13498, 13729, 13760, 13888, 14132, 14165, 13920, 13833, 13727, 13748, 13352, 13944, 13828, 13848, 13590, 13714, 13961, 14144, 13971, 13578, 13652, 13297, 13166, 13685, 13750, 13779, 13860, 13266, 13128, 13377, 13427, 13860, 13946, 13820, 13242, 13340, 13607, 13682, 14003, 13705, 13427, 13037, 13028, 13256, 13352, 13156, 13326, 13526, 13318, 13198, 13461, 13595, 13590, 13680, 13691, 13708, 13646, 13132, 13488, 13660, 13909, 14196, 14152, 13375, 13468, 13144, 13617, 13683, 13766, 13936, 14073, 14012, 14038, 13356, 13655, 13538, 13350, 13832, 14000, 14043, 13886, 13928, 13872, 13927, 13736, 13415, 13669, 13931, 13718, 13457, 13820, 13673],
      "TriggerTime": [8102.5, 9102.5, 10102.5, 11102.5, 12102.5, 13102.5, 14102.5, 15102.5, 16102.5, 17102.5, 18102.5, 19102.5, 20102.5, 21102.5, 22102.5, 23102.5, 24102.5, 25102.5, 26102.5, 27102.5, 28102.5, 29102.5, 30102.5, 31102.5, 32102.5, 33102.5, 34102.5, 35102.5, 36102.5, 37102.5, 38102.5, 39102.5, 40102.5, 41102.5, 42102.5, 43102.5, 44102.5, 45102.5, 46102.5, 47102.5, 48102.5, 49102.5, 50102.5, 51102.5, 52102.5, 53102.5, 54102.5, 55102.5, 56102.5, 57102.5, 58102.5, 59102.5, 60102.5, 61102.5, 62102.5, 63102.5, 64102.5, 65102.5, 66102.5, 67102.5, 68102.5, 69102.5, 70102.5, 71102.5, 72102.5, 73102.5, 74102.5, 75102.5, 76102.5, 77102.5, 78102.5, 79102.5, 80102.5, 81102.5, 82102.5, 83102.5, 84102.5, 85102.5, 86102.5, 87102.5, 88102.5, 89102.5, 90102.5, 91102.5, 92102.5, 93102.5, 94102.5, 95102.5, 96102.5, 97102.5, 98102.5, 99102.5, 100102.5, 101102.5, 102102.5, 103102.5, 104102.5, 105102.5, 106102.5, 107102.5, 108102.5, 109102.5, 110102.5, 111102.5, 112102.5, 113102.5, 114102.5, 115102.5, 116102.5, 117102.5, 118102.5, 119102.5, 120102.5, 121102.5, 122102.5, 123102.5, 124102.5, 125102.5, 126102.5, 127102.5, 128102.5, 129102.5, 130102.5, 131102.5, 132102.5, 133102.5, 134102.5, 135102.5, 136102.5, 137102.5, 138102.5, 139102.5, 140102.5, 141102.5, 142102.5, 143102.5, 144102.5, 145102.5, 146102.5, 147102.5, 148102.5, 149102.5, 150102.5, 151102.5, 152102.5, 153102.5, 154102.5, 155102.5, 156102.5, 157102.5, 158102.5, 159102.5, 160102.5, 161102.5, 162102.5, 163102.5, 164102.5, 165102.5, 166102.5, 167102.5, 168102.5, 169102.5, 170102.5, 171102.5, 172102.5, 173102.5, 174102.5, 175102.5, 176102.5, 177102.5, 178102.5, 179102.5, 180102.5, 181102.5, 182102.5, 183102.5, 184102.5, 185102.5, 186102.5, 187102.5, 188102.5, 189102.5, 190102.5, 191102.5, 192102.5, 193102.5, 194102.5, 195102.5, 196102.5, 197102.5, 198102.5, 199102.5, 200102.5, 201102.5, 202102.5, 203102.5, 204102.5, 205102.5, 206102.5, 207102.5, 208102.5, 209102.5, 210102.5, 211102.5, 212102.5, 213102.5, 214102.5, 215102.5, 216102.5, 217102.5, 218102.5, 219102.5, 220102.5, 221102.5, 222102.5, 223102.5, 224102.5, 225102.5, 226102.5, 227102.5, 228102.5, 229102.5, 230102.5, 231102.5, 232102.5, 233102.5, 234102.5, 235102.5, 236102.5, 237102.5, 238102.5, 239102.5, 240102.5, 241102.5, 242102.5, 243102.5, 244102.5, 245102.5, 246102.5, 247102.5, 248102.5, 249102.5, 250102.5, 251102.5, 252102.5, 253102.5, 254102.5, 255102.5, 256102.5, 257102.5, 258102.5, 259102.5, 260102.5, 261102.5, 262102.5, 263102.5, 264102.5, 265102.5, 266102.5, 267102.5, 268102.5, 269102.5, 270102.5, 271102.5],
      "WindowCenter": [4513.0, 4486.0, 4484.0, 4488.0, 4496.0, 4506.0, 4492.0, 4452.0, 4417.0, 4417.0, 4428.0, 4429.0, 4442.0, 4452.0, 4439.0, 4425.0, 4431.0, 4419.0, 4419.0, 4420.0, 4411.0, 4423.0, 4424.0, 4436.0, 4449.0, 4461.0, 4462.0, 4462.0, 4462.0, 4463.0, 4464.0, 4466.0, 4468.0, 4481.0, 4482.0, 4494.0, 4484.0, 4485.0, 4485.0, 4495.0, 4486.0, 4499.0, 4501.0, 4501.0, 4500.0, 4488.0, 4497.0, 4496.0, 4497.0, 4497.0, 4499.0, 4509.0, 4509.0, 4509.0, 4499.0, 4511.0, 4512.0, 4512.0, 4501.0, 4500.0, 4499.0, 4509.0, 4509.0, 4508.0, 4499.0, 4498.0, 4498.0, 4486.0, 4496.0, 4496.0, 4486.0, 4497.0, 4508.0, 4498.0, 4499.0, 4511.0, 4511.0, 4511.0, 4499.0, 4498.0, 4498.0, 4496.0, 4495.0, 4484.0, 4483.0, 4483.0, 4482.0, 4492.0, 4492.0, 4492.0, 4482.0, 4482.0, 4494.0, 4494.0, 4484.0, 4482.0, 4492.0, 4493.0, 4494.0, 4495.0, 4495.0, 4494.0, 4483.0, 4493.0, 4494.0, 4506.0, 4509.0, 4508.0, 4507.0, 4496.0, 4494.0, 4483.0, 4483.0, 4483.0, 4493.0, 4494.0, 4495.0, 4497.0, 4487.0, 4497.0, 4496.0, 4496.0, 4495.0, 4496.0, 4506.0, 4497.0, 4498.0, 4498.0, 4498.0, 4498.0, 4498.0, 4499.0, 4510.0, 4509.0, 4499.0, 4499.0, 4511.0, 4512.0, 4511.0, 4511.0, 4502.0, 4503.0, 4502.0, 4501.0, 4511.0, 4499.0, 4488.0, 4488.0, 4498.0, 4486.0, 4486.0, 4495.0, 4495.0, 4495.0, 4496.0, 4496.0, 4485.0, 4485.0, 4484.0, 4496.0, 4495.0, 4495.0, 4496.0, 4487.0, 4486.0, 4485.0, 4495.0, 4507.0, 4498.0, 4497.0, 4485.0, 4484.0, 4483.0, 4484.0, 4494.0, 4494.0, 4494.0, 4494.0, 4494.0, 4484.0, 4484.0, 4495.0, 4484.0, 4494.0, 4483.0, 4483.0, 4483.0, 4484.0, 4495.0, 4507.0, 4508.0, 4499.0, 4500.0, 4499.0, 4488.0, 4499.0, 4499.0, 4498.0, 4509.0, 4501.0, 4503.0, 4514.0, 4501.0, 4510.0, 4511.0, 4511.0, 4500.0, 4501.0, 4511.0, 4499.0, 4508.0, 4497.0, 4486.0, 4487.0, 4486.0, 4486.0, 4496.0, 4486.0, 4486.0, 4487.0, 4498.0, 4488.0, 4497.0, 4486.0, 4486.0, 4497.0, 4497.0, 4497.0, 4499.0, 4499.0, 4499.0, 4498.0, 4498.0, 4509.0, 4510.0, 4499.0, 4499.0, 4488.0, 4498.0, 4497.0, 4496.0, 4497.0, 4508.0, 4507.0, 4496.0, 4484.0, 4483.0, 4483.0, 4483.0, 4483.0, 4494.0, 4495.0, 4495.0, 4495.0, 4495.0, 4496.0, 4495.0, 4486.0, 4496.0, 4508.0, 4509.0, 4500.0, 4513.0, 4513.0],
