{
  "AcquisitionMatrixPE": 106,
  "AcquisitionNumber": 1,
  "AcquisitionTime": "10:49:2.400000",
  "BandwidthPerPixelPhaseEncode": 13.477,
  "BaseResolution": 106,
  "BodyPartExamined": "BRAIN",
  "CoilCombinationMethod": "Sum of Squares",
  "ConsistencyInfo": "N4_VE11C_LATEST_20160120",
  "ConversionSoftware": "dcm2niix",
  "ConversionSoftwareVersion": "v1.0.20220720",
  "DerivedVendorReportedEchoSpacing": 0.000700005,
  "DeviceSerialNumber": "166108",
  "DwellTime": 2.6e-06,
  "EchoTime": 0.03,
  "EchoTrainLength": 80,
  "EffectiveEchoSpacing": 0.000700005,
  "FlipAngle": 62,
  "HeudiconvVersion": "1.3.0",
  "ImageComments": "Unaliased MB4/PE3/LB",
  "ImageOrientationPatientDICOM": [1, 0, 0, 0, 0.971961, -0.235142],
  "ImageOrientationText": "Tra>Cor(-13.6)",
  "ImageType": [
    "ORIGINAL",
    "PRIMARY",
    "M",
    "MB",
    "ND",
    "MOSAIC"
],
  "ImagingFrequency": 123.244,
  "InPlanePhaseEncodingDirectionDICOM": "COL",
  "InstitutionAddress": "Bedford Way 26,London,London,GB,WC1H 0AP",
  "InstitutionName": "University College",
  "InstitutionalDepartmentName": "Department",
  "MRAcquisitionType": "2D",
  "MagneticFieldStrength": 3,
  "Manufacturer": "Siemens",
  "ManufacturersModelName": "Prisma",
  "MatrixCoilMode": "SENSE",
  "Modality": "MR",
  "MultibandAccelerationFactor": 4,
  "NonlinearGradientCorrection": false,
  "PartialFourier": 0.75,
  "PatientPosition": "HFS",
  "PercentPhaseFOV": 100,
  "PercentSampling": 100,
  "PhaseEncodingDirection": "j-",
  "PhaseEncodingSteps": 80,
  "PhaseResolution": 1,
  "PixelBandwidth": 1815,
  "ProcedureStepDescription": "Egor^MovieProject2",
  "ProtocolName": "func-bold_task-motor_run-01",
  "PulseSequenceDetails": "%CustomerSeq%\\cmrr_mbep2d_bold",
  "ReceiveCoilActiveElements": "HEA;HEP",
  "ReceiveCoilName": "Head_32",
  "ReconMatrixPE": 106,
  "RepetitionTime": 1,
  "SAR": 0.0400929,
  "ScanOptions": "PFP\\FS\\EXT",
  "ScanningSequence": "EP",
  "SequenceName": "epfid2d1_106",
  "SequenceVariant": "SK\\SS",
  "SeriesDescription": "func-bold_task-motor_run-01",
  "SeriesNumber": 4,
  "ShimSetting": [-1590, 649, 7401, 55, -34, 110, -19, 6],
  "SliceThickness": 2,
  "SliceTiming": [0, 0.535, 0.09, 0.625, 0.18, 0.7125, 0.2675, 0.8025, 0.3575, 0.8925, 0.445, 0, 0.535, 0.09, 0.625, 0.18, 0.7125, 0.2675, 0.8025, 0.3575, 0.8925, 0.445, 0, 0.535, 0.09, 0.625, 0.18, 0.7125, 0.2675, 0.8025, 0.3575, 0.8925, 0.445, 0, 0.535, 0.09, 0.625, 0.18, 0.7125, 0.2675, 0.8025, 0.3575, 0.8925, 0.445],
  "SoftwareVersions": "syngo MR E11",
  "SpacingBetweenSlices": 2,
  "StationName": "AWP166108",
  "TaskName": "somatotopy",
  "TotalReadoutTime": 0.0735005,
  "TxRefAmp": 245.358,
  "WipMemBlock": "d97d0d3b-fa9f-4e87-8da2-2a4c198ccaa5||Sequence: R016 ve11c/master r/e634e98; Dec 19 2017 11:00:25 by eja",
  "dcmmeta_affine": [
    [-2.0, 0.0, 0.0, 106.0],
    [0.0, 1.9439220428466797, -0.47028422355651855, -81.78268432617188],
    [0.0, 0.47028419375419617, 1.9439220428466797, -28.90992546081543],
    [0.0, 0.0, 0.0, 1.0]
],
  "dcmmeta_reorient_transform": [
    [0.0, -1.0, 0.0, 105.0],
    [1.0, 0.0, 0.0, 0.0],
    [0.0, 0.0, 1.0, 0.0],
    [0.0, 0.0, 0.0, 1.0]
],
  "dcmmeta_shape": [106, 106, 44, 467],
  "dcmmeta_slice_dim": 2,
  "dcmmeta_version": 0.6,
  "global": {
    "const": {
      "AcquisitionMatrix": [106, 0, 0, 106],
      "AngioFlag": "N",
      "BitsAllocated": 16,
      "BitsStored": 16,
      "BodyPartExamined": "BRAIN",
      "CardiacNumberOfImages": 1,
      "Columns": 742,
      "EchoNumbers": 1,
      "EchoTime": 30.0,
      "EchoTrainLength": 80,
      "FlipAngle": 62.0,
      "HighBit": 15,
      "ImageOrientationPatient": [1.0, 0.0, 0.0, 0.0, 0.97196100271939, -0.2351421042534],
      "ImagePositionPatient": [-742.0, -740.49632591964, 170.02029408964],
      "ImageType": [
        "ORIGINAL",
        "PRIMARY",
        "M",
        "MB",
        "ND",
        "MOSAIC"
],
      "ImagedNucleus": "1H",
      "ImagingFrequency": 123.243703,
      "InPlanePhaseEncodingDirection": "COL",
      "MRAcquisitionType": "2D",
      "MagneticFieldStrength": 3.0,
      "Manufacturer": "SIEMENS",
      "ManufacturerModelName": "Prisma",
      "Modality": "MR",
      "NominalInterval": 0,
      "NumberOfAverages": 1.0,
      "NumberOfPhaseEncodingSteps": 80,
      "PercentPhaseFieldOfView": 100.0,
      "PercentSampling": 100.0,
      "PerformedProcedureStepStartTime": "103736.922000",
      "PhotometricInterpretation": "MONOCHROME2",
      "PixelBandwidth": 1815.0,
      "PixelRepresentation": 0,
      "PixelSpacing": [2.0, 2.0],
      "ProtocolName": "func-bold_task-motor_run-01",
      "RepetitionTime": 1000.0,
      "Rows": 742,
      "SAR": 0.04009288381821,
      "SamplesPerPixel": 1,
      "ScanOptions": [
        "PFP",
        "FS",
        "EXT"
],
      "ScanningSequence": "EP",
      "SequenceName": "epfid2d1_106",
      "SequenceVariant": [
        "SK",
        "SS"
],
      "SeriesDescription": "func-bold_task-motor_run-01",
      "SeriesNumber": 4,
      "SeriesTime": "104933.428000",
      "SliceLocation": -8.8687687426495,
      "SliceThickness": 2.0,
      "SmallestImagePixelValue": 0,
      "SoftwareVersions": "syngo MR E11",
      "SpacingBetweenSlices": 2.0000000062592,
      "SpecificCharacterSet": "ISO_IR 100",
      "StudyID": "1",
      "StudyTime": "103736.855000",
      "TransmitCoilName": "Body",
      "VariableFlipAngleFlag": "N",
      "WindowCenterWidthExplanation": "Algo1",
      "dBdt": 0.0},
    "slices": {}
  },
  "time": {
    "samples": {
      "AcquisitionNumber": [1, 2, 3, 4, 5, 6, 7, 8, 9, 10, 11, 12, 13, 14, 15, 16, 17, 18, 19, 20, 21, 22, 23, 24, 25, 26, 27, 28, 29, 30, 31, 32, 33, 34, 35, 36, 37, 38, 39, 40, 41, 42, 43, 44, 45, 46, 47, 48, 49, 50, 51, 52, 53, 54, 55, 56, 57, 58, 59, 60, 61, 62, 63, 64, 65, 66, 67, 68, 69, 70, 71, 72, 73, 74, 75, 76, 77, 78, 79, 80, 81, 82, 83, 84, 85, 86, 87, 88, 89, 90, 91, 92, 93, 94, 95, 96, 97, 98, 99, 100, 101, 102, 103, 104, 105, 106, 107, 108, 109, 110, 111, 112, 113, 114, 115, 116, 117, 118, 119, 120, 121, 122, 123, 124, 125, 126, 127, 128, 129, 130, 131, 132, 133, 134, 135, 136, 137, 138, 139, 140, 141, 142, 143, 144, 145, 146, 147, 148, 149, 150, 151, 152, 153, 154, 155, 156, 157, 158, 159, 160, 161, 162, 163, 164, 165, 166, 167, 168, 169, 170, 171, 172, 173, 174, 175, 176, 177, 178, 179, 180, 181, 182, 183, 184, 185, 186, 187, 188, 189, 190, 191, 192, 193, 194, 195, 196, 197, 198, 199, 200, 201, 202, 203, 204, 205, 206, 207, 208, 209, 210, 211, 212, 213, 214, 215, 216, 217, 218, 219, 220, 221, 222, 223, 224, 225, 226, 227, 228, 229, 230, 231, 232, 233, 234, 235, 236, 237, 238, 239, 240, 241, 242, 243, 244, 245, 246, 247, 248, 249, 250, 251, 252, 253, 254, 255, 256, 257, 258, 259, 260, 261, 262, 263, 264, 265, 266, 267, 268, 269, 270, 271, 272, 273, 274, 275, 276, 277, 278, 279, 280, 281, 282, 283, 284, 285, 286, 287, 288, 289, 290, 291, 292, 293, 294, 295, 296, 297, 298, 299, 300, 301, 302, 303, 304, 305, 306, 307, 308, 309, 310, 311, 312, 313, 314, 315, 316, 317, 318, 319, 320, 321, 322, 323, 324, 325, 326, 327, 328, 329, 330, 331, 332, 333, 334, 335, 336, 337, 338, 339, 340, 341, 342, 343, 344, 345, 346, 347, 348, 349, 350, 351, 352, 353, 354, 355, 356, 357, 358, 359, 360, 361, 362, 363, 364, 365, 366, 367, 368, 369, 370, 371, 372, 373, 374, 375, 376, 377, 378, 379, 380, 381, 382, 383, 384, 385, 386, 387, 388, 389, 390, 391, 392, 393, 394, 395, 396, 397, 398, 399, 400, 401, 402, 403, 404, 405, 406, 407, 408, 409, 410, 411, 412, 413, 414, 415, 416, 417, 418, 419, 420, 421, 422, 423, 424, 425, 426, 427, 428, 429, 430, 431, 432, 433, 434, 435, 436, 437, 438, 439, 440, 441, 442, 443, 444, 445, 446, 447, 448, 449, 450, 451, 452, 453, 454, 455, 456, 457, 458, 459, 460, 461, 462, 463, 464, 465, 466, 467],
      "AcquisitionTime": ["104902.400000", "104903.400000", "104904.400000", "104905.400000", "104906.400000", "104907.400000", "104908.400000", "104909.400000", "104910.400000", "104911.400000", "104912.400000", "104913.400000", "104914.400000", "104915.400000", "104916.400000", "104917.400000", "104918.400000", "104919.400000", "104920.400000", "104921.400000", "104922.400000", "104923.400000", "104924.400000", "104925.400000", "104926.400000", "104927.400000", "104928.400000", "104929.400000", "104930.400000", "104931.400000", "104932.400000", "104933.400000", "104934.400000", "104935.400000", "104936.400000", "104937.400000", "104938.400000", "104939.400000", "104940.400000", "104941.400000", "104942.400000", "104943.400000", "104944.400000", "104945.400000", "104946.400000", "104947.400000", "104948.400000", "104949.400000", "104950.400000", "104951.400000", "104952.400000", "104953.400000", "104954.400000", "104955.400000", "104956.400000", "104957.400000", "104958.400000", "104959.400000", "105000.400000", "105001.400000", "105002.400000", "105003.400000", "105004.400000", "105005.400000", "105006.400000", "105007.400000", "105008.400000", "105009.400000", "105010.400000", "105011.400000", "105012.400000", "105013.400000", "105014.400000", "105015.400000", "105016.400000", "105017.400000", "105018.400000", "105019.400000", "105020.400000", "105021.400000", "105022.400000", "105023.400000", "105024.400000", "105025.400000", "105026.400000", "105027.400000", "105028.400000", "105029.400000", "105030.400000", "105031.400000", "105032.400000", "105033.400000", "105034.400000", "105035.400000", "105036.400000", "105037.400000", "105038.400000", "105039.400000", "105040.400000", "105041.400000", "105042.400000", "105043.400000", "105044.400000", "105045.400000", "105046.400000", "105047.400000", "105048.400000", "105049.400000", "105050.400000", "105051.400000", "105052.400000", "105053.400000", "105054.400000", "105055.400000", "105056.400000", "105057.400000", "105058.400000", "105059.400000", "105100.400000", "105101.400000", "105102.400000", "105103.400000", "105104.400000", "105105.400000", "105106.400000", "105107.400000", "105108.400000", "105109.400000", "105110.400000", "105111.400000", "105112.400000", "105113.400000", "105114.400000", "105115.400000", "105116.400000", "105117.400000", "105118.400000", "105119.400000", "105120.400000", "105121.400000", "105122.400000", "105123.400000", "105124.400000", "105125.400000", "105126.400000", "105127.400000", "105128.400000", "105129.400000", "105130.400000", "105131.400000", "105132.400000", "105133.400000", "105134.400000", "105135.400000", "105136.400000", "105137.400000", "105138.400000", "105139.400000", "105140.400000", "105141.400000", "105142.400000", "105143.400000", "105144.400000", "105145.400000", "105146.400000", "105147.400000", "105148.400000", "105149.400000", "105150.400000", "105151.400000", "105152.400000", "105153.400000", "105154.400000", "105155.400000", "105156.400000", "105157.400000", "105158.400000", "105159.400000", "105200.400000", "105201.400000", "105202.400000", "105203.400000", "105204.400000", "105205.400000", "105206.400000", "105207.400000", "105208.400000", "105209.400000", "105210.400000", "105211.400000", "105212.400000", "105213.400000", "105214.400000", "105215.400000", "105216.400000", "105217.400000", "105218.400000", "105219.400000", "105220.400000", "105221.400000", "105222.400000", "105223.400000", "105224.400000", "105225.400000", "105226.400000", "105227.400000", "105228.400000", "105229.400000", "105230.400000", "105231.400000", "105232.400000", "105233.400000", "105234.400000", "105235.400000", "105236.400000", "105237.400000", "105238.400000", "105239.400000", "105240.400000", "105241.400000", "105242.400000", "105243.400000", "105244.400000", "105245.400000", "105246.400000", "105247.400000", "105248.400000", "105249.400000", "105250.400000", "105251.400000", "105252.400000", "105253.400000", "105254.400000", "105255.400000", "105256.400000", "105257.400000", "105258.400000", "105259.400000", "105300.400000", "105301.400000", "105302.400000", "105303.400000", "105304.400000", "105305.400000", "105306.400000", "105307.400000", "105308.400000", "105309.400000", "105310.400000", "105311.400000", "105312.400000", "105313.400000", "105314.400000", "105315.400000", "105316.400000", "105317.400000", "105318.400000", "105319.400000", "105320.400000", "105321.400000", "105322.400000", "105323.400000", "105324.400000", "105325.400000", "105326.400000", "105327.400000", "105328.400000", "105329.400000", "105330.400000", "105331.400000", "105332.400000", "105333.400000", "105334.400000", "105335.400000", "105336.400000", "105337.400000", "105338.400000", "105339.400000", "105340.400000", "105341.400000", "105342.400000", "105343.400000", "105344.400000", "105345.400000", "105346.400000", "105347.400000", "105348.400000", "105349.400000", "105350.400000", "105351.400000", "105352.400000", "105353.400000", "105354.400000", "105355.400000", "105356.400000", "105357.400000", "105358.400000", "105359.400000", "105400.400000", "105401.400000", "105402.400000", "105403.400000", "105404.400000", "105405.400000", "105406.400000", "105407.400000", "105408.400000", "105409.400000", "105410.400000", "105411.400000", "105412.400000", "105413.400000", "105414.400000", "105415.400000", "105416.400000", "105417.400000", "105418.400000", "105419.400000", "105420.400000", "105421.400000", "105422.400000", "105423.400000", "105424.400000", "105425.400000", "105426.400000", "105427.400000", "105428.400000", "105429.400000", "105430.400000", "105431.400000", "105432.400000", "105433.400000", "105434.400000", "105435.400000", "105436.400000", "105437.400000", "105438.400000", "105439.400000", "105440.400000", "105441.400000", "105442.400000", "105443.400000", "105444.400000", "105445.400000", "105446.400000", "105447.400000", "105448.400000", "105449.400000", "105450.400000", "105451.400000", "105452.400000", "105453.400000", "105454.400000", "105455.400000", "105456.400000", "105457.400000", "105458.400000", "105459.400000", "105500.400000", "105501.400000", "105502.400000", "105503.400000", "105504.400000", "105505.400000", "105506.400000", "105507.400000", "105508.400000", "105509.400000", "105510.400000", "105511.400000", "105512.400000", "105513.400000", "105514.400000", "105515.400000", "105516.400000", "105517.400000", "105518.400000", "105519.400000", "105520.400000", "105521.400000", "105522.400000", "105523.400000", "105524.400000", "105525.400000", "105526.400000", "105527.400000", "105528.400000", "105529.400000", "105530.400000", "105531.400000", "105532.400000", "105533.400000", "105534.400000", "105535.400000", "105536.400000", "105537.400000", "105538.400000", "105539.400000", "105540.400000", "105541.400000", "105542.400000", "105543.400000", "105544.400000", "105545.400000", "105546.400000", "105547.400000", "105548.400000", "105549.400000", "105550.400000", "105551.400000", "105552.400000", "105553.400000", "105554.400000", "105555.400000", "105556.400000", "105557.400000", "105558.400000", "105559.400000", "105600.400000", "105601.400000", "105602.400000", "105603.400000", "105604.400000", "105605.400000", "105606.400000", "105607.400000", "105608.400000", "105609.400000", "105610.400000", "105611.400000", "105612.400000", "105613.400000", "105614.400000", "105615.400000", "105616.400000", "105617.400000", "105618.400000", "105619.400000", "105620.400000", "105621.400000", "105622.400000", "105623.400000", "105624.400000", "105625.400000", "105626.400000", "105627.400000", "105628.400000", "105629.400000", "105630.400000", "105631.400000", "105632.400000", "105633.400000", "105634.400000", "105635.400000", "105636.400000", "105637.400000", "105638.400000", "105639.400000", "105640.400000", "105641.400000", "105642.400000", "105643.400000", "105644.400000", "105645.400000", "105646.400000", "105647.400000", "105648.400000"],
      "ContentTime": ["104933.430000", "104933.433000", "104933.442000", "104933.444000", "104933.447000", "104933.449000", "104933.452000", "104933.454000", "104933.457000", "104933.459000", "104933.462000", "104933.464000", "104933.467000", "104933.469000", "104933.471000", "104933.474000", "104933.477000", "104933.479000", "104933.482000", "104933.484000", "104933.487000", "104933.489000", "104933.492000", "104933.494000", "104933.503000", "104933.505000", "104933.508000", "104933.510000", "104933.513000", "104933.515000", "104953.403000", "104953.406000", "104953.408000", "104953.411000", "104953.413000", "104953.416000", "104953.418000", "104953.421000", "104953.423000", "104953.425000", "104953.428000", "104953.430000", "104953.433000", "104953.435000", "104953.438000", "104953.440000", "104953.443000", "104953.445000", "104953.448000", "104953.450000", "105013.403000", "105013.406000", "105013.408000", "105013.411000", "105013.413000", "105013.416000", "105013.418000", "105013.421000", "105013.423000", "105013.426000", "105013.437000", "105013.440000", "105013.442000", "105013.445000", "105013.447000", "105013.450000", "105013.452000", "105013.455000", "105013.457000", "105013.459000", "105033.403000", "105033.406000", "105033.409000", "105033.411000", "105033.414000", "105033.416000", "105033.419000", "105033.421000", "105033.424000", "105033.426000", "105033.429000", "105033.431000", "105033.434000", "105033.436000", "105033.439000", "105033.441000", "105033.444000", "105033.446000", "105033.449000", "105033.451000", "105053.403000", "105053.406000", "105053.409000", "105053.411000", "105053.413000", "105053.416000", "105053.418000", "105053.421000", "105053.423000", "105053.426000", "105053.428000", "105053.431000", "105053.433000", "105053.436000", "105053.438000", "105053.441000", "105053.443000", "105053.446000", "105053.448000", "105053.451000", "105113.404000", "105113.407000", "105113.409000", "105113.412000", "105113.415000", "105113.417000", "105113.419000", "105113.422000", "105113.424000", "105113.427000", "105113.429000", "105113.432000", "105113.434000", "105113.437000", "105113.439000", "105113.442000", "105113.444000", "105113.447000", "105113.449000", "105113.452000", "105133.404000", "105133.406000", "105133.409000", "105133.411000", "105133.414000", "105133.416000", "105133.419000", "105133.421000", "105133.424000", "105133.426000", "105133.429000", "105133.431000", "105133.434000", "105133.436000", "105133.439000", "105133.441000", "105133.444000", "105133.446000", "105133.449000", "105133.451000", "105153.403000", "105153.406000", "105153.408000", "105153.411000", "105153.413000", "105153.416000", "105153.418000", "105153.421000", "105153.424000", "105153.426000", "105153.429000", "105153.431000", "105153.434000", "105153.436000", "105153.439000", "105153.441000", "105153.444000", "105153.446000", "105153.449000", "105153.451000", "105213.403000", "105213.406000", "105213.409000", "105213.411000", "105213.414000", "105213.416000", "105213.419000", "105213.421000", "105213.424000", "105213.426000", "105213.429000", "105213.431000", "105213.434000", "105213.436000", "105213.439000", "105213.441000", "105213.444000", "105213.446000", "105213.449000", "105213.451000", "105233.403000", "105233.406000", "105233.408000", "105233.411000", "105233.414000", "105233.416000", "105233.430000", "105233.433000", "105233.435000", "105233.438000", "105233.440000", "105233.443000", "105233.445000", "105233.447000", "105233.450000", "105233.452000", "105233.455000", "105233.457000", "105233.460000", "105233.462000", "105253.403000", "105253.406000", "105253.408000", "105253.411000", "105253.414000", "105253.416000", "105253.418000", "105253.421000", "105253.423000", "105253.426000", "105253.428000", "105253.431000", "105253.433000", "105253.436000", "105253.438000", "105253.441000", "105253.443000", "105253.446000", "105253.448000", "105253.451000", "105313.404000", "105313.406000", "105313.409000", "105313.411000", "105313.414000", "105313.416000", "105313.419000", "105313.421000", "105313.424000", "105313.426000", "105313.429000", "105313.431000", "105313.434000", "105313.436000", "105313.439000", "105313.441000", "105313.444000", "105313.446000", "105313.449000", "105313.451000", "105333.404000", "105333.407000", "105333.409000", "105333.412000", "105333.414000", "105333.417000", "105333.419000", "105333.422000", "105333.424000", "105333.427000", "105333.429000", "105333.432000", "105333.434000", "105333.437000", "105333.439000", "105333.442000", "105333.444000", "105333.447000", "105333.449000", "105333.452000", "105353.403000", "105353.406000", "105353.408000", "105353.411000", "105353.414000", "105353.416000", "105353.418000", "105353.421000", "105353.424000", "105353.426000", "105353.428000", "105353.431000", "105353.434000", "105353.436000", "105353.438000", "105353.441000", "105353.443000", "105353.446000", "105353.448000", "105353.451000", "105413.403000", "105413.406000", "105413.408000", "105413.411000", "105413.414000", "105413.416000", "105413.419000", "105413.421000", "105413.424000", "105413.426000", "105413.429000", "105413.431000", "105413.434000", "105413.436000", "105413.439000", "105413.441000", "105413.444000", "105413.446000", "105413.449000", "105413.451000", "105433.404000", "105433.406000", "105433.409000", "105433.412000", "105433.414000", "105433.417000", "105433.419000", "105433.422000", "105433.425000", "105433.427000", "105433.430000", "105433.432000", "105433.435000", "105433.437000", "105433.440000", "105433.442000", "105433.445000", "105433.447000", "105433.450000", "105433.452000", "105453.403000", "105453.406000", "105453.408000", "105453.411000", "105453.414000", "105453.416000", "105453.419000", "105453.421000", "105453.424000", "105453.426000", "105453.429000", "105453.431000", "105453.434000", "105453.436000", "105453.439000", "105453.441000", "105453.443000", "105453.446000", "105453.448000", "105453.451000", "105513.404000", "105513.406000", "105513.409000", "105513.411000", "105513.414000", "105513.417000", "105513.419000", "105513.422000", "105513.424000", "105513.427000", "105513.429000", "105513.432000", "105513.434000", "105513.436000", "105513.439000", "105513.441000", "105513.444000", "105513.451000", "105513.453000", "105513.456000", "105533.403000", "105533.406000", "105533.409000", "105533.411000", "105533.413000", "105533.416000", "105533.419000", "105533.421000", "105533.424000", "105533.426000", "105533.429000", "105533.431000", "105533.434000", "105533.436000", "105533.439000", "105533.441000", "105533.444000", "105533.446000", "105533.449000", "105533.451000", "105553.404000", "105553.407000", "105553.410000", "105553.412000", "105553.415000", "105553.417000", "105553.420000", "105553.422000", "105553.425000", "105553.427000", "105553.430000", "105553.432000", "105553.435000", "105553.437000", "105553.440000", "105553.442000", "105553.445000", "105553.447000", "105553.450000", "105553.452000", "105613.404000", "105613.407000", "105613.409000", "105613.412000", "105613.414000", "105613.417000", "105613.419000", "105613.422000", "105613.424000", "105613.427000", "105613.429000", "105613.432000", "105613.434000", "105613.437000", "105613.439000", "105613.442000", "105613.444000", "105613.447000", "105613.449000", "105613.452000", "105633.403000", "105633.406000", "105633.409000", "105633.411000", "105633.414000", "105633.416000", "105633.419000", "105633.421000", "105633.424000", "105633.426000", "105633.429000", "105633.431000", "105633.434000", "105633.436000", "105633.439000", "105633.441000", "105633.444000", "105633.446000", "105633.449000", "105633.451000", "105650.331000", "105650.334000", "105650.337000", "105650.340000", "105650.343000", "105650.345000", "105650.348000", "105650.360000", "105650.363000", "105650.365000", "105650.368000", "105650.370000", "105650.373000", "105650.375000", "105650.378000", "105650.380000", "105650.383000"],
