{
  "AcquisitionMatrixPE": 106,
  "AcquisitionNumber": 1,
  "AcquisitionTime": "12:49:33.867500",
  "BandwidthPerPixelPhaseEncode": 16.846,
  "BaseResolution": 106,
  "BodyPartExamined": "BRAIN",
  "CoilCombinationMethod": "Sum of Squares",
  "ConsistencyInfo": "N4_VE11C_LATEST_20160120",
  "ConversionSoftware": "dcm2niix",
  "ConversionSoftwareVersion": "v1.0.20220720",
  "DerivedVendorReportedEchoSpacing": 0.000560012,
  "DeviceSerialNumber": "166108",
  "DwellTime": 1.8e-06,
  "EchoTime": 0.0352,
  "EchoTrainLength": 106,
  "EffectiveEchoSpacing": 0.000560012,
  "FlipAngle": 60,
  "HeudiconvVersion": "1.3.0",
  "ImageComments": "Unaliased MB4/PE3/LB",
  "ImageOrientationPatientDICOM": [1, 0, 0, 0, 1, 0],
  "ImageOrientationText": "Tra",
  "ImageType": [
    "ORIGINAL",
    "PRIMARY",
    "M",
    "MB",
    "ND",
    "MOSAIC"
],
  "ImagingFrequency": 123.244,
  "InPlanePhaseEncodingDirectionDICOM": "COL",
  "InstitutionAddress": "Bedford Way 26,London,London,GB,WC1H 0AP",
  "InstitutionName": "University College",
  "InstitutionalDepartmentName": "Department",
  "MRAcquisitionType": "2D",
  "MagneticFieldStrength": 3,
  "Manufacturer": "Siemens",
  "ManufacturersModelName": "Prisma",
  "MatrixCoilMode": "SENSE",
  "Modality": "MR",
  "MultibandAccelerationFactor": 4,
  "NonlinearGradientCorrection": false,
  "PartialFourier": 1,
  "PatientPosition": "HFS",
  "PercentPhaseFOV": 100,
  "PercentSampling": 100,
  "PhaseEncodingDirection": "j-",
  "PhaseEncodingSteps": 106,
  "PhaseResolution": 1,
  "PixelBandwidth": 2620,
  "ProcedureStepDescription": "Egor^MovieProject2",
  "ProtocolName": "task-backtothefuture_run-1",
  "PulseSequenceDetails": "%CustomerSeq%\\cmrr_mbep2d_bold",
  "ReceiveCoilActiveElements": "HEA;HEP",
  "ReceiveCoilName": "Head_32",
  "ReconMatrixPE": 106,
  "RepetitionTime": 1.5,
  "SAR": 0.0827441,
  "ScanOptions": "FS\\EXT",
  "ScanningSequence": "EP",
  "SequenceName": "epfid2d1_106",
  "SequenceVariant": "SK\\SS",
  "SeriesDescription": "task-backtothefuture_run-1",
  "SeriesNumber": 5,
  "ShimSetting": [-1570, 610, 7423, 529, -77, 125, -40, -21],
  "SliceThickness": 2,
  "SliceTiming": [0, 1.0675, 0.6575, 0.245, 1.315, 0.9025, 0.4925, 0.08, 1.15, 0.74, 0.3275, 1.3975, 0.985, 0.575, 0.1625, 1.2325, 0.82, 0.41, 0, 1.0675, 0.6575, 0.245, 1.315, 0.9025, 0.4925, 0.08, 1.15, 0.74, 0.3275, 1.3975, 0.985, 0.575, 0.1625, 1.2325, 0.82, 0.41, 0, 1.0675, 0.6575, 0.245, 1.315, 0.9025, 0.4925, 0.08, 1.15, 0.74, 0.3275, 1.3975, 0.985, 0.575, 0.1625, 1.2325, 0.82, 0.41, 0, 1.0675, 0.6575, 0.245, 1.315, 0.9025, 0.4925, 0.08, 1.15, 0.74, 0.3275, 1.3975, 0.985, 0.575, 0.1625, 1.2325, 0.82, 0.41],
  "SoftwareVersions": "syngo MR E11",
  "SpacingBetweenSlices": 2,
  "StationName": "AWP166108",
  "TaskName": "backtothefuture",
  "TotalReadoutTime": 0.0588013,
  "TxRefAmp": 217.652,
  "WipMemBlock": "73215ac1-b745-42d8-be0e-1df546178844||Sequence: R016 ve11c/master r/e634e98; Dec 19 2017 11:00:25 by eja",
  "dcmmeta_affine": [
    [-2.0, 0.0, 0.0, 106.0],
    [0.0, 2.0, 0.0, -91.34939575195312],
    [0.0, 0.0, 2.0, -52.32530212402344],
    [0.0, 0.0, 0.0, 1.0]
],
  "dcmmeta_reorient_transform": [
    [0.0, -1.0, 0.0, 105.0],
    [1.0, 0.0, 0.0, 0.0],
    [0.0, 0.0, 1.0, 0.0],
    [0.0, 0.0, 0.0, 1.0]
],
  "dcmmeta_shape": [106, 106, 72, 1360],
  "dcmmeta_slice_dim": 2,
  "dcmmeta_version": 0.6,
  "global": {
    "const": {
      "AcquisitionMatrix": [106, 0, 0, 106],
      "AngioFlag": "N",
      "BitsAllocated": 16,
      "BitsStored": 16,
      "BodyPartExamined": "BRAIN",
      "CardiacNumberOfImages": 1,
      "Columns": 954,
      "EchoNumbers": 1,
      "EchoTime": 35.2,
      "EchoTrainLength": 106,
      "FlipAngle": 60.0,
      "HighBit": 15,
      "ImageOrientationPatient": [1.0, 0.0, 0.0, 0.0, 1.0, 0.0],
      "ImagePositionPatient": [-954.0, -966.6506023407, -52.325302124023],
      "ImageType": [
        "ORIGINAL",
        "PRIMARY",
        "M",
        "MB",
        "ND",
        "MOSAIC"
],
      "ImagedNucleus": "1H",
      "ImagingFrequency": 123.243677,
      "InPlanePhaseEncodingDirection": "COL",
      "MRAcquisitionType": "2D",
      "MagneticFieldStrength": 3.0,
      "Manufacturer": "SIEMENS",
      "ManufacturerModelName": "Prisma",
      "Modality": "MR",
      "NominalInterval": 0,
      "NumberOfAverages": 1.0,
      "NumberOfPhaseEncodingSteps": 106,
      "PercentPhaseFieldOfView": 100.0,
      "PercentSampling": 100.0,
      "PerformedProcedureStepStartTime": "122858.945000",
      "PhotometricInterpretation": "MONOCHROME2",
      "PixelBandwidth": 2620.0,
      "PixelRepresentation": 0,
      "PixelSpacing": [2.0, 2.0],
      "ProtocolName": "task-backtothefuture_run-1",
      "RepetitionTime": 1500.0,
      "Rows": 954,
      "SAR": 0.08274405111912,
      "SamplesPerPixel": 1,
      "ScanOptions": [
        "FS",
        "EXT"
],
      "ScanningSequence": "EP",
      "SequenceName": "epfid2d1_106",
      "SequenceVariant": [
        "SK",
        "SS"
],
      "SeriesDescription": "task-backtothefuture_run-1",
      "SeriesNumber": 5,
      "SeriesTime": "125023.007000",
      "SliceLocation": -52.325302124023,
      "SliceThickness": 2.0,
      "SmallestImagePixelValue": 0,
      "SoftwareVersions": "syngo MR E11",
      "SpacingBetweenSlices": 2.0,
      "SpecificCharacterSet": "ISO_IR 100",
      "StudyID": "1",
      "StudyTime": "122858.771000",
      "TransmitCoilName": "Body",
      "VariableFlipAngleFlag": "N",
      "WindowCenterWidthExplanation": "Algo1",
      "dBdt": 0.0},
    "slices": {}
  },
  "time": {
    "samples": {
      "AcquisitionNumber": [1, 2, 3, 4, 5, 6, 7, 8, 9, 10, 11, 12, 13, 14, 15, 16, 17, 18, 19, 20, 21, 22, 23, 24, 25, 26, 27, 28, 29, 30, 31, 32, 33, 34, 35, 36, 37, 38, 39, 40, 41, 42, 43, 44, 45, 46, 47, 48, 49, 50, 51, 52, 53, 54, 55, 56, 57, 58, 59, 60, 61, 62, 63, 64, 65, 66, 67, 68, 69, 70, 71, 72, 73, 74, 75, 76, 77, 78, 79, 80, 81, 82, 83, 84, 85, 86, 87, 88, 89, 90, 91, 92, 93, 94, 95, 96, 97, 98, 99, 100, 101, 102, 103, 104, 105, 106, 107, 108, 109, 110, 111, 112, 113, 114, 115, 116, 117, 118, 119, 120, 121, 122, 123, 124, 125, 126, 127, 128, 129, 130, 131, 132, 133, 134, 135, 136, 137, 138, 139, 140, 141, 142, 143, 144, 145, 146, 147, 148, 149, 150, 151, 152, 153, 154, 155, 156, 157, 158, 159, 160, 161, 162, 163, 164, 165, 166, 167, 168, 169, 170, 171, 172, 173, 174, 175, 176, 177, 178, 179, 180, 181, 182, 183, 184, 185, 186, 187, 188, 189, 190, 191, 192, 193, 194, 195, 196, 197, 198, 199, 200, 201, 202, 203, 204, 205, 206, 207, 208, 209, 210, 211, 212, 213, 214, 215, 216, 217, 218, 219, 220, 221, 222, 223, 224, 225, 226, 227, 228, 229, 230, 231, 232, 233, 234, 235, 236, 237, 238, 239, 240, 241, 242, 243, 244, 245, 246, 247, 248, 249, 250, 251, 252, 253, 254, 255, 256, 257, 258, 259, 260, 261, 262, 263, 264, 265, 266, 267, 268, 269, 270, 271, 272, 273, 274, 275, 276, 277, 278, 279, 280, 281, 282, 283, 284, 285, 286, 287, 288, 289, 290, 291, 292, 293, 294, 295, 296, 297, 298, 299, 300, 301, 302, 303, 304, 305, 306, 307, 308, 309, 310, 311, 312, 313, 314, 315, 316, 317, 318, 319, 320, 321, 322, 323, 324, 325, 326, 327, 328, 329, 330, 331, 332, 333, 334, 335, 336, 337, 338, 339, 340, 341, 342, 343, 344, 345, 346, 347, 348, 349, 350, 351, 352, 353, 354, 355, 356, 357, 358, 359, 360, 361, 362, 363, 364, 365, 366, 367, 368, 369, 370, 371, 372, 373, 374, 375, 376, 377, 378, 379, 380, 381, 382, 383, 384, 385, 386, 387, 388, 389, 390, 391, 392, 393, 394, 395, 396, 397, 398, 399, 400, 401, 402, 403, 404, 405, 406, 407, 408, 409, 410, 411, 412, 413, 414, 415, 416, 417, 418, 419, 420, 421, 422, 423, 424, 425, 426, 427, 428, 429, 430, 431, 432, 433, 434, 435, 436, 437, 438, 439, 440, 441, 442, 443, 444, 445, 446, 447, 448, 449, 450, 451, 452, 453, 454, 455, 456, 457, 458, 459, 460, 461, 462, 463, 464, 465, 466, 467, 468, 469, 470, 471, 472, 473, 474, 475, 476, 477, 478, 479, 480, 481, 482, 483, 484, 485, 486, 487, 488, 489, 490, 491, 492, 493, 494, 495, 496, 497, 498, 499, 500, 501, 502, 503, 504, 505, 506, 507, 508, 509, 510, 511, 512, 513, 514, 515, 516, 517, 518, 519, 520, 521, 522, 523, 524, 525, 526, 527, 528, 529, 530, 531, 532, 533, 534, 535, 536, 537, 538, 539, 540, 541, 542, 543, 544, 545, 546, 547, 548, 549, 550, 551, 552, 553, 554, 555, 556, 557, 558, 559, 560, 561, 562, 563, 564, 565, 566, 567, 568, 569, 570, 571, 572, 573, 574, 575, 576, 577, 578, 579, 580, 581, 582, 583, 584, 585, 586, 587, 588, 589, 590, 591, 592, 593, 594, 595, 596, 597, 598, 599, 600, 601, 602, 603, 604, 605, 606, 607, 608, 609, 610, 611, 612, 613, 614, 615, 616, 617, 618, 619, 620, 621, 622, 623, 624, 625, 626, 627, 628, 629, 630, 631, 632, 633, 634, 635, 636, 637, 638, 639, 640, 641, 642, 643, 644, 645, 646, 647, 648, 649, 650, 651, 652, 653, 654, 655, 656, 657, 658, 659, 660, 661, 662, 663, 664, 665, 666, 667, 668, 669, 670, 671, 672, 673, 674, 675, 676, 677, 678, 679, 680, 681, 682, 683, 684, 685, 686, 687, 688, 689, 690, 691, 692, 693, 694, 695, 696, 697, 698, 699, 700, 701, 702, 703, 704, 705, 706, 707, 708, 709, 710, 711, 712, 713, 714, 715, 716, 717, 718, 719, 720, 721, 722, 723, 724, 725, 726, 727, 728, 729, 730, 731, 732, 733, 734, 735, 736, 737, 738, 739, 740, 741, 742, 743, 744, 745, 746, 747, 748, 749, 750, 751, 752, 753, 754, 755, 756, 757, 758, 759, 760, 761, 762, 763, 764, 765, 766, 767, 768, 769, 770, 771, 772, 773, 774, 775, 776, 777, 778, 779, 780, 781, 782, 783, 784, 785, 786, 787, 788, 789, 790, 791, 792, 793, 794, 795, 796, 797, 798, 799, 800, 801, 802, 803, 804, 805, 806, 807, 808, 809, 810, 811, 812, 813, 814, 815, 816, 817, 818, 819, 820, 821, 822, 823, 824, 825, 826, 827, 828, 829, 830, 831, 832, 833, 834, 835, 836, 837, 838, 839, 840, 841, 842, 843, 844, 845, 846, 847, 848, 849, 850, 851, 852, 853, 854, 855, 856, 857, 858, 859, 860, 861, 862, 863, 864, 865, 866, 867, 868, 869, 870, 871, 872, 873, 874, 875, 876, 877, 878, 879, 880, 881, 882, 883, 884, 885, 886, 887, 888, 889, 890, 891, 892, 893, 894, 895, 896, 897, 898, 899, 900, 901, 902, 903, 904, 905, 906, 907, 908, 909, 910, 911, 912, 913, 914, 915, 916, 917, 918, 919, 920, 921, 922, 923, 924, 925, 926, 927, 928, 929, 930, 931, 932, 933, 934, 935, 936, 937, 938, 939, 940, 941, 942, 943, 944, 945, 946, 947, 948, 949, 950, 951, 952, 953, 954, 955, 956, 957, 958, 959, 960, 961, 962, 963, 964, 965, 966, 967, 968, 969, 970, 971, 972, 973, 974, 975, 976, 977, 978, 979, 980, 981, 982, 983, 984, 985, 986, 987, 988, 989, 990, 991, 992, 993, 994, 995, 996, 997, 998, 999, 1000, 1001, 1002, 1003, 1004, 1005, 1006, 1007, 1008, 1009, 1010, 1011, 1012, 1013, 1014, 1015, 1016, 1017, 1018, 1019, 1020, 1021, 1022, 1023, 1024, 1025, 1026, 1027, 1028, 1029, 1030, 1031, 1032, 1033, 1034, 1035, 1036, 1037, 1038, 1039, 1040, 1041, 1042, 1043, 1044, 1045, 1046, 1047, 1048, 1049, 1050, 1051, 1052, 1053, 1054, 1055, 1056, 1057, 1058, 1059, 1060, 1061, 1062, 1063, 1064, 1065, 1066, 1067, 1068, 1069, 1070, 1071, 1072, 1073, 1074, 1075, 1076, 1077, 1078, 1079, 1080, 1081, 1082, 1083, 1084, 1085, 1086, 1087, 1088, 1089, 1090, 1091, 1092, 1093, 1094, 1095, 1096, 1097, 1098, 1099, 1100, 1101, 1102, 1103, 1104, 1105, 1106, 1107, 1108, 1109, 1110, 1111, 1112, 1113, 1114, 1115, 1116, 1117, 1118, 1119, 1120, 1121, 1122, 1123, 1124, 1125, 1126, 1127, 1128, 1129, 1130, 1131, 1132, 1133, 1134, 1135, 1136, 1137, 1138, 1139, 1140, 1141, 1142, 1143, 1144, 1145, 1146, 1147, 1148, 1149, 1150, 1151, 1152, 1153, 1154, 1155, 1156, 1157, 1158, 1159, 1160, 1161, 1162, 1163, 1164, 1165, 1166, 1167, 1168, 1169, 1170, 1171, 1172, 1173, 1174, 1175, 1176, 1177, 1178, 1179, 1180, 1181, 1182, 1183, 1184, 1185, 1186, 1187, 1188, 1189, 1190, 1191, 1192, 1193, 1194, 1195, 1196, 1197, 1198, 1199, 1200, 1201, 1202, 1203, 1204, 1205, 1206, 1207, 1208, 1209, 1210, 1211, 1212, 1213, 1214, 1215, 1216, 1217, 1218, 1219, 1220, 1221, 1222, 1223, 1224, 1225, 1226, 1227, 1228, 1229, 1230, 1231, 1232, 1233, 1234, 1235, 1236, 1237, 1238, 1239, 1240, 1241, 1242, 1243, 1244, 1245, 1246, 1247, 1248, 1249, 1250, 1251, 1252, 1253, 1254, 1255, 1256, 1257, 1258, 1259, 1260, 1261, 1262, 1263, 1264, 1265, 1266, 1267, 1268, 1269, 1270, 1271, 1272, 1273, 1274, 1275, 1276, 1277, 1278, 1279, 1280, 1281, 1282, 1283, 1284, 1285, 1286, 1287, 1288, 1289, 1290, 1291, 1292, 1293, 1294, 1295, 1296, 1297, 1298, 1299, 1300, 1301, 1302, 1303, 1304, 1305, 1306, 1307, 1308, 1309, 1310, 1311, 1312, 1313, 1314, 1315, 1316, 1317, 1318, 1319, 1320, 1321, 1322, 1323, 1324, 1325, 1326, 1327, 1328, 1329, 1330, 1331, 1332, 1333, 1334, 1335, 1336, 1337, 1338, 1339, 1340, 1341, 1342, 1343, 1344, 1345, 1346, 1347, 1348, 1349, 1350, 1351, 1352, 1353, 1354, 1355, 1356, 1357, 1358, 1359, 1360],
      "AcquisitionTime": ["124933.867500", "124935.367500", "124936.867500", "124938.367500", "124939.867500", "124941.367500", "124942.867500", "124944.367500", "124945.867500", "124947.367500", "124948.867500", "124950.367500", "124951.867500", "124953.367500", "124954.867500", "124956.367500", "124957.867500", "124959.367500", "125000.867500", "125002.367500", "125003.867500", "125005.367500", "125006.867500", "125008.367500", "125009.867500", "125011.367500", "125012.867500", "125014.367500", "125015.867500", "125017.367500", "125018.867500", "125020.367500", "125021.867500", "125023.367500", "125024.867500", "125026.367500", "125027.867500", "125029.367500", "125030.867500", "125032.367500", "125033.867500", "125035.367500", "125036.867500", "125038.367500", "125039.867500", "125041.367500", "125042.867500", "125044.367500", "125045.867500", "125047.367500", "125048.867500", "125050.367500", "125051.867500", "125053.367500", "125054.867500", "125056.367500", "125057.867500", "125059.367500", "125100.867500", "125102.367500", "125103.867500", "125105.367500", "125106.867500", "125108.367500", "125109.867500", "125111.367500", "125112.867500", "125114.367500", "125115.867500", "125117.367500", "125118.867500", "125120.367500", "125121.867500", "125123.367500", "125124.867500", "125126.367500", "125127.867500", "125129.367500", "125130.867500", "125132.367500", "125133.867500", "125135.367500", "125136.867500", "125138.367500", "125139.867500", "125141.367500", "125142.867500", "125144.367500", "125145.867500", "125147.367500", "125148.867500", "125150.367500", "125151.867500", "125153.367500", "125154.867500", "125156.367500", "125157.867500", "125159.367500", "125200.867500", "125202.367500", "125203.867500", "125205.367500", "125206.867500", "125208.367500", "125209.867500", "125211.367500", "125212.867500", "125214.367500", "125215.867500", "125217.367500", "125218.867500", "125220.367500", "125221.867500", "125223.367500", "125224.867500", "125226.367500", "125227.867500", "125229.367500", "125230.867500", "125232.367500", "125233.867500", "125235.367500", "125236.867500", "125238.367500", "125239.867500", "125241.367500", "125242.867500", "125244.367500", "125245.867500", "125247.367500", "125248.867500", "125250.367500", "125251.867500", "125253.367500", "125254.867500", "125256.367500", "125257.867500", "125259.367500", "125300.867500", "125302.367500", "125303.867500", "125305.367500", "125306.867500", "125308.367500", "125309.867500", "125311.367500", "125312.867500", "125314.367500", "125315.867500", "125317.367500", "125318.867500", "125320.367500", "125321.867500", "125323.367500", "125324.867500", "125326.367500", "125327.867500", "125329.367500", "125330.867500", "125332.367500", "125333.867500", "125335.367500", "125336.867500", "125338.367500", "125339.867500", "125341.367500", "125342.867500", "125344.367500", "125345.867500", "125347.367500", "125348.867500", "125350.367500", "125351.867500", "125353.367500", "125354.867500", "125356.367500", "125357.867500", "125359.367500", "125400.867500", "125402.367500", "125403.867500", "125405.367500", "125406.867500", "125408.367500", "125409.867500", "125411.367500", "125412.867500", "125414.367500", "125415.867500", "125417.367500", "125418.867500", "125420.367500", "125421.867500", "125423.367500", "125424.867500", "125426.367500", "125427.867500", "125429.367500", "125430.867500", "125432.367500", "125433.867500", "125435.367500", "125436.867500", "125438.367500", "125439.867500", "125441.367500", "125442.867500", "125444.367500", "125445.867500", "125447.367500", "125448.867500", "125450.367500", "125451.867500", "125453.367500", "125454.867500", "125456.367500", "125457.867500", "125459.367500", "125500.867500", "125502.367500", "125503.867500", "125505.367500", "125506.867500", "125508.367500", "125509.867500", "125511.367500", "125512.867500", "125514.367500", "125515.867500", "125517.367500", "125518.867500", "125520.367500", "125521.867500", "125523.367500", "125524.867500", "125526.367500", "125527.867500", "125529.367500", "125530.867500", "125532.367500", "125533.867500", "125535.367500", "125536.867500", "125538.367500", "125539.867500", "125541.367500", "125542.867500", "125544.367500", "125545.867500", "125547.367500", "125548.867500", "125550.367500", "125551.867500", "125553.367500", "125554.867500", "125556.367500", "125557.867500", "125559.367500", "125600.867500", "125602.367500", "125603.867500", "125605.367500", "125606.867500", "125608.367500", "125609.867500", "125611.367500", "125612.867500", "125614.367500", "125615.867500", "125617.367500", "125618.867500", "125620.367500", "125621.867500", "125623.367500", "125624.867500", "125626.367500", "125627.867500", "125629.367500", "125630.867500", "125632.367500", "125633.867500", "125635.367500", "125636.867500", "125638.367500", "125639.867500", "125641.367500", "125642.867500", "125644.367500", "125645.867500", "125647.367500", "125648.867500", "125650.367500", "125651.867500", "125653.367500", "125654.867500", "125656.367500", "125657.867500", "125659.367500", "125700.867500", "125702.367500", "125703.867500", "125705.367500", "125706.867500", "125708.367500", "125709.867500", "125711.367500", "125712.867500", "125714.367500", "125715.867500", "125717.367500", "125718.867500", "125720.367500", "125721.867500", "125723.367500", "125724.867500", "125726.367500", "125727.867500", "125729.367500", "125730.867500", "125732.367500", "125733.867500", "125735.367500", "125736.867500", "125738.367500", "125739.867500", "125741.367500", "125742.867500", "125744.367500", "125745.867500", "125747.367500", "125748.867500", "125750.367500", "125751.867500", "125753.367500", "125754.867500", "125756.367500", "125757.867500", "125759.367500", "125800.867500", "125802.367500", "125803.867500", "125805.367500", "125806.867500", "125808.367500", "125809.867500", "125811.367500", "125812.867500", "125814.367500", "125815.867500", "125817.367500", "125818.867500", "125820.367500", "125821.867500", "125823.367500", "125824.867500", "125826.367500", "125827.867500", "125829.367500", "125830.867500", "125832.367500", "125833.867500", "125835.367500", "125836.867500", "125838.367500", "125839.867500", "125841.367500", "125842.867500", "125844.367500", "125845.867500", "125847.367500", "125848.867500", "125850.367500", "125851.867500", "125853.367500", "125854.867500", "125856.367500", "125857.867500", "125859.367500", "125900.867500", "125902.367500", "125903.867500", "125905.367500", "125906.867500", "125908.367500", "125909.867500", "125911.367500", "125912.867500", "125914.367500", "125915.867500", "125917.367500", "125918.867500", "125920.367500", "125921.867500", "125923.367500", "125924.867500", "125926.367500", "125927.867500", "125929.367500", "125930.867500", "125932.367500", "125933.867500", "125935.367500", "125936.867500", "125938.367500", "125939.867500", "125941.367500", "125942.867500", "125944.367500", "125945.867500", "125947.367500", "125948.867500", "125950.367500", "125951.867500", "125953.367500", "125954.867500", "125956.367500", "125957.867500", "125959.367500", "130000.867500", "130002.367500", "130003.867500", "130005.367500", "130006.867500", "130008.367500", "130009.867500", "130011.367500", "130012.867500", "130014.367500", "130015.867500", "130017.367500", "130018.867500", "130020.367500", "130021.867500", "130023.367500", "130024.867500", "130026.367500", "130027.867500", "130029.367500", "130030.867500", "130032.367500", "130033.867500", "130035.367500", "130036.867500", "130038.367500", "130039.867500", "130041.367500", "130042.867500", "130044.367500", "130045.867500", "130047.367500", "130048.867500", "130050.367500", "130051.867500", "130053.367500", "130054.867500", "130056.367500", "130057.867500", "130059.367500", "130100.867500", "130102.367500", "130103.867500", "130105.367500", "130106.867500", "130108.367500", "130109.867500", "130111.367500", "130112.867500", "130114.367500", "130115.867500", "130117.367500", "130118.867500", "130120.367500", "130121.867500", "130123.367500", "130124.867500", "130126.367500", "130127.867500", "130129.367500", "130130.867500", "130132.367500", "130133.867500", "130135.367500", "130136.867500", "130138.367500", "130139.867500", "130141.367500", "130142.867500", "130144.367500", "130145.867500", "130147.367500", "130148.867500", "130150.367500", "130151.867500", "130153.367500", "130154.867500", "130156.367500", "130157.867500", "130159.367500", "130200.867500", "130202.367500", "130203.867500", "130205.367500", "130206.867500", "130208.367500", "130209.867500", "130211.367500", "130212.867500", "130214.367500", "130215.867500", "130217.367500", "130218.867500", "130220.367500", "130221.867500", "130223.367500", "130224.867500", "130226.367500", "130227.867500", "130229.367500", "130230.867500", "130232.367500", "130233.867500", "130235.367500", "130236.867500", "130238.367500", "130239.867500", "130241.367500", "130242.867500", "130244.367500", "130245.867500", "130247.367500", "130248.867500", "130250.367500", "130251.867500", "130253.367500", "130254.867500", "130256.367500", "130257.867500", "130259.367500", "130300.867500", "130302.367500", "130303.867500", "130305.367500", "130306.867500", "130308.367500", "130309.867500", "130311.367500", "130312.867500", "130314.367500", "130315.867500", "130317.367500", "130318.867500", "130320.367500", "130321.867500", "130323.367500", "130324.867500", "130326.367500", "130327.867500", "130329.367500", "130330.867500", "130332.367500", "130333.867500", "130335.367500", "130336.867500", "130338.367500", "130339.867500", "130341.367500", "130342.867500", "130344.367500", "130345.867500", "130347.367500", "130348.867500", "130350.367500", "130351.867500", "130353.367500", "130354.867500", "130356.367500", "130357.867500", "130359.367500", "130400.867500", "130402.367500", "130403.867500", "130405.367500", "130406.867500", "130408.367500", "130409.867500", "130411.367500", "130412.867500", "130414.367500", "130415.867500", "130417.367500", "130418.867500", "130420.367500", "130421.867500", "130423.367500", "130424.867500", "130426.367500", "130427.867500", "130429.367500", "130430.867500", "130432.367500", "130433.867500", "130435.367500", "130436.867500", "130438.367500", "130439.867500", "130441.367500", "130442.867500", "130444.367500", "130445.867500", "130447.367500", "130448.867500", "130450.367500", "130451.867500", "130453.367500", "130454.867500", "130456.367500", "130457.867500", "130459.367500", "130500.867500", "130502.367500", "130503.867500", "130505.367500", "130506.867500", "130508.367500", "130509.867500", "130511.367500", "130512.867500", "130514.367500", "130515.867500", "130517.367500", "130518.867500", "130520.367500", "130521.867500", "130523.367500", "130524.867500", "130526.367500", "130527.867500", "130529.367500", "130530.867500", "130532.367500", "130533.867500", "130535.367500", "130536.867500", "130538.367500", "130539.867500", "130541.367500", "130542.867500", "130544.367500", "130545.867500", "130547.367500", "130548.867500", "130550.367500", "130551.867500", "130553.367500", "130554.867500", "130556.367500", "130557.867500", "130559.367500", "130600.867500", "130602.367500", "130603.867500", "130605.367500", "130606.867500", "130608.367500", "130609.867500", "130611.367500", "130612.867500", "130614.367500", "130615.867500", "130617.367500", "130618.867500", "130620.367500", "130621.867500", "130623.367500", "130624.867500", "130626.367500", "130627.867500", "130629.367500", "130630.867500", "130632.367500", "130633.867500", "130635.367500", "130636.867500", "130638.367500", "130639.867500", "130641.367500", "130642.867500", "130644.367500", "130645.867500", "130647.367500", "130648.867500", "130650.367500", "130651.867500", "130653.367500", "130654.867500", "130656.367500", "130657.867500", "130659.367500", "130700.867500", "130702.367500", "130703.867500", "130705.367500", "130706.867500", "130708.367500", "130709.867500", "130711.367500", "130712.867500", "130714.367500", "130715.867500", "130717.367500", "130718.867500", "130720.367500", "130721.867500", "130723.367500", "130724.867500", "130726.367500", "130727.867500", "130729.367500", "130730.867500", "130732.367500", "130733.867500", "130735.367500", "130736.867500", "130738.367500", "130739.867500", "130741.367500", "130742.867500", "130744.367500", "130745.867500", "130747.367500", "130748.867500", "130750.367500", "130751.867500", "130753.367500", "130754.867500", "130756.367500", "130757.867500", "130759.367500", "130800.867500", "130802.367500", "130803.867500", "130805.367500", "130806.867500", "130808.367500", "130809.867500", "130811.367500", "130812.867500", "130814.367500", "130815.867500", "130817.367500", "130818.867500", "130820.367500", "130821.867500", "130823.367500", "130824.867500", "130826.367500", "130827.867500", "130829.367500", "130830.867500", "130832.367500", "130833.867500", "130835.367500", "130836.867500", "130838.367500", "130839.867500", "130841.367500", "130842.867500", "130844.367500", "130845.867500", "130847.367500", "130848.867500", "130850.367500", "130851.867500", "130853.367500", "130854.867500", "130856.367500", "130857.867500", "130859.367500", "130900.867500", "130902.367500", "130903.867500", "130905.367500", "130906.867500", "130908.367500", "130909.867500", "130911.367500", "130912.867500", "130914.367500", "130915.867500", "130917.367500", "130918.867500", "130920.367500", "130921.867500", "130923.367500", "130924.867500", "130926.367500", "130927.867500", "130929.367500", "130930.867500", "130932.367500", "130933.867500", "130935.367500", "130936.867500", "130938.367500", "130939.867500", "130941.367500", "130942.867500", "130944.367500", "130945.867500", "130947.367500", "130948.867500", "130950.367500", "130951.867500", "130953.367500", "130954.867500", "130956.367500", "130957.867500", "130959.367500", "131000.867500", "131002.367500", "131003.867500", "131005.367500", "131006.867500", "131008.367500", "131009.867500", "131011.367500", "131012.867500", "131014.367500", "131015.867500", "131017.367500", "131018.867500", "131020.367500", "131021.867500", "131023.367500", "131024.867500", "131026.367500", "131027.867500", "131029.367500", "131030.867500", "131032.367500", "131033.867500", "131035.367500", "131036.867500", "131038.367500", "131039.867500", "131041.367500", "131042.867500", "131044.367500", "131045.867500", "131047.367500", "131048.867500", "131050.367500", "131051.867500", "131053.367500", "131054.867500", "131056.367500", "131057.867500", "131059.367500", "131100.867500", "131102.367500", "131103.867500", "131105.367500", "131106.867500", "131108.367500", "131109.867500", "131111.367500", "131112.867500", "131114.367500", "131115.867500", "131117.367500", "131118.867500", "131120.367500", "131121.867500", "131123.367500", "131124.867500", "131126.367500", "131127.867500", "131129.367500", "131130.867500", "131132.367500", "131133.867500", "131135.367500", "131136.867500", "131138.367500", "131139.867500", "131141.367500", "131142.867500", "131144.367500", "131145.867500", "131147.367500", "131148.867500", "131150.367500", "131151.867500", "131153.367500", "131154.867500", "131156.367500", "131157.867500", "131159.367500", "131200.867500", "131202.367500", "131203.867500", "131205.367500", "131206.867500", "131208.367500", "131209.867500", "131211.367500", "131212.867500", "131214.367500", "131215.867500", "131217.367500", "131218.867500", "131220.367500", "131221.867500", "131223.367500", "131224.867500", "131226.367500", "131227.867500", "131229.367500", "131230.867500", "131232.367500", "131233.867500", "131235.367500", "131236.867500", "131238.367500", "131239.867500", "131241.367500", "131242.867500", "131244.367500", "131245.867500", "131247.367500", "131248.867500", "131250.367500", "131251.867500", "131253.367500", "131254.867500", "131256.367500", "131257.867500", "131259.367500", "131300.867500", "131302.367500", "131303.867500", "131305.367500", "131306.867500", "131308.367500", "131309.867500", "131311.367500", "131312.867500", "131314.367500", "131315.867500", "131317.367500", "131318.867500", "131320.367500", "131321.867500", "131323.367500", "131324.867500", "131326.367500", "131327.867500", "131329.367500", "131330.867500", "131332.367500", "131333.867500", "131335.367500", "131336.867500", "131338.367500", "131339.867500", "131341.367500", "131342.867500", "131344.367500", "131345.867500", "131347.367500", "131348.867500", "131350.367500", "131351.867500", "131353.367500", "131354.867500", "131356.367500", "131357.867500", "131359.367500", "131400.867500", "131402.367500", "131403.867500", "131405.367500", "131406.867500", "131408.367500", "131409.867500", "131411.367500", "131412.867500", "131414.367500", "131415.867500", "131417.367500", "131418.867500", "131420.367500", "131421.867500", "131423.367500", "131424.867500", "131426.367500", "131427.867500", "131429.367500", "131430.867500", "131432.367500", "131433.867500", "131435.367500", "131436.867500", "131438.367500", "131439.867500", "131441.367500", "131442.867500", "131444.367500", "131445.867500", "131447.367500", "131448.867500", "131450.367500", "131451.867500", "131453.367500", "131454.867500", "131456.367500", "131457.867500", "131459.367500", "131500.867