{
  "AcquisitionMatrixPE": 106,
  "AcquisitionNumber": 1,
  "AcquisitionTime": "17:35:53.102500",
  "BandwidthPerPixelPhaseEncode": 16.846,
  "BaseResolution": 106,
  "BodyPartExamined": "BRAIN",
  "CoilCombinationMethod": "Sum of Squares",
  "ConsistencyInfo": "N4_VE11C_LATEST_20160120",
  "ConversionSoftware": "dcm2niix",
  "ConversionSoftwareVersion": "v1.0.20220720",
  "DerivedVendorReportedEchoSpacing": 0.000560012,
  "DeviceSerialNumber": "166108",
  "DwellTime": 1.8e-06,
  "EchoTime": 0.0352,
  "EchoTrainLength": 106,
  "EffectiveEchoSpacing": 0.000560012,
  "FlipAngle": 60,
  "HeudiconvVersion": "1.3.0",
  "ImageComments": "Unaliased MB4/PE3/LB",
  "ImageOrientationPatientDICOM": [1, 0, 0, 0, 1, 0],
  "ImageOrientationText": "Tra",
  "ImageType": [
    "ORIGINAL",
    "PRIMARY",
    "M",
    "MB",
    "ND",
    "MOSAIC"
],
  "ImagingFrequency": 123.244,
  "InPlanePhaseEncodingDirectionDICOM": "COL",
  "InstitutionAddress": "Bedford Way 26,London,London,GB,WC1H 0AP",
  "InstitutionName": "University College",
  "InstitutionalDepartmentName": "Department",
  "MRAcquisitionType": "2D",
  "MagneticFieldStrength": 3,
  "Manufacturer": "Siemens",
  "ManufacturersModelName": "Prisma",
  "MatrixCoilMode": "SENSE",
  "Modality": "MR",
  "MultibandAccelerationFactor": 4,
  "NonlinearGradientCorrection": false,
  "PartialFourier": 1,
  "PatientPosition": "HFS",
  "PercentPhaseFOV": 100,
  "PercentSampling": 100,
  "PhaseEncodingDirection": "j-",
  "PhaseEncodingSteps": 106,
  "PhaseResolution": 1,
  "PixelBandwidth": 2620,
  "ProcedureStepDescription": "Egor^MovieProject2",
  "ProtocolName": "task-backtothefuture_run-3",
  "PulseSequenceDetails": "%CustomerSeq%\\cmrr_mbep2d_bold",
  "ReceiveCoilActiveElements": "HEA;HEP",
  "ReceiveCoilName": "Head_32",
  "ReconMatrixPE": 106,
  "RepetitionTime": 1.5,
  "SAR": 0.0837896,
  "ScanOptions": "FS\\EXT",
  "ScanningSequence": "EP",
  "SequenceName": "epfid2d1_106",
  "SequenceVariant": "SK\\SS",
  "SeriesDescription": "task-backtothefuture_run-3",
  "SeriesNumber": 14,
  "ShimSetting": [-1519, 619, 7386, 108, -28, -33, 46, -135],
  "SliceThickness": 2,
  "SliceTiming": [0, 1.07, 0.6575, 0.2475, 1.315, 0.905, 0.4925, 0.0825, 1.1525, 0.74, 0.33, 1.3975, 0.9875, 0.575, 0.165, 1.2325, 0.8225, 0.4125, 0, 1.07, 0.6575, 0.2475, 1.315, 0.905, 0.4925, 0.0825, 1.1525, 0.74, 0.33, 1.3975, 0.9875, 0.575, 0.165, 1.2325, 0.8225, 0.4125, 0, 1.07, 0.6575, 0.2475, 1.315, 0.905, 0.4925, 0.0825, 1.1525, 0.74, 0.33, 1.3975, 0.9875, 0.575, 0.165, 1.2325, 0.8225, 0.4125, 0, 1.07, 0.6575, 0.2475, 1.315, 0.905, 0.4925, 0.0825, 1.1525, 0.74, 0.33, 1.3975, 0.9875, 0.575, 0.165, 1.2325, 0.8225, 0.4125],
  "SoftwareVersions": "syngo MR E11",
  "SpacingBetweenSlices": 2,
  "StationName": "AWP166108",
  "TaskName": "backtothefuture",
  "TotalReadoutTime": 0.0588013,
  "TxRefAmp": 258.416,
  "WipMemBlock": "6cf2b0f2-bbbc-465a-b078-94c8d6c652e1||Sequence: R016 ve11c/master r/e634e98; Dec 19 2017 11:00:25 by eja",
  "dcmmeta_affine": [
    [-2.0, 0.0, 0.0, 106.0],
    [0.0, 2.0, 0.0, -93.15662384033203],
    [0.0, 0.0, 2.0, -61.9638557434082],
    [0.0, 0.0, 0.0, 1.0]
],
  "dcmmeta_reorient_transform": [
    [0.0, -1.0, 0.0, 105.0],
    [1.0, 0.0, 0.0, 0.0],
    [0.0, 0.0, 1.0, 0.0],
    [0.0, 0.0, 0.0, 1.0]
],
  "dcmmeta_shape": [106, 106, 72, 1608],
  "dcmmeta_slice_dim": 2,
  "dcmmeta_version": 0.6,
  "global": {
    "const": {
      "AcquisitionMatrix": [106, 0, 0, 106],
      "AngioFlag": "N",
      "BitsAllocated": 16,
      "BitsStored": 16,
      "BodyPartExamined": "BRAIN",
      "CardiacNumberOfImages": 1,
      "Columns": 954,
      "EchoNumbers": 1,
      "EchoTime": 35.2,
      "EchoTrainLength": 106,
      "FlipAngle": 60.0,
      "HighBit": 15,
      "ImageOrientationPatient": [1.0, 0.0, 0.0, 0.0, 1.0, 0.0],
      "ImagePositionPatient": [-954.0, -964.84337329865, -61.963855743408],
      "ImageType": [
        "ORIGINAL",
        "PRIMARY",
        "M",
        "MB",
        "ND",
        "MOSAIC"
],
      "ImagedNucleus": "1H",
      "ImagingFrequency": 123.243647,
      "InPlanePhaseEncodingDirection": "COL",
      "MRAcquisitionType": "2D",
      "MagneticFieldStrength": 3.0,
      "Manufacturer": "SIEMENS",
      "ManufacturerModelName": "Prisma",
      "Modality": "MR",
      "NominalInterval": 0,
      "NumberOfAverages": 1.0,
      "NumberOfPhaseEncodingSteps": 106,
      "PercentPhaseFieldOfView": 100.0,
      "PercentSampling": 100.0,
      "PerformedProcedureStepStartTime": "152410.689000",
      "PhotometricInterpretation": "MONOCHROME2",
      "PixelBandwidth": 2620.0,
      "PixelRepresentation": 0,
      "PixelSpacing": [2.0, 2.0],
      "ProtocolName": "task-backtothefuture_run-3",
      "RepetitionTime": 1500.0,
      "Rows": 954,
      "SAR": 0.08378959405812,
      "SamplesPerPixel": 1,
      "ScanOptions": [
        "FS",
        "EXT"
],
      "ScanningSequence": "EP",
      "SequenceName": "epfid2d1_106",
      "SequenceVariant": [
        "SK",
        "SS"
],
      "SeriesDescription": "task-backtothefuture_run-3",
      "SeriesNumber": 14,
      "SeriesTime": "173635.388000",
      "SliceLocation": -61.963855743408,
      "SliceThickness": 2.0,
      "SmallestImagePixelValue": 0,
      "SoftwareVersions": "syngo MR E11",
      "SpacingBetweenSlices": 2.0000000537281,
      "SpecificCharacterSet": "ISO_IR 100",
      "StudyID": "1",
      "StudyTime": "152410.631000",
      "TransmitCoilName": "Body",
      "VariableFlipAngleFlag": "N",
      "WindowCenterWidthExplanation": "Algo1",
      "dBdt": 0.0},
    "slices": {}
  },
  "time": {
    "samples": {
      "AcquisitionNumber": [1, 2, 3, 4, 5, 6, 7, 8, 9, 10, 11, 12, 13, 14, 15, 16, 17, 18, 19, 20, 21, 22, 23, 24, 25, 26, 27, 28, 29, 30, 31, 32, 33, 34, 35, 36, 37, 38, 39, 40, 41, 42, 43, 44, 45, 46, 47, 48, 49, 50, 51, 52, 53, 54, 55, 56, 57, 58, 59, 60, 61, 62, 63, 64, 65, 66, 67, 68, 69, 70, 71, 72, 73, 74, 75, 76, 77, 78, 79, 80, 81, 82, 83, 84, 85, 86, 87, 88, 89, 90, 91, 92, 93, 94, 95, 96, 97, 98, 99, 100, 101, 102, 103, 104, 105, 106, 107, 108, 109, 110, 111, 112, 113, 114, 115, 116, 117, 118, 119, 120, 121, 122, 123, 124, 125, 126, 127, 128, 129, 130, 131, 132, 133, 134, 135, 136, 137, 138, 139, 140, 141, 142, 143, 144, 145, 146, 147, 148, 149, 150, 151, 152, 153, 154, 155, 156, 157, 158, 159, 160, 161, 162, 163, 164, 165, 166, 167, 168, 169, 170, 171, 172, 173, 174, 175, 176, 177, 178, 179, 180, 181, 182, 183, 184, 185, 186, 187, 188, 189, 190, 191, 192, 193, 194, 195, 196, 197, 198, 199, 200, 201, 202, 203, 204, 205, 206, 207, 208, 209, 210, 211, 212, 213, 214, 215, 216, 217, 218, 219, 220, 221, 222, 223, 224, 225, 226, 227, 228, 229, 230, 231, 232, 233, 234, 235, 236, 237, 238, 239, 240, 241, 242, 243, 244, 245, 246, 247, 248, 249, 250, 251, 252, 253, 254, 255, 256, 257, 258, 259, 260, 261, 262, 263, 264, 265, 266, 267, 268, 269, 270, 271, 272, 273, 274, 275, 276, 277, 278, 279, 280, 281, 282, 283, 284, 285, 286, 287, 288, 289, 290, 291, 292, 293, 294, 295, 296, 297, 298, 299, 300, 301, 302, 303, 304, 305, 306, 307, 308, 309, 310, 311, 312, 313, 314, 315, 316, 317, 318, 319, 320, 321, 322, 323, 324, 325, 326, 327, 328, 329, 330, 331, 332, 333, 334, 335, 336, 337, 338, 339, 340, 341, 342, 343, 344, 345, 346, 347, 348, 349, 350, 351, 352, 353, 354, 355, 356, 357, 358, 359, 360, 361, 362, 363, 364, 365, 366, 367, 368, 369, 370, 371, 372, 373, 374, 375, 376, 377, 378, 379, 380, 381, 382, 383, 384, 385, 386, 387, 388, 389, 390, 391, 392, 393, 394, 395, 396, 397, 398, 399, 400, 401, 402, 403, 404, 405, 406, 407, 408, 409, 410, 411, 412, 413, 414, 415, 416, 417, 418, 419, 420, 421, 422, 423, 424, 425, 426, 427, 428, 429, 430, 431, 432, 433, 434, 435, 436, 437, 438, 439, 440, 441, 442, 443, 444, 445, 446, 447, 448, 449, 450, 451, 452, 453, 454, 455, 456, 457, 458, 459, 460, 461, 462, 463, 464, 465, 466, 467, 468, 469, 470, 471, 472, 473, 474, 475, 476, 477, 478, 479, 480, 481, 482, 483, 484, 485, 486, 487, 488, 489, 490, 491, 492, 493, 494, 495, 496, 497, 498, 499, 500, 501, 502, 503, 504, 505, 506, 507, 508, 509, 510, 511, 512, 513, 514, 515, 516, 517, 518, 519, 520, 521, 522, 523, 524, 525, 526, 527, 528, 529, 530, 531, 532, 533, 534, 535, 536, 537, 538, 539, 540, 541, 542, 543, 544, 545, 546, 547, 548, 549, 550, 551, 552, 553, 554, 555, 556, 557, 558, 559, 560, 561, 562, 563, 564, 565, 566, 567, 568, 569, 570, 571, 572, 573, 574, 575, 576, 577, 578, 579, 580, 581, 582, 583, 584, 585, 586, 587, 588, 589, 590, 591, 592, 593, 594, 595, 596, 597, 598, 599, 600, 601, 602, 603, 604, 605, 606, 607, 608, 609, 610, 611, 612, 613, 614, 615, 616, 617, 618, 619, 620, 621, 622, 623, 624, 625, 626, 627, 628, 629, 630, 631, 632, 633, 634, 635, 636, 637, 638, 639, 640, 641, 642, 643, 644, 645, 646, 647, 648, 649, 650, 651, 652, 653, 654, 655, 656, 657, 658, 659, 660, 661, 662, 663, 664, 665, 666, 667, 668, 669, 670, 671, 672, 673, 674, 675, 676, 677, 678, 679, 680, 681, 682, 683, 684, 685, 686, 687, 688, 689, 690, 691, 692, 693, 694, 695, 696, 697, 698, 699, 700, 701, 702, 703, 704, 705, 706, 707, 708, 709, 710, 711, 712, 713, 714, 715, 716, 717, 718, 719, 720, 721, 722, 723, 724, 725, 726, 727, 728, 729, 730, 731, 732, 733, 734, 735, 736, 737, 738, 739, 740, 741, 742, 743, 744, 745, 746, 747, 748, 749, 750, 751, 752, 753, 754, 755, 756, 757, 758, 759, 760, 761, 762, 763, 764, 765, 766, 767, 768, 769, 770, 771, 772, 773, 774, 775, 776, 777, 778, 779, 780, 781, 782, 783, 784, 785, 786, 787, 788, 789, 790, 791, 792, 793, 794, 795, 796, 797, 798, 799, 800, 801, 802, 803, 804, 805, 806, 807, 808, 809, 810, 811, 812, 813, 814, 815, 816, 817, 818, 819, 820, 821, 822, 823, 824, 825, 826, 827, 828, 829, 830, 831, 832, 833, 834, 835, 836, 837, 838, 839, 840, 841, 842, 843, 844, 845, 846, 847, 848, 849, 850, 851, 852, 853, 854, 855, 856, 857, 858, 859, 860, 861, 862, 863, 864, 865, 866, 867, 868, 869, 870, 871, 872, 873, 874, 875, 876, 877, 878, 879, 880, 881, 882, 883, 884, 885, 886, 887, 888, 889, 890, 891, 892, 893, 894, 895, 896, 897, 898, 899, 900, 901, 902, 903, 904, 905, 906, 907, 908, 909, 910, 911, 912, 913, 914, 915, 916, 917, 918, 919, 920, 921, 922, 923, 924, 925, 926, 927, 928, 929, 930, 931, 932, 933, 934, 935, 936, 937, 938, 939, 940, 941, 942, 943, 944, 945, 946, 947, 948, 949, 950, 951, 952, 953, 954, 955, 956, 957, 958, 959, 960, 961, 962, 963, 964, 965, 966, 967, 968, 969, 970, 971, 972, 973, 974, 975, 976, 977, 978, 979, 980, 981, 982, 983, 984, 985, 986, 987, 988, 989, 990, 991, 992, 993, 994, 995, 996, 997, 998, 999, 1000, 1001, 1002, 1003, 1004, 1005, 1006, 1007, 1008, 1009, 1010, 1011, 1012, 1013, 1014, 1015, 1016, 1017, 1018, 1019, 1020, 1021, 1022, 1023, 1024, 1025, 1026, 1027, 1028, 1029, 1030, 1031, 1032, 1033, 1034, 1035, 1036, 1037, 1038, 1039, 1040, 1041, 1042, 1043, 1044, 1045, 1046, 1047, 1048, 1049, 1050, 1051, 1052, 1053, 1054, 1055, 1056, 1057, 1058, 1059, 1060, 1061, 1062, 1063, 1064, 1065, 1066, 1067, 1068, 1069, 1070, 1071, 1072, 1073, 1074, 1075, 1076, 1077, 1078, 1079, 1080, 1081, 1082, 1083, 1084, 1085, 1086, 1087, 1088, 1089, 1090, 1091, 1092, 1093, 1094, 1095, 1096, 1097, 1098, 1099, 1100, 1101, 1102, 1103, 1104, 1105, 1106, 1107, 1108, 1109, 1110, 1111, 1112, 1113, 1114, 1115, 1116, 1117, 1118, 1119, 1120, 1121, 1122, 1123, 1124, 1125, 1126, 1127, 1128, 1129, 1130, 1131, 1132, 1133, 1134, 1135, 1136, 1137, 1138, 1139, 1140, 1141, 1142, 1143, 1144, 1145, 1146, 1147, 1148, 1149, 1150, 1151, 1152, 1153, 1154, 1155, 1156, 1157, 1158, 1159, 1160, 1161, 1162, 1163, 1164, 1165, 1166, 1167, 1168, 1169, 1170, 1171, 1172, 1173, 1174, 1175, 1176, 1177, 1178, 1179, 1180, 1181, 1182, 1183, 1184, 1185, 1186, 1187, 1188, 1189, 1190, 1191, 1192, 1193, 1194, 1195, 1196, 1197, 1198, 1199, 1200, 1201, 1202, 1203, 1204, 1205, 1206, 1207, 1208, 1209, 1210, 1211, 1212, 1213, 1214, 1215, 1216, 1217, 1218, 1219, 1220, 1221, 1222, 1223, 1224, 1225, 1226, 1227, 1228, 1229, 1230, 1231, 1232, 1233, 1234, 1235, 1236, 1237, 1238, 1239, 1240, 1241, 1242, 1243, 1244, 1245, 1246, 1247, 1248, 1249, 1250, 1251, 1252, 1253, 1254, 1255, 1256, 1257, 1258, 1259, 1260, 1261, 1262, 1263, 1264, 1265, 1266, 1267, 1268, 1269, 1270, 1271, 1272, 1273, 1274, 1275, 1276, 1277, 1278, 1279, 1280, 1281, 1282, 1283, 1284, 1285, 1286, 1287, 1288, 1289, 1290, 1291, 1292, 1293, 1294, 1295, 1296, 1297, 1298, 1299, 1300, 1301, 1302, 1303, 1304, 1305, 1306, 1307, 1308, 1309, 1310, 1311, 1312, 1313, 1314, 1315, 1316, 1317, 1318, 1319, 1320, 1321, 1322, 1323, 1324, 1325, 1326, 1327, 1328, 1329, 1330, 1331, 1332, 1333, 1334, 1335, 1336, 1337, 1338, 1339, 1340, 1341, 1342, 1343, 1344, 1345, 1346, 1347, 1348, 1349, 1350, 1351, 1352, 1353, 1354, 1355, 1356, 1357, 1358, 1359, 1360, 1361, 1362, 1363, 1364, 1365, 1366, 1367, 1368, 1369, 1370, 1371, 1372, 1373, 1374, 1375, 1376, 1377, 1378, 1379, 1380, 1381, 1382, 1383, 1384, 1385, 1386, 1387, 1388, 1389, 1390, 1391, 1392, 1393, 1394, 1395, 1396, 1397, 1398, 1399, 1400, 1401, 1402, 1403, 1404, 1405, 1406, 1407, 1408, 1409, 1410, 1411, 1412, 1413, 1414, 1415, 1416, 1417, 1418, 1419, 1420, 1421, 1422, 1423, 1424, 1425, 1426, 1427, 1428, 1429, 1430, 1431, 1432, 1433, 1434, 1435, 1436, 1437, 1438, 1439, 1440, 1441, 1442, 1443, 1444, 1445, 1446, 1447, 1448, 1449, 1450, 1451, 1452, 1453, 1454, 1455, 1456, 1457, 1458, 1459, 1460, 1461, 1462, 1463, 1464, 1465, 1466, 1467, 1468, 1469, 1470, 1471, 1472, 1473, 1474, 1475, 1476, 1477, 1478, 1479, 1480, 1481, 1482, 1483, 1484, 1485, 1486, 1487, 1488, 1489, 1490, 1491, 1492, 1493, 1494, 1495, 1496, 1497, 1498, 1499, 1500, 1501, 1502, 1503, 1504, 1505, 1506, 1507, 1508, 1509, 1510, 1511, 1512, 1513, 1514, 1515, 1516, 1517, 1518, 1519, 1520, 1521, 1522, 1523, 1524, 1525, 1526, 1527, 1528, 1529, 1530, 1531, 1532, 1533, 1534, 1535, 1536, 1537, 1538, 1539, 1540, 1541, 1542, 1543, 1544, 1545, 1546, 1547, 1548, 1549, 1550, 1551, 1552, 1553, 1554, 1555, 1556, 1557, 1558, 1559, 1560, 1561, 1562, 1563, 1564, 1565, 1566, 1567, 1568, 1569, 1570, 1571, 1572, 1573, 1574, 1575, 1576, 1577, 1578, 1579, 1580, 1581, 1582, 1583, 1584, 1585, 1586, 1587, 1588, 1589, 1590, 1591, 1592, 1593, 1594, 1595, 1596, 1597, 1598, 1599, 1600, 1601, 1602, 1603, 1604, 1605, 1606, 1607, 1608],
      "AcquisitionTime": ["173553.102500", "173554.602500", "173556.102500", "173557.602500", "173559.102500", "173600.602500", "173602.102500", "173603.602500", "173605.102500", "173606.602500", "173608.102500", "173609.602500", "173611.102500", "173612.602500", "173614.102500", "173615.602500", "173617.102500", "173618.602500", "173620.102500", "173621.602500", "173623.102500", "173624.602500", "173626.102500", "173627.602500", "173629.102500", "173630.602500", "173632.102500", "173633.602500", "173635.102500", "173636.602500", "173638.102500", "173639.602500", "173641.102500", "173642.602500", "173644.102500", "173645.602500", "173647.102500", "173648.602500", "173650.102500", "173651.602500", "173653.102500", "173654.602500", "173656.102500", "173657.602500", "173659.102500", "173700.602500", "173702.102500", "173703.602500", "173705.102500", "173706.602500", "173708.102500", "173709.602500", "173711.102500", "173712.602500", "173714.102500", "173715.602500", "173717.102500", "173718.602500", "173720.102500", "173721.602500", "173723.102500", "173724.602500", "173726.102500", "173727.602500", "173729.102500", "173730.602500", "173732.102500", "173733.602500", "173735.102500", "173736.602500", "173738.102500", "173739.602500", "173741.102500", "173742.602500", "173744.102500", "173745.602500", "173747.102500", "173748.602500", "173750.102500", "173751.602500", "173753.102500", "173754.602500", "173756.102500", "173757.602500", "173759.102500", "173800.602500", "173802.102500", "173803.602500", "173805.102500", "173806.602500", "173808.102500", "173809.602500", "173811.102500", "173812.602500", "173814.102500", "173815.602500", "173817.102500", "173818.602500", "173820.102500", "173821.602500", "173823.102500", "173824.602500", "173826.102500", "173827.602500", "173829.102500", "173830.602500", "173832.102500", "173833.602500", "173835.102500", "173836.602500", "173838.102500", "173839.602500", "173841.102500", "173842.602500", "173844.102500", "173845.602500", "173847.102500", "173848.602500", "173850.102500", "173851.602500", "173853.102500", "173854.602500", "173856.102500", "173857.602500", "173859.102500", "173900.602500", "173902.102500", "173903.602500", "173905.102500", "173906.602500", "173908.102500", "173909.602500", "173911.102500", "173912.602500", "173914.102500", "173915.602500", "173917.102500", "173918.602500", "173920.102500", "173921.602500", "173923.102500", "173924.602500", "173926.102500", "173927.602500", "173929.102500", "173930.602500", "173932.102500", "173933.602500", "173935.102500", "173936.602500", "173938.102500", "173939.602500", "173941.102500", "173942.602500", "173944.102500", "173945.602500", "173947.102500", "173948.602500", "173950.102500", "173951.602500", "173953.102500", "173954.602500", "173956.102500", "173957.602500", "173959.102500", "174000.602500", "174002.102500", "174003.602500", "174005.102500", "174006.602500", "174008.102500", "174009.602500", "174011.102500", "174012.602500", "174014.102500", "174015.602500", "174017.102500", "174018.602500", "174020.102500", "174021.602500", "174023.102500", "174024.602500", "174026.102500", "174027.602500", "174029.102500", "174030.602500", "174032.102500", "174033.602500", "174035.102500", "174036.602500", "174038.102500", "174039.602500", "174041.102500", "174042.602500", "174044.102500", "174045.602500", "174047.102500", "174048.602500", "174050.102500", "174051.602500", "174053.102500", "174054.602500", "174056.102500", "174057.602500", "174059.102500", "174100.602500", "174102.102500", "174103.602500", "174105.102500", "174106.602500", "174108.102500", "174109.602500", "174111.102500", "174112.602500", "174114.102500", "174115.602500", "174117.102500", "174118.602500", "174120.102500", "174121.602500", "174123.102500", "174124.602500", "174126.102500", "174127.602500", "174129.102500", "174130.602500", "174132.102500", "174133.602500", "174135.102500", "174136.602500", "174138.102500", "174139.602500", "174141.102500", "174142.602500", "174144.102500", "174145.602500", "174147.102500", "174148.602500", "174150.102500", "174151.602500", "174153.102500", "174154.602500", "174156.102500", "174157.602500", "174159.102500", "174200.602500", "174202.102500", "174203.602500", "174205.102500", "174206.602500", "174208.102500", "174209.602500", "174211.102500", "174212.602500", "174214.102500", "174215.602500", "174217.102500", "174218.602500", "174220.102500", "174221.602500", "174223.102500", "174224.602500", "174226.102500", "174227.602500", "174229.102500", "174230.602500", "174232.102500", "174233.602500", "174235.102500", "174236.602500", "174238.102500", "174239.602500", "174241.102500", "174242.602500", "174244.102500", "174245.602500", "174247.102500", "174248.602500", "174250.102500", "174251.602500", "174253.102500", "174254.602500", "174256.102500", "174257.602500", "174259.102500", "174300.602500", "174302.102500", "174303.602500", "174305.102500", "174306.602500", "174308.102500", "174309.602500", "174311.102500", "174312.602500", "174314.102500", "174315.602500", "174317.102500", "174318.602500", "174320.102500", "174321.602500", "174323.102500", "174324.602500", "174326.102500", "174327.602500", "174329.102500", "174330.602500", "174332.102500", "174333.602500", "174335.102500", "174336.602500", "174338.102500", "174339.602500", "174341.102500", "174342.602500", "174344.102500", "174345.602500", "174347.102500", "174348.602500", "174350.102500", "174351.602500", "174353.102500", "174354.602500", "174356.102500", "174357.602500", "174359.102500", "174400.602500", "174402.102500", "174403.602500", "174405.102500", "174406.602500", "174408.102500", "174409.602500", "174411.102500", "174412.602500", "174414.102500", "174415.602500", "174417.102500", "174418.602500", "174420.102500", "174421.602500", "174423.102500", "174424.602500", "174426.102500", "174427.602500", "174429.102500", "174430.602500", "174432.102500", "174433.602500", "174435.102500", "174436.602500", "174438.102500", "174439.602500", "174441.102500", "174442.602500", "174444.102500", "174445.602500", "174447.102500", "174448.602500", "174450.102500", "174451.602500", "174453.102500", "174454.602500", "174456.102500", "174457.602500", "174459.102500", "174500.602500", "174502.102500", "174503.602500", "174505.102500", "174506.602500", "174508.102500", "174509.602500", "174511.102500", "174512.602500", "174514.102500", "174515.602500", "174517.102500", "174518.602500", "174520.102500", "174521.602500", "174523.102500", "174524.602500", "174526.102500", "174527.602500", "174529.102500", "174530.602500", "174532.102500", "174533.602500", "174535.102500", "174536.602500", "174538.102500", "174539.602500", "174541.102500", "174542.602500", "174544.102500", "174545.602500", "174547.102500", "174548.602500", "174550.102500", "174551.602500", "174553.102500", "174554.602500", "174556.102500", "174557.602500", "174559.102500", "174600.602500", "174602.102500", "174603.602500", "174605.102500", "174606.602500", "174608.102500", "174609.602500", "174611.102500", "174612.602500", "174614.102500", "174615.602500", "174617.102500", "174618.602500", "174620.102500", "174621.602500", "174623.102500", "174624.602500", "174626.102500", "174627.602500", "174629.102500", "174630.602500", "174632.102500", "174633.602500", "174635.102500", "174636.602500", "174638.102500", "174639.602500", "174641.102500", "174642.602500", "174644.102500", "174645.602500", "174647.102500", "174648.602500", "174650.102500", "174651.602500", "174653.102500", "174654.602500", "174656.102500", "174657.602500", "174659.102500", "174700.602500", "174702.102500", "174703.602500", "174705.102500", "174706.602500", "174708.102500", "174709.602500", "174711.102500", "174712.602500", "174714.102500", "174715.602500", "174717.102500", "174718.602500", "174720.102500", "174721.602500", "174723.102500", "174724.602500", "174726.102500", "174727.602500", "174729.102500", "174730.602500", "174732.102500", "174733.602500", "174735.102500", "174736.602500", "174738.102500", "174739.602500", "174741.102500", "174742.602500", "174744.102500", "174745.602500", "174747.102500", "174748.602500", "174750.102500", "174751.602500", "174753.102500", "174754.602500", "174756.102500", "174757.602500", "174759.102500", "174800.602500", "174802.102500", "174803.602500", "174805.102500", "174806.602500", "174808.102500", "174809.602500", "174811.102500", "174812.602500", "174814.102500", "174815.602500", "174817.102500", "174818.602500", "174820.102500", "174821.602500", "174823.102500", "174824.602500", "174826.102500", "174827.602500", "174829.102500", "174830.602500", "174832.102500", "174833.602500", "174835.102500", "174836.602500", "174838.102500", "174839.602500", "174841.102500", "174842.602500", "174844.102500", "174845.602500", "174847.102500", "174848.602500", "174850.102500", "174851.602500", "174853.102500", "174854.602500", "174856.102500", "174857.602500", "174859.102500", "174900.602500", "174902.102500", "174903.602500", "174905.102500", "174906.602500", "174908.102500", "174909.602500", "174911.102500", "174912.602500", "174914.102500", "174915.602500", "174917.102500", "174918.602500", "174920.102500", "174921.602500", "174923.102500", "174924.602500", "174926.102500", "174927.602500", "174929.102500", "174930.602500", "174932.102500", "174933.602500", "174935.102500", "174936.602500", "174938.102500", "174939.602500", "174941.102500", "174942.602500", "174944.102500", "174945.602500", "174947.102500", "174948.602500", "174950.102500", "174951.602500", "174953.102500", "174954.602500", "174956.102500", "174957.602500", "174959.102500", "175000.602500", "175002.102500", "175003.602500", "175005.102500", "175006.602500", "175008.102500", "175009.602500", "175011.102500", "175012.602500", "175014.102500", "175015.602500", "175017.102500", "175018.602500", "175020.102500", "175021.602500", "175023.102500", "175024.602500", "175026.102500", "175027.602500", "175029.102500", "175030.602500", "175032.102500", "175033.602500", "175035.102500", "175036.602500", "175038.102500", "175039.602500", "175041.102500", "175042.602500", "175044.102500", "175045.602500", "175047.102500", "175048.602500", "175050.102500", "175051.602500", "175053.102500", "175054.602500", "175056.102500", "175057.602500", "175059.102500", "175100.602500", "175102.102500", "175103.602500", "175105.102500", "175106.602500", "175108.102500", "175109.602500", "175111.102500", "175112.602500", "175114.102500", "175115.602500", "175117.102500", "175118.602500", "175120.102500", "175121.602500", "175123.102500", "175124.602500", "175126.102500", "175127.602500", "175129.102500", "175130.602500", "175132.102500", "175133.602500", "175135.102500", "175136.602500", "175138.102500", "175139.602500", "175141.102500", "175142.602500", "175144.102500", "175145.602500", "175147.102500", "175148.602500", "175150.102500", "175151.602500", "175153.102500", "175154.602500", "175156.102500", "175157.602500", "175159.102500", "175200.602500", "175202.102500", "175203.602500", "175205.102500", "175206.602500", "175208.102500", "175209.602500", "175211.102500", "175212.602500", "175214.102500", "175215.602500", "175217.102500", "175218.602500", "175220.102500", "175221.602500", "175223.102500", "175224.602500", "175226.102500", "175227.602500", "175229.102500", "175230.602500", "175232.102500", "175233.602500", "175235.102500", "175236.602500", "175238.102500", "175239.602500", "175241.102500", "175242.602500", "175244.102500", "175245.602500", "175247.102500", "175248.602500", "175250.102500", "175251.602500", "175253.102500", "175254.602500", "175256.102500", "175257.602500", "175259.102500", "175300.602500", "175302.102500", "175303.602500", "175305.102500", "175306.602500", "175308.102500", "175309.602500", "175311.102500", "175312.602500", "175314.102500", "175315.602500", "175317.102500", "175318.602500", "175320.102500", "175321.602500", "175323.102500", "175324.602500", "175326.102500", "175327.602500", "175329.102500", "175330.602500", "175332.102500", "175333.602500", "175335.102500", "175336.602500", "175338.102500", "175339.602500", "175341.102500", "175342.602500", "175344.102500", "175345.602500", "175347.102500", "175348.602500", "175350.102500", "175351.602500", "175353.102500", "175354.602500", "175356.102500", "175357.602500", "175359.102500", "175400.602500", "175402.102500", "175403.602500", "175405.102500", "175406.602500", "175408.102500", "175409.602500", "175411.102500", "175412.602500", "175414.102500", "175415.602500", "175417.102500", "175418.602500", "175420.102500", "175421.602500", "175423.102500", "175424.602500", "175426.102500", "175427.602500", "175429.102500", "175430.602500", "175432.102500", "175433.602500", "175435.102500", "175436.602500", "175438.102500", "175439.602500", "175441.102500", "175442.602500", "175444.102500", "175445.602500", "175447.102500", "175448.602500", "175450.102500", "175451.602500", "175453.102500", "175454.602500", "175456.102500", "175457.602500", "175459.102500", "175500.602500", "175502.102500", "175503.602500", "175505.102500", "175506.602500", "175508.102500", "175509.602500", "175511.102500", "175512.602500", "175514.102500", "175515.602500", "175517.102500", "175518.602500", "175520.102500", "175521.602500", "175523.102500", "175524.602500", "175526.102500", "175527.602500", "175529.102500", "175530.602500", "175532.102500", "175533.602500", "175535.102500", "175536.602500", "175538.102500", "175539.602500", "175541.102500", "175542.602500", "175544.102500", "175545.602500", "175547.102500", "175548.602500", "175550.102500", "175551.602500", "175553.102500", "175554.602500", "175556.102500", "175557.602500", "175559.102500", "175600.602500", "175602.102500", "175603.602500", "175605.102500", "175606.602500", "175608.102500", "175609.602500", "175611.102500", "175612.602500", "175614.102500", "175615.602500", "175617.102500", "175618.602500", "175620.102500", "175621.602500", "175623.102500", "175624.602500", "175626.102500", "175627.602500", "175629.102500", "175630.602500", "175632.102500", "175633.602500", "175635.102500", "175636.602500", "175638.102500", "175639.602500", "175641.102500", "175642.602500", "175644.102500", "175645.602500", "175647.102500", "175648.602500", "175650.102500", "175651.602500", "175653.102500", "175654.602500", "175656.102500", "175657.602500", "175659.102500", "175700.602500", "175702.102500", "175703.602500", "175705.102500", "175706.602500", "175708.102500", "175709.602500", "175711.102500", "175712.602500", "175714.102500", "175715.602500", "175717.102500", "175718.602500", "175720.102500", "175721.602500", "175723.102500", "175724.602500", "175726.102500", "175727.602500", "175729.102500", "175730.602500", "175732.102500", "175733.602500", "175735.102500", "175736.602500", "175738.102500", "175739.602500", "175741.102500", "175742.602500", "175744.102500", "175745.602500", "175747.102500", "175748.602500", "175750.102500", "175751.602500", "175753.102500", "175754.602500", "175756.102500", "175757.602500", "175759.102500", "175800.602500", "175802.102500", "175803.602500", "175805.102500", "175806.602500", "175808.102500", "175809.602500", "175811.102500", "175812.602500", "175814.102500", "175815.602500", "175817.102500", "175818.602500", "175820.102500", "175821.602500", "175823.102500", "175824.602500", "175826.102500", "175827.602500", "175829.102500", "175830.602500", "175832.102500", "175833.602500", "175835.102500", "175836.602500", "175838.102500", "175839.602500", "175841.102500", "175842.602500", "175844.102500", "175845.602500", "175847.102500", "175848.602500", "175850.102500", "175851.602500", "175853.102500", "175854.602500", "175856.102500", "175857.602500", "175859.102500", "175900.602500", "175902.102500", "175903.602500", "175905.102500", "17590