{
  "AcquisitionMatrixPE": 106,
  "AcquisitionNumber": 1,
  "AcquisitionTime": "16:31:29.272500",
  "BandwidthPerPixelPhaseEncode": 16.846,
  "BaseResolution": 106,
  "BodyPartExamined": "BRAIN",
  "CoilCombinationMethod": "Sum of Squares",
  "ConsistencyInfo": "N4_VE11C_LATEST_20160120",
  "ConversionSoftware": "dcm2niix",
  "ConversionSoftwareVersion": "v1.0.20220720",
  "DerivedVendorReportedEchoSpacing": 0.000560012,
  "DeviceSerialNumber": "166108",
  "DwellTime": 1.8e-06,
  "EchoTime": 0.0352,
  "EchoTrainLength": 106,
  "EffectiveEchoSpacing": 0.000560012,
  "FlipAngle": 60,
  "HeudiconvVersion": "1.3.0",
  "ImageComments": "Unaliased MB4/PE3/LB",
  "ImageOrientationPatientDICOM": [1, 0, 0, 0, 1, 0],
  "ImageOrientationText": "Tra",
  "ImageType": [
    "ORIGINAL",
    "PRIMARY",
    "M",
    "MB",
    "ND",
    "MOSAIC"
],
  "ImagingFrequency": 123.244,
  "InPlanePhaseEncodingDirectionDICOM": "COL",
  "InstitutionAddress": "Bedford Way 26,London,London,GB,WC1H 0AP",
  "InstitutionName": "University College",
  "InstitutionalDepartmentName": "Department",
  "MRAcquisitionType": "2D",
  "MagneticFieldStrength": 3,
  "Manufacturer": "Siemens",
  "ManufacturersModelName": "Prisma",
  "MatrixCoilMode": "SENSE",
  "Modality": "MR",
  "MultibandAccelerationFactor": 4,
  "NonlinearGradientCorrection": false,
  "PartialFourier": 1,
  "PatientPosition": "HFS",
  "PercentPhaseFOV": 100,
  "PercentSampling": 100,
  "PhaseEncodingDirection": "j-",
  "PhaseEncodingSteps": 106,
  "PhaseResolution": 1,
  "PixelBandwidth": 2620,
  "ProcedureStepDescription": "Egor^MovieProject2",
  "ProtocolName": "task-backtothefuture_run-2",
  "PulseSequenceDetails": "%CustomerSeq%\\cmrr_mbep2d_bold",
  "ReceiveCoilActiveElements": "HEA;HEP",
  "ReceiveCoilName": "Head_32",
  "ReconMatrixPE": 106,
  "RepetitionTime": 1.5,
  "SAR": 0.0900405,
  "ScanOptions": "FS\\EXT",
  "ScanningSequence": "EP",
  "SequenceName": "epfid2d1_106",
  "SequenceVariant": "SK\\SS",
  "SeriesDescription": "task-backtothefuture_run-2",
  "SeriesNumber": 7,
  "ShimSetting": [-1525, 620, 7399, 139, -48, -40, 92, -93],
  "SliceThickness": 2,
  "SliceTiming": [0, 1.07, 0.6575, 0.2475, 1.315, 0.905, 0.4925, 0.0825, 1.1525, 0.74, 0.33, 1.3975, 0.9875, 0.575, 0.165, 1.2325, 0.8225, 0.4125, 0, 1.07, 0.6575, 0.2475, 1.315, 0.905, 0.4925, 0.0825, 1.1525, 0.74, 0.33, 1.3975, 0.9875, 0.575, 0.165, 1.2325, 0.8225, 0.4125, 0, 1.07, 0.6575, 0.2475, 1.315, 0.905, 0.4925, 0.0825, 1.1525, 0.74, 0.33, 1.3975, 0.9875, 0.575, 0.165, 1.2325, 0.8225, 0.4125, 0, 1.07, 0.6575, 0.2475, 1.315, 0.905, 0.4925, 0.0825, 1.1525, 0.74, 0.33, 1.3975, 0.9875, 0.575, 0.165, 1.2325, 0.8225, 0.4125],
  "SoftwareVersions": "syngo MR E11",
  "SpacingBetweenSlices": 2,
  "StationName": "AWP166108",
  "TaskName": "backtothefuture",
  "TotalReadoutTime": 0.0588013,
  "TxRefAmp": 266.209,
  "WipMemBlock": "214a308f-0d42-4d3b-a4b6-56b61a5ae0cc||Sequence: R016 ve11c/master r/e634e98; Dec 19 2017 11:00:25 by eja",
  "dcmmeta_affine": [
    [-2.0, 0.0, 0.0, 106.0],
    [0.0, 2.0, 0.0, -93.15662384033203],
    [0.0, 0.0, 2.0, -61.9638557434082],
    [0.0, 0.0, 0.0, 1.0]
],
  "dcmmeta_reorient_transform": [
    [0.0, -1.0, 0.0, 105.0],
    [1.0, 0.0, 0.0, 0.0],
    [0.0, 0.0, 1.0, 0.0],
    [0.0, 0.0, 0.0, 1.0]
],
  "dcmmeta_shape": [106, 106, 72, 1522],
  "dcmmeta_slice_dim": 2,
  "dcmmeta_version": 0.6,
  "global": {
    "const": {
      "AcquisitionMatrix": [106, 0, 0, 106],
      "AngioFlag": "N",
      "BitsAllocated": 16,
      "BitsStored": 16,
      "BodyPartExamined": "BRAIN",
      "CardiacNumberOfImages": 1,
      "Columns": 954,
      "EchoNumbers": 1,
      "EchoTime": 35.2,
      "EchoTrainLength": 106,
      "FlipAngle": 60.0,
      "HighBit": 15,
      "ImageOrientationPatient": [1.0, 0.0, 0.0, 0.0, 1.0, 0.0],
      "ImagePositionPatient": [-954.0, -964.84337329865, -61.963855743408],
      "ImageType": [
        "ORIGINAL",
        "PRIMARY",
        "M",
        "MB",
        "ND",
        "MOSAIC"
],
      "ImagedNucleus": "1H",
      "ImagingFrequency": 123.243637,
      "InPlanePhaseEncodingDirection": "COL",
      "MRAcquisitionType": "2D",
      "MagneticFieldStrength": 3.0,
      "Manufacturer": "SIEMENS",
      "ManufacturerModelName": "Prisma",
      "Modality": "MR",
      "NominalInterval": 0,
      "NumberOfAverages": 1.0,
      "NumberOfPhaseEncodingSteps": 106,
      "PercentPhaseFieldOfView": 100.0,
      "PercentSampling": 100.0,
      "PerformedProcedureStepStartTime": "152410.689000",
      "PhotometricInterpretation": "MONOCHROME2",
      "PixelBandwidth": 2620.0,
      "PixelRepresentation": 0,
      "PixelSpacing": [2.0, 2.0],
      "ProtocolName": "task-backtothefuture_run-2",
      "RepetitionTime": 1500.0,
      "Rows": 954,
      "SAR": 0.09004054828698,
      "SamplesPerPixel": 1,
      "ScanOptions": [
        "FS",
        "EXT"
],
      "ScanningSequence": "EP",
      "SequenceName": "epfid2d1_106",
      "SequenceVariant": [
        "SK",
        "SS"
],
      "SeriesDescription": "task-backtothefuture_run-2",
      "SeriesNumber": 7,
      "SeriesTime": "163215.322000",
      "SliceLocation": -61.963855743408,
      "SliceThickness": 2.0,
      "SmallestImagePixelValue": 0,
      "SoftwareVersions": "syngo MR E11",
      "SpacingBetweenSlices": 2.0000000537281,
      "SpecificCharacterSet": "ISO_IR 100",
      "StudyID": "1",
      "StudyTime": "152410.631000",
      "TransmitCoilName": "Body",
      "VariableFlipAngleFlag": "N",
      "WindowCenterWidthExplanation": "Algo1",
      "dBdt": 0.0},
    "slices": {}
  },
  "time": {
    "samples": {
      "AcquisitionNumber": [1, 2, 3, 4, 5, 6, 7, 8, 9, 10, 11, 12, 13, 14, 15, 16, 17, 18, 19, 20, 21, 22, 23, 24, 25, 26, 27, 28, 29, 30, 31, 32, 33, 34, 35, 36, 37, 38, 39, 40, 41, 42, 43, 44, 45, 46, 47, 48, 49, 50, 51, 52, 53, 54, 55, 56, 57, 58, 59, 60, 61, 62, 63, 64, 65, 66, 67, 68, 69, 70, 71, 72, 73, 74, 75, 76, 77, 78, 79, 80, 81, 82, 83, 84, 85, 86, 87, 88, 89, 90, 91, 92, 93, 94, 95, 96, 97, 98, 99, 100, 101, 102, 103, 104, 105, 106, 107, 108, 109, 110, 111, 112, 113, 114, 115, 116, 117, 118, 119, 120, 121, 122, 123, 124, 125, 126, 127, 128, 129, 130, 131, 132, 133, 134, 135, 136, 137, 138, 139, 140, 141, 142, 143, 144, 145, 146, 147, 148, 149, 150, 151, 152, 153, 154, 155, 156, 157, 158, 159, 160, 161, 162, 163, 164, 165, 166, 167, 168, 169, 170, 171, 172, 173, 174, 175, 176, 177, 178, 179, 180, 181, 182, 183, 184, 185, 186, 187, 188, 189, 190, 191, 192, 193, 194, 195, 196, 197, 198, 199, 200, 201, 202, 203, 204, 205, 206, 207, 208, 209, 210, 211, 212, 213, 214, 215, 216, 217, 218, 219, 220, 221, 222, 223, 224, 225, 226, 227, 228, 229, 230, 231, 232, 233, 234, 235, 236, 237, 238, 239, 240, 241, 242, 243, 244, 245, 246, 247, 248, 249, 250, 251, 252, 253, 254, 255, 256, 257, 258, 259, 260, 261, 262, 263, 264, 265, 266, 267, 268, 269, 270, 271, 272, 273, 274, 275, 276, 277, 278, 279, 280, 281, 282, 283, 284, 285, 286, 287, 288, 289, 290, 291, 292, 293, 294, 295, 296, 297, 298, 299, 300, 301, 302, 303, 304, 305, 306, 307, 308, 309, 310, 311, 312, 313, 314, 315, 316, 317, 318, 319, 320, 321, 322, 323, 324, 325, 326, 327, 328, 329, 330, 331, 332, 333, 334, 335, 336, 337, 338, 339, 340, 341, 342, 343, 344, 345, 346, 347, 348, 349, 350, 351, 352, 353, 354, 355, 356, 357, 358, 359, 360, 361, 362, 363, 364, 365, 366, 367, 368, 369, 370, 371, 372, 373, 374, 375, 376, 377, 378, 379, 380, 381, 382, 383, 384, 385, 386, 387, 388, 389, 390, 391, 392, 393, 394, 395, 396, 397, 398, 399, 400, 401, 402, 403, 404, 405, 406, 407, 408, 409, 410, 411, 412, 413, 414, 415, 416, 417, 418, 419, 420, 421, 422, 423, 424, 425, 426, 427, 428, 429, 430, 431, 432, 433, 434, 435, 436, 437, 438, 439, 440, 441, 442, 443, 444, 445, 446, 447, 448, 449, 450, 451, 452, 453, 454, 455, 456, 457, 458, 459, 460, 461, 462, 463, 464, 465, 466, 467, 468, 469, 470, 471, 472, 473, 474, 475, 476, 477, 478, 479, 480, 481, 482, 483, 484, 485, 486, 487, 488, 489, 490, 491, 492, 493, 494, 495, 496, 497, 498, 499, 500, 501, 502, 503, 504, 505, 506, 507, 508, 509, 510, 511, 512, 513, 514, 515, 516, 517, 518, 519, 520, 521, 522, 523, 524, 525, 526, 527, 528, 529, 530, 531, 532, 533, 534, 535, 536, 537, 538, 539, 540, 541, 542, 543, 544, 545, 546, 547, 548, 549, 550, 551, 552, 553, 554, 555, 556, 557, 558, 559, 560, 561, 562, 563, 564, 565, 566, 567, 568, 569, 570, 571, 572, 573, 574, 575, 576, 577, 578, 579, 580, 581, 582, 583, 584, 585, 586, 587, 588, 589, 590, 591, 592, 593, 594, 595, 596, 597, 598, 599, 600, 601, 602, 603, 604, 605, 606, 607, 608, 609, 610, 611, 612, 613, 614, 615, 616, 617, 618, 619, 620, 621, 622, 623, 624, 625, 626, 627, 628, 629, 630, 631, 632, 633, 634, 635, 636, 637, 638, 639, 640, 641, 642, 643, 644, 645, 646, 647, 648, 649, 650, 651, 652, 653, 654, 655, 656, 657, 658, 659, 660, 661, 662, 663, 664, 665, 666, 667, 668, 669, 670, 671, 672, 673, 674, 675, 676, 677, 678, 679, 680, 681, 682, 683, 684, 685, 686, 687, 688, 689, 690, 691, 692, 693, 694, 695, 696, 697, 698, 699, 700, 701, 702, 703, 704, 705, 706, 707, 708, 709, 710, 711, 712, 713, 714, 715, 716, 717, 718, 719, 720, 721, 722, 723, 724, 725, 726, 727, 728, 729, 730, 731, 732, 733, 734, 735, 736, 737, 738, 739, 740, 741, 742, 743, 744, 745, 746, 747, 748, 749, 750, 751, 752, 753, 754, 755, 756, 757, 758, 759, 760, 761, 762, 763, 764, 765, 766, 767, 768, 769, 770, 771, 772, 773, 774, 775, 776, 777, 778, 779, 780, 781, 782, 783, 784, 785, 786, 787, 788, 789, 790, 791, 792, 793, 794, 795, 796, 797, 798, 799, 800, 801, 802, 803, 804, 805, 806, 807, 808, 809, 810, 811, 812, 813, 814, 815, 816, 817, 818, 819, 820, 821, 822, 823, 824, 825, 826, 827, 828, 829, 830, 831, 832, 833, 834, 835, 836, 837, 838, 839, 840, 841, 842, 843, 844, 845, 846, 847, 848, 849, 850, 851, 852, 853, 854, 855, 856, 857, 858, 859, 860, 861, 862, 863, 864, 865, 866, 867, 868, 869, 870, 871, 872, 873, 874, 875, 876, 877, 878, 879, 880, 881, 882, 883, 884, 885, 886, 887, 888, 889, 890, 891, 892, 893, 894, 895, 896, 897, 898, 899, 900, 901, 902, 903, 904, 905, 906, 907, 908, 909, 910, 911, 912, 913, 914, 915, 916, 917, 918, 919, 920, 921, 922, 923, 924, 925, 926, 927, 928, 929, 930, 931, 932, 933, 934, 935, 936, 937, 938, 939, 940, 941, 942, 943, 944, 945, 946, 947, 948, 949, 950, 951, 952, 953, 954, 955, 956, 957, 958, 959, 960, 961, 962, 963, 964, 965, 966, 967, 968, 969, 970, 971, 972, 973, 974, 975, 976, 977, 978, 979, 980, 981, 982, 983, 984, 985, 986, 987, 988, 989, 990, 991, 992, 993, 994, 995, 996, 997, 998, 999, 1000, 1001, 1002, 1003, 1004, 1005, 1006, 1007, 1008, 1009, 1010, 1011, 1012, 1013, 1014, 1015, 1016, 1017, 1018, 1019, 1020, 1021, 1022, 1023, 1024, 1025, 1026, 1027, 1028, 1029, 1030, 1031, 1032, 1033, 1034, 1035, 1036, 1037, 1038, 1039, 1040, 1041, 1042, 1043, 1044, 1045, 1046, 1047, 1048, 1049, 1050, 1051, 1052, 1053, 1054, 1055, 1056, 1057, 1058, 1059, 1060, 1061, 1062, 1063, 1064, 1065, 1066, 1067, 1068, 1069, 1070, 1071, 1072, 1073, 1074, 1075, 1076, 1077, 1078, 1079, 1080, 1081, 1082, 1083, 1084, 1085, 1086, 1087, 1088, 1089, 1090, 1091, 1092, 1093, 1094, 1095, 1096, 1097, 1098, 1099, 1100, 1101, 1102, 1103, 1104, 1105, 1106, 1107, 1108, 1109, 1110, 1111, 1112, 1113, 1114, 1115, 1116, 1117, 1118, 1119, 1120, 1121, 1122, 1123, 1124, 1125, 1126, 1127, 1128, 1129, 1130, 1131, 1132, 1133, 1134, 1135, 1136, 1137, 1138, 1139, 1140, 1141, 1142, 1143, 1144, 1145, 1146, 1147, 1148, 1149, 1150, 1151, 1152, 1153, 1154, 1155, 1156, 1157, 1158, 1159, 1160, 1161, 1162, 1163, 1164, 1165, 1166, 1167, 1168, 1169, 1170, 1171, 1172, 1173, 1174, 1175, 1176, 1177, 1178, 1179, 1180, 1181, 1182, 1183, 1184, 1185, 1186, 1187, 1188, 1189, 1190, 1191, 1192, 1193, 1194, 1195, 1196, 1197, 1198, 1199, 1200, 1201, 1202, 1203, 1204, 1205, 1206, 1207, 1208, 1209, 1210, 1211, 1212, 1213, 1214, 1215, 1216, 1217, 1218, 1219, 1220, 1221, 1222, 1223, 1224, 1225, 1226, 1227, 1228, 1229, 1230, 1231, 1232, 1233, 1234, 1235, 1236, 1237, 1238, 1239, 1240, 1241, 1242, 1243, 1244, 1245, 1246, 1247, 1248, 1249, 1250, 1251, 1252, 1253, 1254, 1255, 1256, 1257, 1258, 1259, 1260, 1261, 1262, 1263, 1264, 1265, 1266, 1267, 1268, 1269, 1270, 1271, 1272, 1273, 1274, 1275, 1276, 1277, 1278, 1279, 1280, 1281, 1282, 1283, 1284, 1285, 1286, 1287, 1288, 1289, 1290, 1291, 1292, 1293, 1294, 1295, 1296, 1297, 1298, 1299, 1300, 1301, 1302, 1303, 1304, 1305, 1306, 1307, 1308, 1309, 1310, 1311, 1312, 1313, 1314, 1315, 1316, 1317, 1318, 1319, 1320, 1321, 1322, 1323, 1324, 1325, 1326, 1327, 1328, 1329, 1330, 1331, 1332, 1333, 1334, 1335, 1336, 1337, 1338, 1339, 1340, 1341, 1342, 1343, 1344, 1345, 1346, 1347, 1348, 1349, 1350, 1351, 1352, 1353, 1354, 1355, 1356, 1357, 1358, 1359, 1360, 1361, 1362, 1363, 1364, 1365, 1366, 1367, 1368, 1369, 1370, 1371, 1372, 1373, 1374, 1375, 1376, 1377, 1378, 1379, 1380, 1381, 1382, 1383, 1384, 1385, 1386, 1387, 1388, 1389, 1390, 1391, 1392, 1393, 1394, 1395, 1396, 1397, 1398, 1399, 1400, 1401, 1402, 1403, 1404, 1405, 1406, 1407, 1408, 1409, 1410, 1411, 1412, 1413, 1414, 1415, 1416, 1417, 1418, 1419, 1420, 1421, 1422, 1423, 1424, 1425, 1426, 1427, 1428, 1429, 1430, 1431, 1432, 1433, 1434, 1435, 1436, 1437, 1438, 1439, 1440, 1441, 1442, 1443, 1444, 1445, 1446, 1447, 1448, 1449, 1450, 1451, 1452, 1453, 1454, 1455, 1456, 1457, 1458, 1459, 1460, 1461, 1462, 1463, 1464, 1465, 1466, 1467, 1468, 1469, 1470, 1471, 1472, 1473, 1474, 1475, 1476, 1477, 1478, 1479, 1480, 1481, 1482, 1483, 1484, 1485, 1486, 1487, 1488, 1489, 1490, 1491, 1492, 1493, 1494, 1495, 1496, 1497, 1498, 1499, 1500, 1501, 1502, 1503, 1504, 1505, 1506, 1507, 1508, 1509, 1510, 1511, 1512, 1513, 1514, 1515, 1516, 1517, 1518, 1519, 1520, 1521, 1522],
      "AcquisitionTime": ["163129.272500", "163130.772500", "163132.272500", "163133.772500", "163135.272500", "163136.772500", "163138.272500", "163139.772500", "163141.272500", "163142.772500", "163144.272500", "163145.772500", "163147.272500", "163148.772500", "163150.272500", "163151.772500", "163153.272500", "163154.772500", "163156.272500", "163157.772500", "163159.272500", "163200.772500", "163202.272500", "163203.772500", "163205.272500", "163206.772500", "163208.272500", "163209.772500", "163211.272500", "163212.772500", "163214.272500", "163215.772500", "163217.272500", "163218.772500", "163220.272500", "163221.772500", "163223.272500", "163224.772500", "163226.272500", "163227.772500", "163229.272500", "163230.772500", "163232.272500", "163233.772500", "163235.272500", "163236.772500", "163238.272500", "163239.772500", "163241.272500", "163242.772500", "163244.272500", "163245.772500", "163247.272500", "163248.772500", "163250.272500", "163251.772500", "163253.272500", "163254.772500", "163256.272500", "163257.772500", "163259.272500", "163300.772500", "163302.272500", "163303.772500", "163305.272500", "163306.772500", "163308.272500", "163309.772500", "163311.272500", "163312.772500", "163314.272500", "163315.772500", "163317.272500", "163318.772500", "163320.272500", "163321.772500", "163323.272500", "163324.772500", "163326.272500", "163327.772500", "163329.272500", "163330.772500", "163332.272500", "163333.772500", "163335.272500", "163336.772500", "163338.272500", "163339.772500", "163341.272500", "163342.772500", "163344.272500", "163345.772500", "163347.272500", "163348.772500", "163350.272500", "163351.772500", "163353.272500", "163354.772500", "163356.272500", "163357.772500", "163359.272500", "163400.772500", "163402.272500", "163403.772500", "163405.272500", "163406.772500", "163408.272500", "163409.772500", "163411.272500", "163412.772500", "163414.272500", "163415.772500", "163417.272500", "163418.772500", "163420.272500", "163421.772500", "163423.272500", "163424.772500", "163426.272500", "163427.772500", "163429.272500", "163430.772500", "163432.272500", "163433.772500", "163435.272500", "163436.772500", "163438.272500", "163439.772500", "163441.272500", "163442.772500", "163444.272500", "163445.772500", "163447.272500", "163448.772500", "163450.272500", "163451.772500", "163453.272500", "163454.772500", "163456.272500", "163457.772500", "163459.272500", "163500.772500", "163502.272500", "163503.772500", "163505.272500", "163506.772500", "163508.272500", "163509.772500", "163511.272500", "163512.772500", "163514.272500", "163515.772500", "163517.272500", "163518.772500", "163520.272500", "163521.772500", "163523.272500", "163524.772500", "163526.272500", "163527.772500", "163529.272500", "163530.772500", "163532.272500", "163533.772500", "163535.272500", "163536.772500", "163538.272500", "163539.772500", "163541.272500", "163542.772500", "163544.272500", "163545.772500", "163547.272500", "163548.772500", "163550.272500", "163551.772500", "163553.272500", "163554.772500", "163556.272500", "163557.772500", "163559.272500", "163600.772500", "163602.272500", "163603.772500", "163605.272500", "163606.772500", "163608.272500", "163609.772500", "163611.272500", "163612.772500", "163614.272500", "163615.772500", "163617.272500", "163618.772500", "163620.272500", "163621.772500", "163623.272500", "163624.772500", "163626.272500", "163627.772500", "163629.272500", "163630.772500", "163632.272500", "163633.772500", "163635.272500", "163636.772500", "163638.272500", "163639.772500", "163641.272500", "163642.772500", "163644.272500", "163645.772500", "163647.272500", "163648.772500", "163650.272500", "163651.772500", "163653.272500", "163654.772500", "163656.272500", "163657.772500", "163659.272500", "163700.772500", "163702.272500", "163703.772500", "163705.272500", "163706.772500", "163708.272500", "163709.772500", "163711.272500", "163712.772500", "163714.272500", "163715.772500", "163717.272500", "163718.772500", "163720.272500", "163721.772500", "163723.272500", "163724.772500", "163726.272500", "163727.772500", "163729.272500", "163730.772500", "163732.272500", "163733.772500", "163735.272500", "163736.772500", "163738.272500", "163739.772500", "163741.272500", "163742.772500", "163744.272500", "163745.772500", "163747.272500", "163748.772500", "163750.272500", "163751.772500", "163753.272500", "163754.772500", "163756.272500", "163757.772500", "163759.272500", "163800.772500", "163802.272500", "163803.772500", "163805.272500", "163806.772500", "163808.272500", "163809.772500", "163811.272500", "163812.772500", "163814.272500", "163815.772500", "163817.272500", "163818.772500", "163820.272500", "163821.772500", "163823.272500", "163824.772500", "163826.272500", "163827.772500", "163829.272500", "163830.772500", "163832.272500", "163833.772500", "163835.272500", "163836.772500", "163838.272500", "163839.772500", "163841.272500", "163842.772500", "163844.272500", "163845.772500", "163847.272500", "163848.772500", "163850.272500", "163851.772500", "163853.272500", "163854.772500", "163856.272500", "163857.772500", "163859.272500", "163900.772500", "163902.272500", "163903.772500", "163905.272500", "163906.772500", "163908.272500", "163909.772500", "163911.272500", "163912.772500", "163914.272500", "163915.772500", "163917.272500", "163918.772500", "163920.272500", "163921.772500", "163923.272500", "163924.772500", "163926.272500", "163927.772500", "163929.272500", "163930.772500", "163932.272500", "163933.772500", "163935.272500", "163936.772500", "163938.272500", "163939.772500", "163941.272500", "163942.772500", "163944.272500", "163945.772500", "163947.272500", "163948.772500", "163950.272500", "163951.772500", "163953.272500", "163954.772500", "163956.272500", "163957.772500", "163959.272500", "164000.772500", "164002.272500", "164003.772500", "164005.272500", "164006.772500", "164008.272500", "164009.772500", "164011.272500", "164012.772500", "164014.272500", "164015.772500", "164017.272500", "164018.772500", "164020.272500", "164021.772500", "164023.272500", "164024.772500", "164026.272500", "164027.772500", "164029.272500", "164030.772500", "164032.272500", "164033.772500", "164035.272500", "164036.772500", "164038.272500", "164039.772500", "164041.272500", "164042.772500", "164044.272500", "164045.772500", "164047.272500", "164048.772500", "164050.272500", "164051.772500", "164053.272500", "164054.772500", "164056.272500", "164057.772500", "164059.272500", "164100.772500", "164102.272500", "164103.772500", "164105.272500", "164106.772500", "164108.272500", "164109.772500", "164111.272500", "164112.772500", "164114.272500", "164115.772500", "164117.272500", "164118.772500", "164120.272500", "164121.772500", "164123.272500", "164124.772500", "164126.272500", "164127.772500", "164129.272500", "164130.772500", "164132.272500", "164133.772500", "164135.272500", "164136.772500", "164138.272500", "164139.772500", "164141.272500", "164142.772500", "164144.272500", "164145.772500", "164147.272500", "164148.772500", "164150.272500", "164151.772500", "164153.272500", "164154.772500", "164156.272500", "164157.772500", "164159.272500", "164200.772500", "164202.272500", "164203.772500", "164205.272500", "164206.772500", "164208.272500", "164209.772500", "164211.272500", "164212.772500", "164214.272500", "164215.772500", "164217.272500", "164218.772500", "164220.272500", "164221.772500", "164223.272500", "164224.772500", "164226.272500", "164227.772500", "164229.272500", "164230.772500", "164232.272500", "164233.772500", "164235.272500", "164236.772500", "164238.272500", "164239.772500", "164241.272500", "164242.772500", "164244.272500", "164245.772500", "164247.272500", "164248.772500", "164250.272500", "164251.772500", "164253.272500", "164254.772500", "164256.272500", "164257.772500", "164259.272500", "164300.772500", "164302.272500", "164303.772500", "164305.272500", "164306.772500", "164308.272500", "164309.772500", "164311.272500", "164312.772500", "164314.272500", "164315.772500", "164317.272500", "164318.772500", "164320.272500", "164321.772500", "164323.272500", "164324.772500", "164326.272500", "164327.772500", "164329.272500", "164330.772500", "164332.272500", "164333.772500", "164335.272500", "164336.772500", "164338.272500", "164339.772500", "164341.272500", "164342.772500", "164344.272500", "164345.772500", "164347.272500", "164348.772500", "164350.272500", "164351.772500", "164353.272500", "164354.772500", "164356.272500", "164357.772500", "164359.272500", "164400.772500", "164402.272500", "164403.772500", "164405.272500", "164406.772500", "164408.272500", "164409.772500", "164411.272500", "164412.772500", "164414.272500", "164415.772500", "164417.272500", "164418.772500", "164420.272500", "164421.772500", "164423.272500", "164424.772500", "164426.272500", "164427.772500", "164429.272500", "164430.772500", "164432.272500", "164433.772500", "164435.272500", "164436.772500", "164438.272500", "164439.772500", "164441.272500", "164442.772500", "164444.272500", "164445.772500", "164447.272500", "164448.772500", "164450.272500", "164451.772500", "164453.272500", "164454.772500", "164456.272500", "164457.772500", "164459.272500", "164500.772500", "164502.272500", "164503.772500", "164505.272500", "164506.772500", "164508.272500", "164509.772500", "164511.272500", "164512.772500", "164514.272500", "164515.772500", "164517.272500", "164518.772500", "164520.272500", "164521.772500", "164523.272500", "164524.772500", "164526.272500", "164527.772500", "164529.272500", "164530.772500", "164532.272500", "164533.772500", "164535.272500", "164536.772500", "164538.272500", "164539.772500", "164541.272500", "164542.772500", "164544.272500", "164545.772500", "164547.272500", "164548.772500", "164550.272500", "164551.772500", "164553.272500", "164554.772500", "164556.272500", "164557.772500", "164559.272500", "164600.772500", "164602.272500", "164603.772500", "164605.272500", "164606.772500", "164608.272500", "164609.772500", "164611.272500", "164612.772500", "164614.272500", "164615.772500", "164617.272500", "164618.772500", "164620.272500", "164621.772500", "164623.272500", "164624.772500", "164626.272500", "164627.772500", "164629.272500", "164630.772500", "164632.272500", "164633.772500", "164635.272500", "164636.772500", "164638.272500", "164639.772500", "164641.272500", "164642.772500", "164644.272500", "164645.772500", "164647.272500", "164648.772500", "164650.272500", "164651.772500", "164653.272500", "164654.772500", "164656.272500", "164657.772500", "164659.272500", "164700.772500", "164702.272500", "164703.772500", "164705.272500", "164706.772500", "164708.272500", "164709.772500", "164711.272500", "164712.772500", "164714.272500", "164715.772500", "164717.272500", "164718.772500", "164720.272500", "164721.772500", "164723.272500", "164724.772500", "164726.272500", "164727.772500", "164729.272500", "164730.772500", "164732.272500", "164733.772500", "164735.272500", "164736.772500", "164738.272500", "164739.772500", "164741.272500", "164742.772500", "164744.272500", "164745.772500", "164747.272500", "164748.772500", "164750.272500", "164751.772500", "164753.272500", "164754.772500", "164756.272500", "164757.772500", "164759.272500", "164800.772500", "164802.272500", "164803.772500", "164805.272500", "164806.772500", "164808.272500", "164809.772500", "164811.272500", "164812.772500", "164814.272500", "164815.772500", "164817.272500", "164818.772500", "164820.272500", "164821.772500", "164823.272500", "164824.772500", "164826.272500", "164827.772500", "164829.272500", "164830.772500", "164832.272500", "164833.772500", "164835.272500", "164836.772500", "164838.272500", "164839.772500", "164841.272500", "164842.772500", "164844.272500", "164845.772500", "164847.272500", "164848.772500", "164850.272500", "164851.772500", "164853.272500", "164854.772500", "164856.272500", "164857.772500", "164859.272500", "164900.772500", "164902.272500", "164903.772500", "164905.272500", "164906.772500", "164908.272500", "164909.772500", "164911.272500", "164912.772500", "164914.272500", "164915.772500", "164917.272500", "164918.772500", "164920.272500", "164921.772500", "164923.272500", "164924.772500", "164926.272500", "164927.772500", "164929.272500", "164930.772500", "164932.272500", "164933.772500", "164935.272500", "164936.772500", "164938.272500", "164939.772500", "164941.272500", "164942.772500", "164944.272500", "164945.772500", "164947.272500", "164948.772500", "164950.272500", "164951.772500", "164953.272500", "164954.772500", "164956.272500", "164957.772500", "164959.272500", "165000.772500", "165002.272500", "165003.772500", "165005.272500", "165006.772500", "165008.272500", "165009.772500", "165011.272500", "165012.772500", "165014.272500", "165015.772500", "165017.272500", "165018.772500", "165020.272500", "165021.772500", "165023.272500", "165024.772500", "165026.272500", "165027.772500", "165029.272500", "165030.772500", "165032.272500", "165033.772500", "165035.272500", "165036.772500", "165038.272500", "165039.772500", "165041.272500", "165042.772500", "165044.272500", "165045.772500", "165047.272500", "165048.772500", "165050.272500", "165051.772500", "165053.272500", "165054.772500", "165056.272500", "165057.772500", "165059.272500", "165100.772500", "165102.272500", "165103.772500", "165105.272500", "165106.772500", "165108.272500", "165109.772500", "165111.272500", "165112.772500", "165114.272500", "165115.772500", "165117.272500", "165118.772500", "165120.272500", "165121.772500", "165123.272500", "165124.772500", "165126.272500", "165127.772500", "165129.272500", "165130.772500", "165132.272500", "165133.772500", "165135.272500", "165136.772500", "165138.272500", "165139.772500", "165141.272500", "165142.772500", "165144.272500", "165145.772500", "165147.272500", "165148.772500", "165150.272500", "165151.772500", "165153.272500", "165154.772500", "165156.272500", "165157.772500", "165159.272500", "165200.772500", "165202.272500", "165203.772500", "165205.272500", "165206.772500", "165208.272500", "165209.772500", "165211.272500", "165212.772500", "165214.272500", "165215.772500", "165217.272500", "165218.772500", "165220.272500", "165221.772500", "165223.272500", "165224.772500", "165226.272500", "165227.772500", "165229.272500", "165230.772500", "165232.272500", "165233.772500", "165235.272500", "165236.772500", "165238.272500", "165239.772500", "165241.272500", "165242.772500", "165244.272500", "165245.772500", "165247.272500", "165248.772500", "165250.272500", "165251.772500", "165253.272500", "165254.772500", "165256.272500", "165257.772500", "165259.272500", "165300.772500", "165302.272500", "165303.772500", "165305.272500", "165306.772500", "165308.272500", "165309.772500", "165311.272500", "165312.772500", "165314.272500", "165315.772500", "165317.272500", "165318.772500", "165320.272500", "165321.772500", "165323.272500", "165324.772500", "165326.272500", "165327.772500", "165329.272500", "165330.772500", "165332.272500", "165333.772500", "165335.272500", "165336.772500", "165338.272500", "165339.772500", "165341.272500", "165342.772500", "165344.272500", "165345.772500", "165347.272500", "165348.772500", "165350.272500", "165351.772500", "165353.272500", "165354.772500", "165356.272500", "165357.772500", "165359.272500", "165400.772500", "165402.272500", "165403.772500", "165405.272500", "165406.772500", "165408.272500", "165409.772500", "165411.272500", "165412.772500", "165414.272500", "165415.772500", "165417.272500", "165418.772500", "165420.272500", "165421.772500", "165423.272500", "165424.772500", "165426.272500", "165427.772500", "165429.272500", "165430.772500", "165432.272500", "165433.772500", "165435.272500", "165436.772500", "165438.272500", "165439.772500", "165441.272500", "165442.772500", "165444.272500", "165445.772500", "165447.272500", "165448.772500", "165450.272500", "165451.772500", "165453.272500", "165454.772500", "165456.272500", "165457.772500", "165459.272500", "165500.772500", "165502.272500", "165503.772500", "165505.272500", "165506.772500", "165508.272500", "165509.772500", "165511.272500", "165512.772500", "165514.272500", "165515.772500", "165517.272500", "165518.772500", "165520.272500", "165521.772500", "165523.272500", "165524.772500", "165526.272500", "165527.772500"