{
  "AcquisitionMatrixPE": 106,
  "AcquisitionNumber": 1,
  "AcquisitionTime": "12:26:10.562500",
  "BandwidthPerPixelPhaseEncode": 16.846,
  "BaseResolution": 106,
  "BodyPartExamined": "BRAIN",
  "CoilCombinationMethod": "Sum of Squares",
  "ConsistencyInfo": "N4_VE11C_LATEST_20160120",
  "ConversionSoftware": "dcm2niix",
  "ConversionSoftwareVersion": "v1.0.20220720",
  "DerivedVendorReportedEchoSpacing": 0.000560012,
  "DeviceSerialNumber": "166108",
  "DwellTime": 1.8e-06,
  "EchoTime": 0.0352,
  "EchoTrainLength": 106,
  "EffectiveEchoSpacing": 0.000560012,
  "FlipAngle": 60,
  "HeudiconvVersion": "1.3.0",
  "ImageComments": "Unaliased MB4/PE3/LB",
  "ImageOrientationPatientDICOM": [1, 0, 0, 0, 1, 0],
  "ImageOrientationText": "Tra",
  "ImageType": [
    "ORIGINAL",
    "PRIMARY",
    "M",
    "MB",
    "ND",
    "MOSAIC"
],
  "ImagingFrequency": 123.244,
  "InPlanePhaseEncodingDirectionDICOM": "COL",
  "InstitutionAddress": "Bedford Way 26,London,London,GB,WC1H 0AP",
  "InstitutionName": "University College",
  "InstitutionalDepartmentName": "Department",
  "MRAcquisitionType": "2D",
  "MagneticFieldStrength": 3,
  "Manufacturer": "Siemens",
  "ManufacturersModelName": "Prisma",
  "MatrixCoilMode": "SENSE",
  "Modality": "MR",
  "MultibandAccelerationFactor": 4,
  "NonlinearGradientCorrection": false,
  "PartialFourier": 1,
  "PatientPosition": "HFS",
  "PercentPhaseFOV": 100,
  "PercentSampling": 100,
  "PhaseEncodingDirection": "j-",
  "PhaseEncodingSteps": 106,
  "PhaseResolution": 1,
  "PixelBandwidth": 2620,
  "ProcedureStepDescription": "Egor^MovieProject2",
  "ProtocolName": "task-backtothefuture_run-2",
  "PulseSequenceDetails": "%CustomerSeq%\\cmrr_mbep2d_bold",
  "ReceiveCoilActiveElements": "HEA;HEP",
  "ReceiveCoilName": "Head_32",
  "ReconMatrixPE": 106,
  "RepetitionTime": 1.5,
  "SAR": 0.0788204,
  "ScanOptions": "FS\\EXT",
  "ScanningSequence": "EP",
  "SequenceName": "epfid2d1_106",
  "SequenceVariant": "SK\\SS",
  "SeriesDescription": "task-backtothefuture_run-2",
  "SeriesNumber": 12,
  "ShimSetting": [-1501, 602, 7470, 365, 17, 202, 217, -39],
  "SliceThickness": 2,
  "SliceTiming": [0, 1.07, 0.66, 0.2475, 1.3175, 0.905, 0.495, 0.0825, 1.1525, 0.74, 0.33, 1.4, 0.9875, 0.5775, 0.165, 1.235, 0.8225, 0.4125, 0, 1.07, 0.66, 0.2475, 1.3175, 0.905, 0.495, 0.0825, 1.1525, 0.74, 0.33, 1.4, 0.9875, 0.5775, 0.165, 1.235, 0.8225, 0.4125, 0, 1.07, 0.66, 0.2475, 1.3175, 0.905, 0.495, 0.0825, 1.1525, 0.74, 0.33, 1.4, 0.9875, 0.5775, 0.165, 1.235, 0.8225, 0.4125, 0, 1.07, 0.66, 0.2475, 1.3175, 0.905, 0.495, 0.0825, 1.1525, 0.74, 0.33, 1.4, 0.9875, 0.5775, 0.165, 1.235, 0.8225, 0.4125],
  "SoftwareVersions": "syngo MR E11",
  "SpacingBetweenSlices": 2,
  "StationName": "AWP166108",
  "TaskName": "backtothefuture",
  "TotalReadoutTime": 0.0588013,
  "TxRefAmp": 231.322,
  "WipMemBlock": "79381803-a87c-4334-b580-fbab7fb88ab2||Sequence: R016 ve11c/master r/e634e98; Dec 19 2017 11:00:25 by eja",
  "dcmmeta_affine": [
    [-2.0, 0.0, 0.0, 106.0],
    [0.0, 2.0, 0.0, -86.53012084960938],
    [0.0, 0.0, 2.0, -42.68674850463867],
    [0.0, 0.0, 0.0, 1.0]
],
  "dcmmeta_reorient_transform": [
    [0.0, -1.0, 0.0, 105.0],
    [1.0, 0.0, 0.0, 0.0],
    [0.0, 0.0, 1.0, 0.0],
    [0.0, 0.0, 0.0, 1.0]
],
  "dcmmeta_shape": [106, 106, 72, 1522],
  "dcmmeta_slice_dim": 2,
  "dcmmeta_version": 0.6,
  "global": {
    "const": {
      "AcquisitionMatrix": [106, 0, 0, 106],
      "AngioFlag": "N",
      "BitsAllocated": 16,
      "BitsStored": 16,
      "BodyPartExamined": "BRAIN",
      "CardiacNumberOfImages": 1,
      "Columns": 954,
      "EchoNumbers": 1,
      "EchoTime": 35.2,
      "EchoTrainLength": 106,
      "FlipAngle": 60.0,
      "HighBit": 15,
      "ImageOrientationPatient": [1.0, 0.0, 0.0, 0.0, 1.0, 0.0],
      "ImagePositionPatient": [-954.0, -971.46987915039, -42.686748504639],
      "ImageType": [
        "ORIGINAL",
        "PRIMARY",
        "M",
        "MB",
        "ND",
        "MOSAIC"
],
      "ImagedNucleus": "1H",
      "ImagingFrequency": 123.243634,
      "InPlanePhaseEncodingDirection": "COL",
      "MRAcquisitionType": "2D",
      "MagneticFieldStrength": 3.0,
      "Manufacturer": "SIEMENS",
      "ManufacturerModelName": "Prisma",
      "Modality": "MR",
      "NominalInterval": 0,
      "NumberOfAverages": 1.0,
      "NumberOfPhaseEncodingSteps": 106,
      "PercentPhaseFieldOfView": 100.0,
      "PercentSampling": 100.0,
      "PerformedProcedureStepStartTime": "103525.421000",
      "PhotometricInterpretation": "MONOCHROME2",
      "PixelBandwidth": 2620.0,
      "PixelRepresentation": 0,
      "PixelSpacing": [2.0, 2.0],
      "ProtocolName": "task-backtothefuture_run-2",
      "RepetitionTime": 1500.0,
      "Rows": 954,
      "SAR": 0.07882040730022,
      "SamplesPerPixel": 1,
      "ScanOptions": [
        "FS",
        "EXT"
],
      "ScanningSequence": "EP",
      "SequenceName": "epfid2d1_106",
      "SequenceVariant": [
        "SK",
        "SS"
],
      "SeriesDescription": "task-backtothefuture_run-2",
      "SeriesNumber": 12,
      "SeriesTime": "122709.608000",
      "SliceLocation": -42.686748504639,
      "SliceThickness": 2.0,
      "SmallestImagePixelValue": 0,
      "SoftwareVersions": "syngo MR E11",
      "SpacingBetweenSlices": 2.0000000537281,
      "SpecificCharacterSet": "ISO_IR 100",
      "StudyID": "1",
      "StudyTime": "103525.358000",
      "TransmitCoilName": "Body",
      "VariableFlipAngleFlag": "N",
      "WindowCenterWidthExplanation": "Algo1",
      "dBdt": 0.0},
    "slices": {}
  },
  "time": {
    "samples": {
      "AcquisitionNumber": [1, 2, 3, 4, 5, 6, 7, 8, 9, 10, 11, 12, 13, 14, 15, 16, 17, 18, 19, 20, 21, 22, 23, 24, 25, 26, 27, 28, 29, 30, 31, 32, 33, 34, 35, 36, 37, 38, 39, 40, 41, 42, 43, 44, 45, 46, 47, 48, 49, 50, 51, 52, 53, 54, 55, 56, 57, 58, 59, 60, 61, 62, 63, 64, 65, 66, 67, 68, 69, 70, 71, 72, 73, 74, 75, 76, 77, 78, 79, 80, 81, 82, 83, 84, 85, 86, 87, 88, 89, 90, 91, 92, 93, 94, 95, 96, 97, 98, 99, 100, 101, 102, 103, 104, 105, 106, 107, 108, 109, 110, 111, 112, 113, 114, 115, 116, 117, 118, 119, 120, 121, 122, 123, 124, 125, 126, 127, 128, 129, 130, 131, 132, 133, 134, 135, 136, 137, 138, 139, 140, 141, 142, 143, 144, 145, 146, 147, 148, 149, 150, 151, 152, 153, 154, 155, 156, 157, 158, 159, 160, 161, 162, 163, 164, 165, 166, 167, 168, 169, 170, 171, 172, 173, 174, 175, 176, 177, 178, 179, 180, 181, 182, 183, 184, 185, 186, 187, 188, 189, 190, 191, 192, 193, 194, 195, 196, 197, 198, 199, 200, 201, 202, 203, 204, 205, 206, 207, 208, 209, 210, 211, 212, 213, 214, 215, 216, 217, 218, 219, 220, 221, 222, 223, 224, 225, 226, 227, 228, 229, 230, 231, 232, 233, 234, 235, 236, 237, 238, 239, 240, 241, 242, 243, 244, 245, 246, 247, 248, 249, 250, 251, 252, 253, 254, 255, 256, 257, 258, 259, 260, 261, 262, 263, 264, 265, 266, 267, 268, 269, 270, 271, 272, 273, 274, 275, 276, 277, 278, 279, 280, 281, 282, 283, 284, 285, 286, 287, 288, 289, 290, 291, 292, 293, 294, 295, 296, 297, 298, 299, 300, 301, 302, 303, 304, 305, 306, 307, 308, 309, 310, 311, 312, 313, 314, 315, 316, 317, 318, 319, 320, 321, 322, 323, 324, 325, 326, 327, 328, 329, 330, 331, 332, 333, 334, 335, 336, 337, 338, 339, 340, 341, 342, 343, 344, 345, 346, 347, 348, 349, 350, 351, 352, 353, 354, 355, 356, 357, 358, 359, 360, 361, 362, 363, 364, 365, 366, 367, 368, 369, 370, 371, 372, 373, 374, 375, 376, 377, 378, 379, 380, 381, 382, 383, 384, 385, 386, 387, 388, 389, 390, 391, 392, 393, 394, 395, 396, 397, 398, 399, 400, 401, 402, 403, 404, 405, 406, 407, 408, 409, 410, 411, 412, 413, 414, 415, 416, 417, 418, 419, 420, 421, 422, 423, 424, 425, 426, 427, 428, 429, 430, 431, 432, 433, 434, 435, 436, 437, 438, 439, 440, 441, 442, 443, 444, 445, 446, 447, 448, 449, 450, 451, 452, 453, 454, 455, 456, 457, 458, 459, 460, 461, 462, 463, 464, 465, 466, 467, 468, 469, 470, 471, 472, 473, 474, 475, 476, 477, 478, 479, 480, 481, 482, 483, 484, 485, 486, 487, 488, 489, 490, 491, 492, 493, 494, 495, 496, 497, 498, 499, 500, 501, 502, 503, 504, 505, 506, 507, 508, 509, 510, 511, 512, 513, 514, 515, 516, 517, 518, 519, 520, 521, 522, 523, 524, 525, 526, 527, 528, 529, 530, 531, 532, 533, 534, 535, 536, 537, 538, 539, 540, 541, 542, 543, 544, 545, 546, 547, 548, 549, 550, 551, 552, 553, 554, 555, 556, 557, 558, 559, 560, 561, 562, 563, 564, 565, 566, 567, 568, 569, 570, 571, 572, 573, 574, 575, 576, 577, 578, 579, 580, 581, 582, 583, 584, 585, 586, 587, 588, 589, 590, 591, 592, 593, 594, 595, 596, 597, 598, 599, 600, 601, 602, 603, 604, 605, 606, 607, 608, 609, 610, 611, 612, 613, 614, 615, 616, 617, 618, 619, 620, 621, 622, 623, 624, 625, 626, 627, 628, 629, 630, 631, 632, 633, 634, 635, 636, 637, 638, 639, 640, 641, 642, 643, 644, 645, 646, 647, 648, 649, 650, 651, 652, 653, 654, 655, 656, 657, 658, 659, 660, 661, 662, 663, 664, 665, 666, 667, 668, 669, 670, 671, 672, 673, 674, 675, 676, 677, 678, 679, 680, 681, 682, 683, 684, 685, 686, 687, 688, 689, 690, 691, 692, 693, 694, 695, 696, 697, 698, 699, 700, 701, 702, 703, 704, 705, 706, 707, 708, 709, 710, 711, 712, 713, 714, 715, 716, 717, 718, 719, 720, 721, 722, 723, 724, 725, 726, 727, 728, 729, 730, 731, 732, 733, 734, 735, 736, 737, 738, 739, 740, 741, 742, 743, 744, 745, 746, 747, 748, 749, 750, 751, 752, 753, 754, 755, 756, 757, 758, 759, 760, 761, 762, 763, 764, 765, 766, 767, 768, 769, 770, 771, 772, 773, 774, 775, 776, 777, 778, 779, 780, 781, 782, 783, 784, 785, 786, 787, 788, 789, 790, 791, 792, 793, 794, 795, 796, 797, 798, 799, 800, 801, 802, 803, 804, 805, 806, 807, 808, 809, 810, 811, 812, 813, 814, 815, 816, 817, 818, 819, 820, 821, 822, 823, 824, 825, 826, 827, 828, 829, 830, 831, 832, 833, 834, 835, 836, 837, 838, 839, 840, 841, 842, 843, 844, 845, 846, 847, 848, 849, 850, 851, 852, 853, 854, 855, 856, 857, 858, 859, 860, 861, 862, 863, 864, 865, 866, 867, 868, 869, 870, 871, 872, 873, 874, 875, 876, 877, 878, 879, 880, 881, 882, 883, 884, 885, 886, 887, 888, 889, 890, 891, 892, 893, 894, 895, 896, 897, 898, 899, 900, 901, 902, 903, 904, 905, 906, 907, 908, 909, 910, 911, 912, 913, 914, 915, 916, 917, 918, 919, 920, 921, 922, 923, 924, 925, 926, 927, 928, 929, 930, 931, 932, 933, 934, 935, 936, 937, 938, 939, 940, 941, 942, 943, 944, 945, 946, 947, 948, 949, 950, 951, 952, 953, 954, 955, 956, 957, 958, 959, 960, 961, 962, 963, 964, 965, 966, 967, 968, 969, 970, 971, 972, 973, 974, 975, 976, 977, 978, 979, 980, 981, 982, 983, 984, 985, 986, 987, 988, 989, 990, 991, 992, 993, 994, 995, 996, 997, 998, 999, 1000, 1001, 1002, 1003, 1004, 1005, 1006, 1007, 1008, 1009, 1010, 1011, 1012, 1013, 1014, 1015, 1016, 1017, 1018, 1019, 1020, 1021, 1022, 1023, 1024, 1025, 1026, 1027, 1028, 1029, 1030, 1031, 1032, 1033, 1034, 1035, 1036, 1037, 1038, 1039, 1040, 1041, 1042, 1043, 1044, 1045, 1046, 1047, 1048, 1049, 1050, 1051, 1052, 1053, 1054, 1055, 1056, 1057, 1058, 1059, 1060, 1061, 1062, 1063, 1064, 1065, 1066, 1067, 1068, 1069, 1070, 1071, 1072, 1073, 1074, 1075, 1076, 1077, 1078, 1079, 1080, 1081, 1082, 1083, 1084, 1085, 1086, 1087, 1088, 1089, 1090, 1091, 1092, 1093, 1094, 1095, 1096, 1097, 1098, 1099, 1100, 1101, 1102, 1103, 1104, 1105, 1106, 1107, 1108, 1109, 1110, 1111, 1112, 1113, 1114, 1115, 1116, 1117, 1118, 1119, 1120, 1121, 1122, 1123, 1124, 1125, 1126, 1127, 1128, 1129, 1130, 1131, 1132, 1133, 1134, 1135, 1136, 1137, 1138, 1139, 1140, 1141, 1142, 1143, 1144, 1145, 1146, 1147, 1148, 1149, 1150, 1151, 1152, 1153, 1154, 1155, 1156, 1157, 1158, 1159, 1160, 1161, 1162, 1163, 1164, 1165, 1166, 1167, 1168, 1169, 1170, 1171, 1172, 1173, 1174, 1175, 1176, 1177, 1178, 1179, 1180, 1181, 1182, 1183, 1184, 1185, 1186, 1187, 1188, 1189, 1190, 1191, 1192, 1193, 1194, 1195, 1196, 1197, 1198, 1199, 1200, 1201, 1202, 1203, 1204, 1205, 1206, 1207, 1208, 1209, 1210, 1211, 1212, 1213, 1214, 1215, 1216, 1217, 1218, 1219, 1220, 1221, 1222, 1223, 1224, 1225, 1226, 1227, 1228, 1229, 1230, 1231, 1232, 1233, 1234, 1235, 1236, 1237, 1238, 1239, 1240, 1241, 1242, 1243, 1244, 1245, 1246, 1247, 1248, 1249, 1250, 1251, 1252, 1253, 1254, 1255, 1256, 1257, 1258, 1259, 1260, 1261, 1262, 1263, 1264, 1265, 1266, 1267, 1268, 1269, 1270, 1271, 1272, 1273, 1274, 1275, 1276, 1277, 1278, 1279, 1280, 1281, 1282, 1283, 1284, 1285, 1286, 1287, 1288, 1289, 1290, 1291, 1292, 1293, 1294, 1295, 1296, 1297, 1298, 1299, 1300, 1301, 1302, 1303, 1304, 1305, 1306, 1307, 1308, 1309, 1310, 1311, 1312, 1313, 1314, 1315, 1316, 1317, 1318, 1319, 1320, 1321, 1322, 1323, 1324, 1325, 1326, 1327, 1328, 1329, 1330, 1331, 1332, 1333, 1334, 1335, 1336, 1337, 1338, 1339, 1340, 1341, 1342, 1343, 1344, 1345, 1346, 1347, 1348, 1349, 1350, 1351, 1352, 1353, 1354, 1355, 1356, 1357, 1358, 1359, 1360, 1361, 1362, 1363, 1364, 1365, 1366, 1367, 1368, 1369, 1370, 1371, 1372, 1373, 1374, 1375, 1376, 1377, 1378, 1379, 1380, 1381, 1382, 1383, 1384, 1385, 1386, 1387, 1388, 1389, 1390, 1391, 1392, 1393, 1394, 1395, 1396, 1397, 1398, 1399, 1400, 1401, 1402, 1403, 1404, 1405, 1406, 1407, 1408, 1409, 1410, 1411, 1412, 1413, 1414, 1415, 1416, 1417, 1418, 1419, 1420, 1421, 1422, 1423, 1424, 1425, 1426, 1427, 1428, 1429, 1430, 1431, 1432, 1433, 1434, 1435, 1436, 1437, 1438, 1439, 1440, 1441, 1442, 1443, 1444, 1445, 1446, 1447, 1448, 1449, 1450, 1451, 1452, 1453, 1454, 1455, 1456, 1457, 1458, 1459, 1460, 1461, 1462, 1463, 1464, 1465, 1466, 1467, 1468, 1469, 1470, 1471, 1472, 1473, 1474, 1475, 1476, 1477, 1478, 1479, 1480, 1481, 1482, 1483, 1484, 1485, 1486, 1487, 1488, 1489, 1490, 1491, 1492, 1493, 1494, 1495, 1496, 1497, 1498, 1499, 1500, 1501, 1502, 1503, 1504, 1505, 1506, 1507, 1508, 1509, 1510, 1511, 1512, 1513, 1514, 1515, 1516, 1517, 1518, 1519, 1520, 1521, 1522],
      "AcquisitionTime": ["122610.562500", "122612.062500", "122613.562500", "122615.062500", "122616.562500", "122618.062500", "122619.562500", "122621.062500", "122622.562500", "122624.062500", "122625.562500", "122627.062500", "122628.562500", "122630.062500", "122631.562500", "122633.062500", "122634.562500", "122636.062500", "122637.562500", "122639.062500", "122640.562500", "122642.062500", "122643.562500", "122645.062500", "122646.562500", "122648.062500", "122649.562500", "122651.062500", "122652.562500", "122654.062500", "122655.562500", "122657.062500", "122658.562500", "122700.062500", "122701.562500", "122703.062500", "122704.562500", "122706.062500", "122707.562500", "122709.062500", "122710.562500", "122712.062500", "122713.562500", "122715.062500", "122716.562500", "122718.062500", "122719.562500", "122721.062500", "122722.562500", "122724.062500", "122725.562500", "122727.062500", "122728.562500", "122730.062500", "122731.562500", "122733.062500", "122734.562500", "122736.062500", "122737.562500", "122739.062500", "122740.562500", "122742.062500", "122743.562500", "122745.062500", "122746.562500", "122748.062500", "122749.562500", "122751.062500", "122752.562500", "122754.062500", "122755.562500", "122757.062500", "122758.562500", "122800.062500", "122801.562500", "122803.062500", "122804.562500", "122806.062500", "122807.562500", "122809.062500", "122810.562500", "122812.062500", "122813.562500", "122815.062500", "122816.562500", "122818.062500", "122819.562500", "122821.062500", "122822.562500", "122824.062500", "122825.562500", "122827.062500", "122828.562500", "122830.062500", "122831.562500", "122833.062500", "122834.562500", "122836.062500", "122837.562500", "122839.062500", "122840.562500", "122842.062500", "122843.562500", "122845.062500", "122846.562500", "122848.062500", "122849.562500", "122851.062500", "122852.562500", "122854.062500", "122855.562500", "122857.062500", "122858.562500", "122900.062500", "122901.562500", "122903.062500", "122904.562500", "122906.062500", "122907.562500", "122909.062500", "122910.562500", "122912.062500", "122913.562500", "122915.062500", "122916.562500", "122918.062500", "122919.562500", "122921.062500", "122922.562500", "122924.062500", "122925.562500", "122927.062500", "122928.562500", "122930.062500", "122931.562500", "122933.062500", "122934.562500", "122936.062500", "122937.562500", "122939.062500", "122940.562500", "122942.062500", "122943.562500", "122945.062500", "122946.562500", "122948.062500", "122949.562500", "122951.062500", "122952.562500", "122954.062500", "122955.562500", "122957.062500", "122958.562500", "123000.062500", "123001.562500", "123003.062500", "123004.562500", "123006.062500", "123007.562500", "123009.062500", "123010.562500", "123012.062500", "123013.562500", "123015.062500", "123016.562500", "123018.062500", "123019.562500", "123021.062500", "123022.562500", "123024.062500", "123025.562500", "123027.062500", "123028.562500", "123030.062500", "123031.562500", "123033.062500", "123034.562500", "123036.062500", "123037.562500", "123039.062500", "123040.562500", "123042.062500", "123043.562500", "123045.062500", "123046.562500", "123048.062500", "123049.562500", "123051.062500", "123052.562500", "123054.062500", "123055.562500", "123057.062500", "123058.562500", "123100.062500", "123101.562500", "123103.062500", "123104.562500", "123106.062500", "123107.562500", "123109.062500", "123110.562500", "123112.062500", "123113.562500", "123115.062500", "123116.562500", "123118.062500", "123119.562500", "123121.062500", "123122.562500", "123124.062500", "123125.562500", "123127.062500", "123128.562500", "123130.062500", "123131.562500", "123133.062500", "123134.562500", "123136.062500", "123137.562500", "123139.062500", "123140.562500", "123142.062500", "123143.562500", "123145.062500", "123146.562500", "123148.062500", "123149.562500", "123151.062500", "123152.562500", "123154.062500", "123155.562500", "123157.062500", "123158.562500", "123200.062500", "123201.562500", "123203.062500", "123204.562500", "123206.062500", "123207.562500", "123209.062500", "123210.562500", "123212.062500", "123213.562500", "123215.062500", "123216.562500", "123218.062500", "123219.562500", "123221.062500", "123222.562500", "123224.062500", "123225.562500", "123227.062500", "123228.562500", "123230.062500", "123231.562500", "123233.062500", "123234.562500", "123236.062500", "123237.562500", "123239.062500", "123240.562500", "123242.062500", "123243.562500", "123245.062500", "123246.562500", "123248.062500", "123249.562500", "123251.062500", "123252.562500", "123254.062500", "123255.562500", "123257.062500", "123258.562500", "123300.062500", "123301.562500", "123303.062500", "123304.562500", "123306.062500", "123307.562500", "123309.062500", "123310.562500", "123312.062500", "123313.562500", "123315.062500", "123316.562500", "123318.062500", "123319.562500", "123321.062500", "123322.562500", "123324.062500", "123325.562500", "123327.062500", "123328.562500", "123330.062500", "123331.562500", "123333.062500", "123334.562500", "123336.062500", "123337.562500", "123339.062500", "123340.562500", "123342.062500", "123343.562500", "123345.062500", "123346.562500", "123348.062500", "123349.562500", "123351.062500", "123352.562500", "123354.062500", "123355.562500", "123357.062500", "123358.562500", "123400.062500", "123401.562500", "123403.062500", "123404.562500", "123406.062500", "123407.562500", "123409.062500", "123410.562500", "123412.062500", "123413.562500", "123415.062500", "123416.562500", "123418.062500", "123419.562500", "123421.062500", "123422.562500", "123424.062500", "123425.562500", "123427.062500", "123428.562500", "123430.062500", "123431.562500", "123433.062500", "123434.562500", "123436.062500", "123437.562500", "123439.062500", "123440.562500", "123442.062500", "123443.562500", "123445.062500", "123446.562500", "123448.062500", "123449.562500", "123451.062500", "123452.562500", "123454.062500", "123455.562500", "123457.062500", "123458.562500", "123500.062500", "123501.562500", "123503.062500", "123504.562500", "123506.062500", "123507.562500", "123509.062500", "123510.562500", "123512.062500", "123513.562500", "123515.062500", "123516.562500", "123518.062500", "123519.562500", "123521.062500", "123522.562500", "123524.062500", "123525.562500", "123527.062500", "123528.562500", "123530.062500", "123531.562500", "123533.062500", "123534.562500", "123536.062500", "123537.562500", "123539.062500", "123540.562500", "123542.062500", "123543.562500", "123545.062500", "123546.562500", "123548.062500", "123549.562500", "123551.062500", "123552.562500", "123554.062500", "123555.562500", "123557.062500", "123558.562500", "123600.062500", "123601.562500", "123603.062500", "123604.562500", "123606.062500", "123607.562500", "123609.062500", "123610.562500", "123612.062500", "123613.562500", "123615.062500", "123616.562500", "123618.062500", "123619.562500", "123621.062500", "123622.562500", "123624.062500", "123625.562500", "123627.062500", "123628.562500", "123630.062500", "123631.562500", "123633.062500", "123634.562500", "123636.062500", "123637.562500", "123639.062500", "123640.562500", "123642.062500", "123643.562500", "123645.062500", "123646.562500", "123648.062500", "123649.562500", "123651.062500", "123652.562500", "123654.062500", "123655.562500", "123657.062500", "123658.562500", "123700.062500", "123701.562500", "123703.062500", "123704.562500", "123706.062500", "123707.562500", "123709.062500", "123710.562500", "123712.062500", "123713.562500", "123715.062500", "123716.562500", "123718.062500", "123719.562500", "123721.062500", "123722.562500", "123724.062500", "123725.562500", "123727.062500", "123728.562500", "123730.062500", "123731.562500", "123733.062500", "123734.562500", "123736.062500", "123737.562500", "123739.062500", "123740.562500", "123742.062500", "123743.562500", "123745.062500", "123746.562500", "123748.062500", "123749.562500", "123751.062500", "123752.562500", "123754.062500", "123755.562500", "123757.062500", "123758.562500", "123800.062500", "123801.562500", "123803.062500", "123804.562500", "123806.062500", "123807.562500", "123809.062500", "123810.562500", "123812.062500", "123813.562500", "123815.062500", "123816.562500", "123818.062500", "123819.562500", "123821.062500", "123822.562500", "123824.062500", "123825.562500", "123827.062500", "123828.562500", "123830.062500", "123831.562500", "123833.062500", "123834.562500", "123836.062500", "123837.562500", "123839.062500", "123840.562500", "123842.062500", "123843.562500", "123845.062500", "123846.562500", "123848.062500", "123849.562500", "123851.062500", "123852.562500", "123854.062500", "123855.562500", "123857.062500", "123858.562500", "123900.062500", "123901.562500", "123903.062500", "123904.562500", "123906.062500", "123907.562500", "123909.062500", "123910.562500", "123912.062500", "123913.562500", "123915.062500", "123916.562500", "123918.062500", "123919.562500", "123921.062500", "123922.562500", "123924.062500", "123925.562500", "123927.062500", "123928.562500", "123930.062500", "123931.562500", "123933.062500", "123934.562500", "123936.062500", "123937.562500", "123939.062500", "123940.562500", "123942.062500", "123943.562500", "123945.062500", "123946.562500", "123948.062500", "123949.562500", "123951.062500", "123952.562500", "123954.062500", "123955.562500", "123957.062500", "123958.562500", "124000.062500", "124001.562500", "124003.062500", "124004.562500", "124006.062500", "124007.562500", "124009.062500", "124010.562500", "124012.062500", "124013.562500", "124015.062500", "124016.562500", "124018.062500", "124019.562500", "124021.062500", "124022.562500", "124024.062500", "124025.562500", "124027.062500", "124028.562500", "124030.062500", "124031.562500", "124033.062500", "124034.562500", "124036.062500", "124037.562500", "124039.062500", "124040.562500", "124042.062500", "124043.562500", "124045.062500", "124046.562500", "124048.062500", "124049.562500", "124051.062500", "124052.562500", "124054.062500", "124055.562500", "124057.062500", "124058.562500", "124100.062500", "124101.562500", "124103.062500", "124104.562500", "124106.062500", "124107.562500", "124109.062500", "124110.562500", "124112.062500", "124113.562500", "124115.062500", "124116.562500", "124118.062500", "124119.562500", "124121.062500", "124122.562500", "124124.062500", "124125.562500", "124127.062500", "124128.562500", "124130.062500", "124131.562500", "124133.062500", "124134.562500", "124136.062500", "124137.562500", "124139.062500", "124140.562500", "124142.062500", "124143.562500", "124145.062500", "124146.562500", "124148.062500", "124149.562500", "124151.062500", "124152.562500", "124154.062500", "124155.562500", "124157.062500", "124158.562500", "124200.062500", "124201.562500", "124203.062500", "124204.562500", "124206.062500", "124207.562500", "124209.062500", "124210.562500", "124212.062500", "124213.562500", "124215.062500", "124216.562500", "124218.062500", "124219.562500", "124221.062500", "124222.562500", "124224.062500", "124225.562500", "124227.062500", "124228.562500", "124230.062500", "124231.562500", "124233.062500", "124234.562500", "124236.062500", "124237.562500", "124239.062500", "124240.562500", "124242.062500", "124243.562500", "124245.062500", "124246.562500", "124248.062500", "124249.562500", "124251.062500", "124252.562500", "124254.062500", "124255.562500", "124257.062500", "124258.562500", "124300.062500", "124301.562500", "124303.062500", "124304.562500", "124306.062500", "124307.562500", "124309.062500", "124310.562500", "124312.062500", "124313.562500", "124315.062500", "124316.562500", "124318.062500", "124319.562500", "124321.062500", "124322.562500", "124324.062500", "124325.562500", "124327.062500", "124328.562500", "124330.062500", "124331.562500", "124333.062500", "124334.562500", "124336.062500", "124337.562500", "124339.062500", "124340.562500", "124342.062500", "124343.562500", "124345.062500", "124346.562500", "124348.062500", "124349.562500", "124351.062500", "124352.562500", "124354.062500", "124355.562500", "124357.062500", "124358.562500", "124400.062500", "124401.562500", "124403.062500", "124404.562500", "124406.062500", "124407.562500", "124409.062500", "124410.562500", "124412.062500", "124413.562500", "124415.062500", "124416.562500", "124418.062500", "124419.562500", "124421.062500", "124422.562500", "124424.062500", "124425.562500", "124427.062500", "124428.562500", "124430.062500", "124431.562500", "124433.062500", "124434.562500", "124436.062500", "124437.562500", "124439.062500", "124440.562500", "124442.062500", "124443.562500", "124445.062500", "124446.562500", "124448.062500", "124449.562500", "124451.062500", "124452.562500", "124454.062500", "124455.562500", "124457.062500", "124458.562500", "124500.062500", "124501.562500", "124503.062500", "124504.562500", "124506.062500", "124507.562500", "124509.062500", "124510.562500", "124512.062500", "124513.562500", "124515.062500", "124516.562500", "124518.062500", "124519.562500", "124521.062500", "124522.562500", "124524.062500", "124525.562500", "124527.062500", "124528.562500", "124530.062500", "124531.562500", "124533.062500", "124534.562500", "124536.062500", "124537.562500", "124539.062500", "124540.562500", "124542.062500", "124543.562500", "124545.062500", "124546.562500", "124548.062500", "124549.562500", "124551.062500", "124552.562500", "124554.062500", "124555.562500", "124557.062500", "124558.562500", "124600.062500", "124601.562500", "124603.062500", "124604.562500", "124606.062500", "124607.562500", "124609.062500", "124610.562500", "124612.062500", "124613.562500", "124615.062500", "124616.562500", "124618.062500", "124619.562500", "124621.062500", "124622.562500", "124624.062500", "124625.562500", "124627.062500", "124628.562500", "124630.062500", "124631.562500", "124633.062500", "124634.562500", "124636.062500", "124637.562500", "124639.062500", "124640.562500", "124642.062500", "124643.562500", "124645.062500", "124646.562500", "124648.062500", "124649.562500", "124651.062500", "124652.562500", "124654.062500", "124655.562500", "124657.062500", "124658.562500", "124700.062500", "124701.562500", "124703.062500", "124704.562500", "124706.062500", "124707.562500", "124709.062500", "124710.562500", "124712.062500", "124713.562500", "124715.062500", "124716.562500", "124718.062500", "124719.562500", "124721.062500", "124722.562500", "124724.062500", "124725.562500", "124727.062500", "124728.562500", "124730.062500", "124731.562500", "124733.062500", "124734.562500", "124736.062500", "124737.562500", "124739.062500", "124740.562500", "124742.062500", "124743.562500", "124745.062500", "124746.562500", "124748.062500", "124749.562500", "124751.062500", "124752.562500", "124754.062500", "124755.562500", "124757.062500", "124758.562500", "124800.062500", "124801.562500", "124803.062500", "124804.562500", "124806.062500", "124807.562500", "124809.062500", "124810.562500", "124812.062500", "124813.562500", "124815.062500", "124816.562500", "124818.062500", "124819.562500", "124821.062500", "124822.562500", "124824.062500", "124825.562500", "124827.062500", "124828.562500", "124830.062500", "124831.562500", "124833.062500", "124834.562500", "124836.062500", "124837.562500", "124839.062500", "124840.562500", "124842.062500", "124843.562500", "124845.062500", "124846.562500", "124848.062500", "124849.562500", "124851.062500", "124852.562500", "124854.062500", "124855.562500", "124857.062500", "124858.562500", "124900.062500", "124901.562500", "124903.062500", "124904.562500", "124906.062500", "124907.562500", "124909.062500", "124910.562500", "124912.062500", "124913.562500", "124915.062500", "124916.562500", "124918.062500", "124919.562500", "124921.062500", "124922.562500", "124924.062500", "124925.562500", "124927.062500", "124928.562500", "124930.062500", "124931.562500", "124933.062500", "124934.562500", "124936.062500", "124937.562500", "124939.062500", "124940.562500", "124942.062500", "124943.562500", "124945.062500", "124946.562500", "124948.062500", "124949.562500", "124951.062500", "124952.562500", "124954.062500", "124955.562500", "124957.062500", "124958.562500", "125000.062500", "125001.562500", "125003.062500", "125004.562500", "125006.062500", "125007.562500", "125009.062500", "125010.562500"