{
  "AcquisitionMatrixPE": 106,
  "AcquisitionNumber": 1,
  "AcquisitionTime": "19:24:42.080000",
  "BandwidthPerPixelPhaseEncode": 16.846,
  "BaseResolution": 106,
  "BodyPartExamined": "BRAIN",
  "CoilCombinationMethod": "Sum of Squares",
  "ConsistencyInfo": "N4_VE11C_LATEST_20160120",
  "ConversionSoftware": "dcm2niix",
  "ConversionSoftwareVersion": "v1.0.20220720",
  "DerivedVendorReportedEchoSpacing": 0.000560012,
  "DeviceSerialNumber": "166108",
  "DwellTime": 1.8e-06,
  "EchoTime": 0.0352,
  "EchoTrainLength": 106,
  "EffectiveEchoSpacing": 0.000560012,
  "FlipAngle": 60,
  "HeudiconvVersion": "1.3.0",
  "ImageComments": "Unaliased MB4/PE3/LB",
  "ImageOrientationPatientDICOM": [1, 0, 0, 0, 0.941471, -0.337095],
  "ImageOrientationText": "Tra>Cor(-19.7)",
  "ImageType": [
    "ORIGINAL",
    "PRIMARY",
    "M",
    "MB",
    "ND",
    "MOSAIC"
],
  "ImagingFrequency": 123.244,
  "InPlanePhaseEncodingDirectionDICOM": "COL",
  "InstitutionAddress": "Bedford Way 26,London,London,GB,WC1H 0AP",
  "InstitutionName": "University College",
  "InstitutionalDepartmentName": "Department",
  "MRAcquisitionType": "2D",
  "MagneticFieldStrength": 3,
  "Manufacturer": "Siemens",
  "ManufacturersModelName": "Prisma",
  "MatrixCoilMode": "SENSE",
  "Modality": "MR",
  "MultibandAccelerationFactor": 4,
  "NonlinearGradientCorrection": false,
  "PartialFourier": 1,
  "PatientPosition": "HFS",
  "PercentPhaseFOV": 100,
  "PercentSampling": 100,
  "PhaseEncodingDirection": "j-",
  "PhaseEncodingSteps": 106,
  "PhaseResolution": 1,
  "PixelBandwidth": 2620,
  "ProcedureStepDescription": "Egor^MovieProject2",
  "ProtocolName": "func-bold_task-pRF_run-03",
  "PulseSequenceDetails": "%CustomerSeq%\\cmrr_mbep2d_bold",
  "ReceiveCoilActiveElements": "HEA;HEP",
  "ReceiveCoilName": "Head_32",
  "ReconMatrixPE": 106,
  "RepetitionTime": 1,
  "SAR": 0.0771436,
  "ScanOptions": "FS\\EXT",
  "ScanningSequence": "EP",
  "SequenceName": "epfid2d1_106",
  "SequenceVariant": "SK\\SS",
  "SeriesDescription": "func-bold_task-pRF_run-03",
  "SeriesNumber": 14,
  "ShimSetting": [-1568, 652, 7417, 311, 59, 169, 105, -1],
  "SliceThickness": 2,
  "SliceTiming": [0, 0.4075, 0.815, 0.245, 0.6525, 0.08, 0.49, 0.8975, 0.325, 0.735, 0.1625, 0.57, 0, 0.4075, 0.815, 0.245, 0.6525, 0.08, 0.49, 0.8975, 0.325, 0.735, 0.1625, 0.57, 0, 0.4075, 0.815, 0.245, 0.6525, 0.08, 0.49, 0.8975, 0.325, 0.735, 0.1625, 0.57, 0, 0.4075, 0.815, 0.245, 0.6525, 0.08, 0.49, 0.8975, 0.325, 0.735, 0.1625, 0.57],
  "SoftwareVersions": "syngo MR E11",
  "SpacingBetweenSlices": 2,
  "StationName": "AWP166108",
  "TaskName": "retinotopy",
  "TotalReadoutTime": 0.0588013,
  "TxRefAmp": 244.62,
  "WipMemBlock": "5d26dfa5-519e-4f7a-8391-431a6b8cc772||Sequence: R016 ve11c/master r/e634e98; Dec 19 2017 11:00:25 by eja",
  "dcmmeta_affine": [
    [-2.0, 0.0, 0.0, 106.0],
    [0.0, 1.8829411268234253, -0.6741905808448792, -76.51765441894531],
    [0.0, 0.6741905808448792, 1.8829411268234253, -47.229915618896484],
    [0.0, 0.0, 0.0, 1.0]
],
  "dcmmeta_reorient_transform": [
    [0.0, -1.0, 0.0, 105.0],
    [1.0, 0.0, 0.0, 0.0],
    [0.0, 0.0, 1.0, 0.0],
    [0.0, 0.0, 0.0, 1.0]
],
  "dcmmeta_shape": [106, 106, 48, 356],
  "dcmmeta_slice_dim": 2,
  "dcmmeta_version": 0.6,
  "global": {
    "const": {
      "AcquisitionMatrix": [106, 0, 0, 106],
      "AngioFlag": "N",
      "BitsAllocated": 16,
      "BitsStored": 16,
      "BodyPartExamined": "BRAIN",
      "CardiacNumberOfImages": 1,
      "Columns": 742,
      "EchoNumbers": 1,
      "EchoTime": 35.2,
      "EchoTrainLength": 106,
      "FlipAngle": 60.0,
      "HighBit": 15,
      "ImageOrientationPatient": [1.0, 0.0, 0.0, 0.0, 0.94147053802673, -0.3370952773737],
      "ImagePositionPatient": [-742.0, -719.96642386854, 237.95268825056],
      "ImageType": [
        "ORIGINAL",
        "PRIMARY",
        "M",
        "MB",
        "ND",
        "MOSAIC"
],
      "ImagedNucleus": "1H",
      "ImagingFrequency": 123.243659,
      "InPlanePhaseEncodingDirection": "COL",
      "MRAcquisitionType": "2D",
      "MagneticFieldStrength": 3.0,
      "Manufacturer": "SIEMENS",
      "ManufacturerModelName": "Prisma",
      "Modality": "MR",
      "NominalInterval": 0,
      "NumberOfAverages": 1.0,
      "NumberOfPhaseEncodingSteps": 106,
      "PercentPhaseFieldOfView": 100.0,
      "PercentSampling": 100.0,
      "PerformedProcedureStepStartTime": "182138.729000",
      "PhotometricInterpretation": "MONOCHROME2",
      "PixelBandwidth": 2620.0,
      "PixelRepresentation": 0,
      "PixelSpacing": [2.0, 2.0],
      "ProtocolName": "func-bold_task-pRF_run-03",
      "RepetitionTime": 1000.0,
      "Rows": 742,
      "SAR": 0.07714363590385,
      "SamplesPerPixel": 1,
      "ScanOptions": [
        "FS",
        "EXT"
],
      "ScanningSequence": "EP",
      "SequenceName": "epfid2d1_106",
      "SequenceVariant": [
        "SK",
        "SS"
],
      "SeriesDescription": "func-bold_task-pRF_run-03",
      "SeriesNumber": 14,
      "SeriesTime": "192525.973000",
      "SliceLocation": -18.671835921561,
      "SliceThickness": 2.0,
      "SmallestImagePixelValue": 0,
      "SoftwareVersions": "syngo MR E11",
      "SpacingBetweenSlices": 2.0000000341154,
      "SpecificCharacterSet": "ISO_IR 100",
      "StudyID": "1",
      "StudyTime": "182138.589000",
      "TransmitCoilName": "Body",
      "VariableFlipAngleFlag": "N",
      "WindowCenterWidthExplanation": "Algo1",
      "dBdt": 0.0},
    "slices": {}
  },
  "time": {
    "samples": {
      "AcquisitionNumber": [1, 2, 3, 4, 5, 6, 7, 8, 9, 10, 11, 12, 13, 14, 15, 16, 17, 18, 19, 20, 21, 22, 23, 24, 25, 26, 27, 28, 29, 30, 31, 32, 33, 34, 35, 36, 37, 38, 39, 40, 41, 42, 43, 44, 45, 46, 47, 48, 49, 50, 51, 52, 53, 54, 55, 56, 57, 58, 59, 60, 61, 62, 63, 64, 65, 66, 67, 68, 69, 70, 71, 72, 73, 74, 75, 76, 77, 78, 79, 80, 81, 82, 83, 84, 85, 86, 87, 88, 89, 90, 91, 92, 93, 94, 95, 96, 97, 98, 99, 100, 101, 102, 103, 104, 105, 106, 107, 108, 109, 110, 111, 112, 113, 114, 115, 116, 117, 118, 119, 120, 121, 122, 123, 124, 125, 126, 127, 128, 129, 130, 131, 132, 133, 134, 135, 136, 137, 138, 139, 140, 141, 142, 143, 144, 145, 146, 147, 148, 149, 150, 151, 152, 153, 154, 155, 156, 157, 158, 159, 160, 161, 162, 163, 164, 165, 166, 167, 168, 169, 170, 171, 172, 173, 174, 175, 176, 177, 178, 179, 180, 181, 182, 183, 184, 185, 186, 187, 188, 189, 190, 191, 192, 193, 194, 195, 196, 197, 198, 199, 200, 201, 202, 203, 204, 205, 206, 207, 208, 209, 210, 211, 212, 213, 214, 215, 216, 217, 218, 219, 220, 221, 222, 223, 224, 225, 226, 227, 228, 229, 230, 231, 232, 233, 234, 235, 236, 237, 238, 239, 240, 241, 242, 243, 244, 245, 246, 247, 248, 249, 250, 251, 252, 253, 254, 255, 256, 257, 258, 259, 260, 261, 262, 263, 264, 265, 266, 267, 268, 269, 270, 271, 272, 273, 274, 275, 276, 277, 278, 279, 280, 281, 282, 283, 284, 285, 286, 287, 288, 289, 290, 291, 292, 293, 294, 295, 296, 297, 298, 299, 300, 301, 302, 303, 304, 305, 306, 307, 308, 309, 310, 311, 312, 313, 314, 315, 316, 317, 318, 319, 320, 321, 322, 323, 324, 325, 326, 327, 328, 329, 330, 331, 332, 333, 334, 335, 336, 337, 338, 339, 340, 341, 342, 343, 344, 345, 346, 347, 348, 349, 350, 351, 352, 353, 354, 355, 356],
      "AcquisitionTime": ["192442.080000", "192443.080000", "192444.080000", "192445.080000", "192446.080000", "192447.080000", "192448.080000", "192449.080000", "192450.080000", "192451.080000", "192452.080000", "192453.080000", "192454.080000", "192455.080000", "192456.080000", "192457.080000", "192458.080000", "192459.080000", "192500.080000", "192501.080000", "192502.080000", "192503.080000", "192504.080000", "192505.080000", "192506.080000", "192507.080000", "192508.080000", "192509.080000", "192510.080000", "192511.080000", "192512.080000", "192513.080000", "192514.080000", "192515.080000", "192516.080000", "192517.080000", "192518.080000", "192519.080000", "192520.080000", "192521.080000", "192522.080000", "192523.080000", "192524.080000", "192525.080000", "192526.080000", "192527.080000", "192528.080000", "192529.080000", "192530.080000", "192531.080000", "192532.080000", "192533.080000", "192534.080000", "192535.080000", "192536.080000", "192537.080000", "192538.080000", "192539.080000", "192540.080000", "192541.080000", "192542.080000", "192543.080000", "192544.080000", "192545.080000", "192546.080000", "192547.080000", "192548.080000", "192549.080000", "192550.080000", "192551.080000", "192552.080000", "192553.080000", "192554.080000", "192555.080000", "192556.080000", "192557.080000", "192558.080000", "192559.080000", "192600.080000", "192601.080000", "192602.080000", "192603.080000", "192604.080000", "192605.080000", "192606.080000", "192607.080000", "192608.080000", "192609.080000", "192610.080000", "192611.080000", "192612.080000", "192613.080000", "192614.080000", "192615.080000", "192616.080000", "192617.080000", "192618.080000", "192619.080000", "192620.080000", "192621.080000", "192622.080000", "192623.080000", "192624.080000", "192625.080000", "192626.080000", "192627.080000", "192628.080000", "192629.080000", "192630.080000", "192631.080000", "192632.080000", "192633.080000", "192634.080000", "192635.080000", "192636.080000", "192637.080000", "192638.080000", "192639.080000", "192640.080000", "192641.080000", "192642.080000", "192643.080000", "192644.080000", "192645.080000", "192646.080000", "192647.080000", "192648.080000", "192649.080000", "192650.080000", "192651.080000", "192652.080000", "192653.080000", "192654.080000", "192655.080000", "192656.080000", "192657.080000", "192658.080000", "192659.080000", "192700.080000", "192701.080000", "192702.080000", "192703.080000", "192704.080000", "192705.080000", "192706.080000", "192707.080000", "192708.080000", "192709.080000", "192710.080000", "192711.080000", "192712.080000", "192713.080000", "192714.080000", "192715.080000", "192716.080000", "192717.080000", "192718.080000", "192719.080000", "192720.080000", "192721.080000", "192722.080000", "192723.080000", "192724.080000", "192725.080000", "192726.080000", "192727.080000", "192728.080000", "192729.080000", "192730.080000", "192731.080000", "192732.080000", "192733.080000", "192734.080000", "192735.080000", "192736.080000", "192737.080000", "192738.080000", "192739.080000", "192740.080000", "192741.080000", "192742.080000", "192743.080000", "192744.080000", "192745.080000", "192746.080000", "192747.080000", "192748.080000", "192749.080000", "192750.080000", "192751.080000", "192752.080000", "192753.080000", "192754.080000", "192755.080000", "192756.080000", "192757.080000", "192758.080000", "192759.080000", "192800.080000", "192801.080000", "192802.080000", "192803.080000", "192804.080000", "192805.080000", "192806.080000", "192807.080000", "192808.080000", "192809.080000", "192810.080000", "192811.080000", "192812.080000", "192813.080000", "192814.080000", "192815.080000", "192816.080000", "192817.080000", "192818.080000", "192819.080000", "192820.080000", "192821.080000", "192822.080000", "192823.080000", "192824.080000", "192825.080000", "192826.080000", "192827.080000", "192828.080000", "192829.080000", "192830.080000", "192831.080000", "192832.080000", "192833.080000", "192834.080000", "192835.080000", "192836.080000", "192837.080000", "192838.080000", "192839.080000", "192840.080000", "192841.080000", "192842.080000", "192843.080000", "192844.080000", "192845.080000", "192846.080000", "192847.080000", "192848.080000", "192849.080000", "192850.080000", "192851.080000", "192852.080000", "192853.080000", "192854.080000", "192855.080000", "192856.080000", "192857.080000", "192858.080000", "192859.080000", "192900.080000", "192901.080000", "192902.080000", "192903.080000", "192904.080000", "192905.080000", "192906.080000", "192907.080000", "192908.080000", "192909.080000", "192910.080000", "192911.080000", "192912.080000", "192913.080000", "192914.080000", "192915.080000", "192916.080000", "192917.080000", "192918.080000", "192919.080000", "192920.080000", "192921.080000", "192922.080000", "192923.080000", "192924.080000", "192925.080000", "192926.080000", "192927.080000", "192928.080000", "192929.080000", "192930.080000", "192931.080000", "192932.080000", "192933.080000", "192934.080000", "192935.080000", "192936.080000", "192937.080000", "192938.080000", "192939.080000", "192940.080000", "192941.080000", "192942.080000", "192943.080000", "192944.080000", "192945.080000", "192946.080000", "192947.080000", "192948.080000", "192949.080000", "192950.080000", "192951.080000", "192952.080000", "192953.080000", "192954.080000", "192955.080000", "192956.080000", "192957.080000", "192958.080000", "192959.080000", "193000.080000", "193001.080000", "193002.080000", "193003.080000", "193004.080000", "193005.080000", "193006.080000", "193007.080000", "193008.080000", "193009.080000", "193010.080000", "193011.080000", "193012.080000", "193013.080000", "193014.080000", "193015.080000", "193016.080000", "193017.080000", "193018.080000", "193019.080000", "193020.080000", "193021.080000", "193022.080000", "193023.080000", "193024.080000", "193025.080000", "193026.080000", "193027.080000", "193028.080000", "193029.080000", "193030.080000", "193031.080000", "193032.080000", "193033.080000", "193034.080000", "193035.080000", "193036.080000", "193037.080000"],
      "ContentTime": ["192525.976000", "192525.979000", "192525.981000", "192525.984000", "192525.986000", "192525.989000", "192525.991000", "192525.994000", "192525.996000", "192526.000000", "192526.002000", "192526.005000", "192526.007000", "192526.010000", "192526.035000", "192526.037000", "192526.041000", "192526.043000", "192526.046000", "192526.048000", "192526.051000", "192526.061000", "192526.064000", "192526.066000", "192526.068000", "192526.071000", "192526.073000", "192526.076000", "192526.078000", "192526.081000", "192526.083000", "192526.086000", "192526.088000", "192526.091000", "192526.094000", "192526.096000", "192526.099000", "192526.101000", "192526.104000", "192526.106000", "192526.109000", "192526.111000", "192545.939000", "192545.941000", "192545.944000", "192545.946000", "192545.949000", "192545.951000", "192545.954000", "192545.956000", "192545.959000", "192545.961000", "192545.964000", "192545.966000", "192545.969000", "192545.971000", "192545.974000", "192545.976000", "192545.978000", "192545.981000", "192545.983000", "192545.986000", "192605.939000", "192605.942000", "192605.944000", "192605.947000", "192605.949000", "192605.952000", "192605.954000", "192605.957000", "192605.959000", "192605.962000", "192605.964000", "192605.967000", "192605.969000", "192605.972000", "192605.974000", "192605.977000", "192605.979000", "192605.982000", "192605.984000", "192605.987000", "192625.940000", "192625.942000", "192625.945000", "192625.947000", "192625.950000", "192625.952000", "192625.955000", "192625.957000", "192625.960000", "192625.962000", "192625.965000", "192625.967000", "192625.970000", "192625.972000", "192625.975000", "192625.977000", "192625.980000", "192625.982000", "192625.985000", "192625.987000", "192645.939000", "192645.942000", "192645.945000", "192645.947000", "192645.949000", "192645.952000", "192645.954000", "192645.957000", "192645.959000", "192645.962000", "192645.964000", "192645.967000", "192645.969000", "192645.972000", "192645.974000", "192645.976000", "192645.979000", "192645.981000", "192645.984000", "192645.986000", "192705.938000", "192705.941000", "192705.944000", "192705.946000", "192705.949000", "192705.951000", "192705.953000", "192705.956000", "192705.958000", "192705.961000", "192705.963000", "192705.966000", "192705.968000", "192705.971000", "192705.973000", "192705.976000", "192705.978000", "192705.981000", "192705.983000", "192705.986000", "192725.939000", "192725.941000", "192725.944000", "192725.946000", "192725.949000", "192725.951000", "192725.954000", "192725.956000", "192725.959000", "192725.961000", "192725.964000", "192725.966000", "192725.969000", "192725.971000", "192725.973000", "192725.976000", "192725.978000", "192725.981000", "192725.983000", "192725.986000", "192745.938000", "192745.941000", "192745.944000", "192745.946000", "192745.949000", "192745.951000", "192745.953000", "192745.956000", "192745.958000", "192745.961000", "192745.963000", "192745.966000", "192745.968000", "192745.971000", "192745.973000", "192745.976000", "192745.978000", "192745.981000", "192745.983000", "192745.985000", "192805.938000", "192805.941000", "192805.944000", "192805.946000", "192805.949000", "192805.951000", "192805.954000", "192805.956000", "192805.959000", "192805.961000", "192805.963000", "192805.966000", "192805.968000", "192805.971000", "192805.973000", "192805.976000", "192805.978000", "192805.981000", "192805.983000", "192805.986000", "192825.939000", "192825.942000", "192825.945000", "192825.947000", "192825.949000", "192825.952000", "192825.954000", "192825.957000", "192825.959000", "192825.962000", "192825.964000", "192825.967000", "192825.969000", "192825.972000", "192825.974000", "192825.977000", "192825.979000", "192825.982000", "192825.984000", "192825.987000", "192845.940000", "192845.942000", "192845.945000", "192845.947000", "192845.950000", "192845.952000", "192845.955000", "192845.957000", "192845.960000", "192845.962000", "192845.964000", "192845.967000", "192845.969000", "192845.972000", "192845.974000", "192845.977000", "192845.979000", "192845.982000", "192845.984000", "192845.987000", "192905.939000", "192905.942000", "192905.945000", "192905.947000", "192905.959000", "192905.961000", "192905.964000", "192905.966000", "192905.969000", "192905.971000", "192905.974000", "192905.976000", "192905.979000", "192905.981000", "192905.984000", "192905.986000", "192905.989000", "192905.991000", "192905.994000", "192905.996000", "192925.939000", "192925.941000", "192925.944000", "192925.946000", "192925.949000", "192925.951000", "192925.954000", "192925.956000", "192925.959000", "192925.961000", "192925.964000", "192925.966000", "192925.969000", "192925.971000", "192925.974000", "192925.976000", "192925.979000", "192925.981000", "192925.984000", "192925.986000", "192945.938000", "192945.950000", "192945.953000", "192945.955000", "192945.958000", "192945.960000", "192945.963000", "192945.965000", "192945.968000", "192945.970000", "192945.973000", "192945.975000", "192945.978000", "192945.980000", "192945.983000", "192945.985000", "192945.988000", "192945.990000", "192945.993000", "192945.995000", "193005.939000", "193005.941000", "193005.944000", "193005.946000", "193005.949000", "193005.951000", "193005.954000", "193005.956000", "193005.959000", "193005.961000", "193005.964000", "193005.966000", "193005.969000", "193005.971000", "193005.974000", "193005.976000", "193005.979000", "193005.981000", "193005.984000", "193005.986000", "193025.938000", "193025.941000", "193025.944000", "193025.946000", "193025.949000", "193025.951000", "193025.954000", "193025.956000", "193025.958000", "193025.961000", "193025.963000", "193025.966000", "193025.969000", "193025.971000", "193025.974000", "193025.976000", "193025.979000", "193025.981000", "193025.984000", "193025.987000", "193039.170000", "193039.173000", "193039.176000", "193039.179000", "193039.181000", "193039.184000", "193039.187000", "193039.189000", "193039.192000", "193039.195000", "193039.198000", "193039.201000", "193039.203000", "193039.206000"],
      "InstanceCreationTime": ["192525.976000", "192525.979000", "192525.981000", "192525.984000", "192525.986000", "192525.989000", "192525.991000", "192525.994000", "192525.996000", "192526.000000", "192526.002000", "192526.005000", "192526.007000", "192526.010000", "192526.035000", "192526.037000", "192526.041000", "192526.043000", "192526.046000", "192526.048000", "192526.051000", "192526.061000", "192526.064000", "192526.066000", "192526.068000", "192526.071000", "192526.073000", "192526.076000", "192526.078000", "192526.081000", "192526.083000", "192526.086000", "192526.088000", "192526.091000", "192526.094000", "192526.096000", "192526.099000", "192526.101000", "192526.104000", "192526.106000", "192526.109000", "192526.111000", "192545.939000", "192545.941000", "192545.944000", "192545.946000", "192545.949000", "192545.951000", "192545.954000", "192545.956000", "192545.959000", "192545.961000", "192545.964000", "192545.966000", "192545.969000", "192545.971000", "192545.974000", "192545.976000", "192545.978000", "192545.981000", "192545.983000", "192545.986000", "192605.939000", "192605.942000", "192605.944000", "192605.947000", "192605.949000", "192605.952000", "192605.954000", "192605.957000", "192605.959000", "192605.962000", "192605.964000", "192605.967000", "192605.969000", "192605.972000", "192605.974000", "192605.977000", "192605.979000", "192605.982000", "192605.984000", "192605.987000", "192625.940000", "192625.942000", "192625.945000", "192625.947000", "192625.950000", "192625.952000", "192625.955000", "192625.957000", "192625.960000", "192625.962000", "192625.965000", "192625.967000", "192625.970000", "192625.972000", "192625.975000", "192625.977000", "192625.980000", "192625.982000", "192625.985000", "192625.987000", "192645.939000", "192645.942000", "192645.945000", "192645.947000", "192645.949000", "192645.952000", "192645.954000", "192645.957000", "192645.959000", "192645.962000", "192645.964000", "192645.967000", "192645.969000", "192645.972000", "192645.974000", "192645.976000", "192645.979000", "192645.981000", "192645.984000", "192645.986000", "192705.938000", "192705.941000", "192705.944000", "192705.946000", "192705.949000", "192705.951000", "192705.953000", "192705.956000", "192705.958000", "192705.961000", "192705.963000", "192705.966000", "192705.968000", "192705.971000", "192705.973000", "192705.976000", "192705.978000", "192705.981000", "192705.983000", "192705.986000", "192725.939000", "192725.941000", "192725.944000", "192725.946000", "192725.949000", "192725.951000", "192725.954000", "192725.956000", "192725.959000", "192725.961000", "192725.964000", "192725.966000", "192725.969000", "192725.971000", "192725.973000", "192725.976000", "192725.978000", "192725.981000", "192725.983000", "192725.986000", "192745.938000", "192745.941000", "192745.944000", "192745.946000", "192745.949000", "192745.951000", "192745.953000", "192745.956000", "192745.958000", "192745.961000", "192745.963000", "192745.966000", "192745.968000", "192745.971000", "192745.973000", "192745.976000", "192745.978000", "192745.981000", "192745.983000", "192745.985000", "192805.938000", "192805.941000", "192805.944000", "192805.946000", "192805.949000", "192805.951000", "192805.954000", "192805.956000", "192805.959000", "192805.961000", "192805.963000", "192805.966000", "192805.968000", "192805.971000", "192805.973000", "192805.976000", "192805.978000", "192805.981000", "192805.983000", "192805.986000", "192825.939000", "192825.942000", "192825.945000", "192825.947000", "192825.949000", "192825.952000", "192825.954000", "192825.957000", "192825.959000", "192825.962000", "192825.964000", "192825.967000", "192825.969000", "192825.972000", "192825.974000", "192825.977000", "192825.979000", "192825.982000", "192825.984000", "192825.987000", "192845.940000", "192845.942000", "192845.945000", "192845.947000", "192845.950000", "192845.952000", "192845.955000", "192845.957000", "192845.960000", "192845.962000", "192845.964000", "192845.967000", "192845.969000", "192845.972000", "192845.974000", "192845.977000", "192845.979000", "192845.982000", "192845.984000", "192845.987000", "192905.939000", "192905.942000", "192905.945000", "192905.947000", "192905.959000", "192905.961000", "192905.964000", "192905.966000", "192905.969000", "192905.971000", "192905.974000", "192905.976000", "192905.979000", "192905.981000", "192905.984000", "192905.986000", "192905.989000", "192905.991000", "192905.994000", "192905.996000", "192925.939000", "192925.941000", "192925.944000", "192925.946000", "192925.949000", "192925.951000", "192925.954000", "192925.956000", "192925.959000", "192925.961000", "192925.964000", "192925.966000", "192925.969000", "192925.971000", "192925.974000", "192925.976000", "192925.979000", "192925.981000", "192925.984000", "192925.986000", "192945.938000", "192945.950000", "192945.953000", "192945.955000", "192945.958000", "192945.960000", "192945.963000", "192945.965000", "192945.968000", "192945.970000", "192945.973000", "192945.975000", "192945.978000", "192945.980000", "192945.983000", "192945.985000", "192945.988000", "192945.990000", "192945.993000", "192945.995000", "193005.939000", "193005.941000", "193005.944000", "193005.946000", "193005.949000", "193005.951000", "193005.954000", "193005.956000", "193005.959000", "193005.961000", "193005.964000", "193005.966000", "193005.969000", "193005.971000", "193005.974000", "193005.976000", "193005.979000", "193005.981000", "193005.984000", "193005.986000", "193025.938000", "193025.941000", "193025.944000", "193025.946000", "193025.949000", "193025.951000", "193025.954000", "193025.956000", "193025.958000", "193025.961000", "193025.963000", "193025.966000", "193025.969000", "193025.971000", "193025.974000", "193025.976000", "193025.979000", "193025.981000", "193025.984000", "193025.987000", "193039.170000", "193039.173000", "193039.176000", "193039.179000", "193039.181000", "193039.184000", "193039.187000", "193039.189000", "193039.192000", "193039.195000", "193039.198000", "193039.201000", "193039.203000", "193039.206000"],
      "InstanceNumber": [1, 2, 3, 4, 5, 6, 7, 8, 9, 10, 11, 12, 13, 14, 15, 16, 17, 18, 19, 20, 21, 22, 23, 24, 25, 26, 27, 28, 29, 30, 31, 32, 33, 34, 35, 36, 37, 38, 39, 40, 41, 42, 43, 44, 45, 46, 47, 48, 49, 50, 51, 52, 53, 54, 55, 56, 57, 58, 59, 60, 61, 62, 63, 64, 65, 66, 67, 68, 69, 70, 71, 72, 73, 74, 75, 76, 77, 78, 79, 80, 81, 82, 83, 84, 85, 86, 87, 88, 89, 90, 91, 92, 93, 94, 95, 96, 97, 98, 99, 100, 101, 102, 103, 104, 105, 106, 107, 108, 109, 110, 111, 112, 113, 114, 115, 116, 117, 118, 119, 120, 121, 122, 123, 124, 125, 126, 127, 128, 129, 130, 131, 132, 133, 134, 135, 136, 137, 138, 139, 140, 141, 142, 143, 144, 145, 146, 147, 148, 149, 150, 151, 152, 153, 154, 155, 156, 157, 158, 159, 160, 161, 162, 163, 164, 165, 166, 167, 168, 169, 170, 171, 172, 173, 174, 175, 176, 177, 178, 179, 180, 181, 182, 183, 184, 185, 186, 187, 188, 189, 190, 191, 192, 193, 194, 195, 196, 197, 198, 199, 200, 201, 202, 203, 204, 205, 206, 207, 208, 209, 210, 211, 212, 213, 214, 215, 216, 217, 218, 219, 220, 221, 222, 223, 224, 225, 226, 227, 228, 229, 230, 231, 232, 233, 234, 235, 236, 237, 238, 239, 240, 241, 242, 243, 244, 245, 246, 247, 248, 249, 250, 251, 252, 253, 254, 255, 256, 257, 258, 259, 260, 261, 262, 263, 264, 265, 266, 267, 268, 269, 270, 271, 272, 273, 274, 275, 276, 277, 278, 279, 280, 281, 282, 283, 284, 285, 286, 287, 288, 289, 290, 291, 292, 293, 294, 295, 296, 297, 298, 299, 300, 301, 302, 303, 304, 305, 306, 307, 308, 309, 310, 311, 312, 313, 314, 315, 316, 317, 318, 319, 320, 321, 322, 323, 324, 325, 326, 327, 328, 329, 330, 331, 332, 333, 334, 335, 336, 337, 338, 339, 340, 341, 342, 343, 344, 345, 346, 347, 348, 349, 350, 351, 352, 353, 354, 355, 356],
      "LargestImagePixelValue": [12156, 11713, 11657, 11522, 11427, 11511, 11522, 11525, 11515, 11386, 11428, 11421, 11517, 11676, 11723, 11474, 11519, 11780, 11916, 11458, 11466, 11589, 11637, 11577, 11640, 11806, 11646, 11454, 11514, 11660, 11508, 11566, 11725, 11801, 11722, 11557, 11660, 11479, 11637, 11899, 11727, 11811, 11739, 11694, 11768, 11672, 11701, 11815, 11875, 11701, 11674, 11599, 11733, 11486, 11639, 11545, 11374, 11612, 11682, 11538, 11749, 11851, 11752, 11600, 11701, 11744, 11692, 11744, 11850, 11688, 11781, 11840, 11906, 11614, 11652, 11546, 11496, 11462, 11611, 11538, 11606, 11676, 11690, 11603, 11595, 11718, 11696, 11693, 11635, 11759, 11453, 11384, 11356, 11542, 11458, 11443, 11436, 11511, 11501, 11438, 11521, 11638, 11348, 11528, 11788, 11682, 11802, 11798, 11708, 11656, 11827, 11893, 11780, 11892, 11689, 11739, 11699, 11893, 11690, 11492, 11585, 11760, 11477, 11630, 11661, 11571, 11562, 11616, 11583, 11498, 11562, 11567, 11268, 11379, 11502, 11377, 11309, 11554, 11666, 11677, 11443, 11589, 11487, 11419, 11540, 11587, 11670, 11478, 11608, 11441, 11500, 11483, 11679, 11529, 11607, 11721, 11795, 11511, 11808, 11708, 11623, 11760, 11688, 11722, 11636, 11671, 11865, 11729, 11823, 11680, 11541, 11478, 11584, 11515, 11409, 11444, 11623, 11595, 11525, 11706, 11515, 11478, 11647, 11477, 11544, 11613, 11586, 11640, 11644, 11691, 11499, 11476, 11573, 11553, 11347, 11482, 11379, 11438, 11537, 11836, 11622, 11513, 11576, 11521, 11699, 11684, 11846, 11625, 11649, 11660, 11488, 11586, 11647, 11786, 11684, 11723, 11642, 11611, 11586, 11714, 11404, 11399, 11414, 11403, 11386, 11671, 11516, 11441, 11705, 11593, 11549, 11598, 11499, 11581, 11587, 11325, 11415, 11599, 11488, 11469, 11541, 11499, 11455, 11433, 11640, 11347, 11461, 11540, 11503, 11398, 11466, 11631, 11621, 11651, 11581, 11565, 11607, 11723, 11648, 11597, 11614, 11520, 11408, 11515, 11633, 11439, 11584, 11427, 11489, 11652, 11536, 11476, 11267, 11443, 11357, 11504, 11436, 11466, 11403, 11393, 11399, 11524, 11420, 11569, 11563, 11470, 11583, 11671, 11530, 11795, 11568, 11635, 11365, 11509, 11491, 11434, 11552, 11579, 11582, 11524, 11655, 11802, 11549, 11623, 11676, 11561, 11615, 11689, 11628, 11707, 11803, 11873, 11623, 11598, 11581, 11558, 11372, 11521, 11421, 11475, 11410, 11584, 11458, 11397, 11555, 11511, 11534, 11438, 11383, 11398, 11494, 11342, 11610, 11539, 11370, 11355, 11425, 11325, 11582, 11524, 11515, 11466, 11581, 11611, 11310, 11391, 11408, 11450, 11201, 11290, 11459, 11339, 11243, 11315, 11468, 11643],
