{
  "AcquisitionMatrixPE": 106,
  "AcquisitionNumber": 1,
  "AcquisitionTime": "19:34:2.022500",
  "BandwidthPerPixelPhaseEncode": 13.477,
  "BaseResolution": 106,
  "BodyPartExamined": "BRAIN",
  "CoilCombinationMethod": "Sum of Squares",
  "ConsistencyInfo": "N4_VE11C_LATEST_20160120",
  "ConversionSoftware": "dcm2niix",
  "ConversionSoftwareVersion": "v1.0.20220720",
  "DerivedVendorReportedEchoSpacing": 0.000700005,
  "DeviceSerialNumber": "166108",
  "DwellTime": 2.6e-06,
  "EchoTime": 0.03,
  "EchoTrainLength": 80,
  "EffectiveEchoSpacing": 0.000700005,
  "FlipAngle": 62,
  "HeudiconvVersion": "1.3.0",
  "ImageComments": "Unaliased MB4/PE3/LB",
  "ImageOrientationPatientDICOM": [1, 0, 0, 0, 0.921185, -0.389124],
  "ImageOrientationText": "Tra>Cor(-22.9)",
  "ImageType": [
    "ORIGINAL",
    "PRIMARY",
    "M",
    "MB",
    "ND",
    "MOSAIC"
],
  "ImagingFrequency": 123.244,
  "InPlanePhaseEncodingDirectionDICOM": "COL",
  "InstitutionAddress": "Bedford Way 26,London,London,GB,WC1H 0AP",
  "InstitutionName": "University College",
  "InstitutionalDepartmentName": "Department",
  "MRAcquisitionType": "2D",
  "MagneticFieldStrength": 3,
  "Manufacturer": "Siemens",
  "ManufacturersModelName": "Prisma",
  "MatrixCoilMode": "SENSE",
  "Modality": "MR",
  "MultibandAccelerationFactor": 4,
  "NonlinearGradientCorrection": false,
  "PartialFourier": 0.75,
  "PatientPosition": "HFS",
  "PercentPhaseFOV": 100,
  "PercentSampling": 100,
  "PhaseEncodingDirection": "j-",
  "PhaseEncodingSteps": 80,
  "PhaseResolution": 1,
  "PixelBandwidth": 1815,
  "ProcedureStepDescription": "Egor^MovieProject2",
  "ProtocolName": "func-bold_task-tono_run-01",
  "PulseSequenceDetails": "%CustomerSeq%\\cmrr_mbep2d_bold",
  "ReceiveCoilActiveElements": "HEA;HEP",
  "ReceiveCoilName": "Head_32",
  "ReconMatrixPE": 106,
  "RepetitionTime": 1,
  "SAR": 0.042922,
  "ScanOptions": "PFP\\FS\\EXT",
  "ScanningSequence": "EP",
  "SequenceName": "epfid2d1_106",
  "SequenceVariant": "SK\\SS",
  "SeriesDescription": "func-bold_task-tono_run-01",
  "SeriesNumber": 18,
  "ShimSetting": [-1577, 670, 7410, 342, -48, 248, 119, -23],
  "SliceThickness": 2,
  "SliceTiming": [0, 0.5325, 0.0875, 0.6225, 0.1775, 0.7125, 0.2675, 0.8, 0.355, 0.89, 0.445, 0, 0.5325, 0.0875, 0.6225, 0.1775, 0.7125, 0.2675, 0.8, 0.355, 0.89, 0.445, 0, 0.5325, 0.0875, 0.6225, 0.1775, 0.7125, 0.2675, 0.8, 0.355, 0.89, 0.445, 0, 0.5325, 0.0875, 0.6225, 0.1775, 0.7125, 0.2675, 0.8, 0.355, 0.89, 0.445],
  "SoftwareVersions": "syngo MR E11",
  "SpacingBetweenSlices": 2,
  "StationName": "AWP166108",
  "TaskName": "tonotopy",
  "TotalReadoutTime": 0.0735005,
  "TxRefAmp": 244.62,
  "WipMemBlock": "faac95f8-a961-4011-bdd4-60f469dfe3aa||Sequence: R016 ve11c/master r/e634e98; Dec 19 2017 11:00:25 by eja",
  "dcmmeta_affine": [
    [-2.0, 0.0, 0.0, 106.0],
    [0.0, 1.842370867729187, -0.7782478928565979, -74.1988754272461],
    [0.0, 0.7782478928565979, 1.842370867729187, -71.11659240722656],
    [0.0, 0.0, 0.0, 1.0]
],
  "dcmmeta_reorient_transform": [
    [0.0, -1.0, 0.0, 105.0],
    [1.0, 0.0, 0.0, 0.0],
    [0.0, 0.0, 1.0, 0.0],
    [0.0, 0.0, 0.0, 1.0]
],
  "dcmmeta_shape": [106, 106, 44, 264],
  "dcmmeta_slice_dim": 2,
  "dcmmeta_version": 0.6,
  "global": {
    "const": {
      "AcquisitionMatrix": [106, 0, 0, 106],
      "AngioFlag": "N",
      "BitsAllocated": 16,
      "BitsStored": 16,
      "BodyPartExamined": "BRAIN",
      "CardiacNumberOfImages": 1,
      "Columns": 742,
      "EchoNumbers": 1,
      "EchoTime": 30.0,
      "EchoTrainLength": 80,
      "FlipAngle": 62.0,
      "HighBit": 15,
      "ImageOrientationPatient": [1.0, 0.0, 0.0, 0.0, 0.92118540965409, -0.3891239404617],
      "ImagePositionPatient": [-742.0, -705.12398222749, 258.08226255914],
      "ImageType": [
        "ORIGINAL",
        "PRIMARY",
        "M",
        "MB",
        "ND",
        "MOSAIC"
],
      "ImagedNucleus": "1H",
      "ImagingFrequency": 123.243663,
      "InPlanePhaseEncodingDirection": "COL",
      "MRAcquisitionType": "2D",
      "MagneticFieldStrength": 3.0,
      "Manufacturer": "SIEMENS",
      "ManufacturerModelName": "Prisma",
      "Modality": "MR",
      "NominalInterval": 0,
      "NumberOfAverages": 1.0,
      "NumberOfPhaseEncodingSteps": 80,
      "PercentPhaseFieldOfView": 100.0,
      "PercentSampling": 100.0,
      "PerformedProcedureStepStartTime": "182138.729000",
      "PhotometricInterpretation": "MONOCHROME2",
      "PixelBandwidth": 1815.0,
      "PixelRepresentation": 0,
      "PixelSpacing": [2.0, 2.0],
      "ProtocolName": "func-bold_task-tono_run-01",
      "RepetitionTime": 1000.0,
      "Rows": 742,
      "SAR": 0.04292202049112,
      "SamplesPerPixel": 1,
      "ScanOptions": [
        "PFP",
        "FS",
        "EXT"
],
      "ScanningSequence": "EP",
      "SequenceName": "epfid2d1_106",
      "SequenceVariant": [
        "SK",
        "SS"
],
      "SeriesDescription": "func-bold_task-tono_run-01",
      "SeriesNumber": 18,
      "SeriesTime": "193431.419000",
      "SliceLocation": -36.6390077184,
      "SliceThickness": 2.0,
      "SmallestImagePixelValue": 0,
      "SoftwareVersions": "syngo MR E11",
      "SpacingBetweenSlices": 2.0000000305459,
      "SpecificCharacterSet": "ISO_IR 100",
      "StudyID": "1",
      "StudyTime": "182138.589000",
      "TransmitCoilName": "Body",
      "VariableFlipAngleFlag": "N",
      "WindowCenterWidthExplanation": "Algo1",
      "dBdt": 0.0},
    "slices": {}
  },
  "time": {
    "samples": {
      "AcquisitionNumber": [1, 2, 3, 4, 5, 6, 7, 8, 9, 10, 11, 12, 13, 14, 15, 16, 17, 18, 19, 20, 21, 22, 23, 24, 25, 26, 27, 28, 29, 30, 31, 32, 33, 34, 35, 36, 37, 38, 39, 40, 41, 42, 43, 44, 45, 46, 47, 48, 49, 50, 51, 52, 53, 54, 55, 56, 57, 58, 59, 60, 61, 62, 63, 64, 65, 66, 67, 68, 69, 70, 71, 72, 73, 74, 75, 76, 77, 78, 79, 80, 81, 82, 83, 84, 85, 86, 87, 88, 89, 90, 91, 92, 93, 94, 95, 96, 97, 98, 99, 100, 101, 102, 103, 104, 105, 106, 107, 108, 109, 110, 111, 112, 113, 114, 115, 116, 117, 118, 119, 120, 121, 122, 123, 124, 125, 126, 127, 128, 129, 130, 131, 132, 133, 134, 135, 136, 137, 138, 139, 140, 141, 142, 143, 144, 145, 146, 147, 148, 149, 150, 151, 152, 153, 154, 155, 156, 157, 158, 159, 160, 161, 162, 163, 164, 165, 166, 167, 168, 169, 170, 171, 172, 173, 174, 175, 176, 177, 178, 179, 180, 181, 182, 183, 184, 185, 186, 187, 188, 189, 190, 191, 192, 193, 194, 195, 196, 197, 198, 199, 200, 201, 202, 203, 204, 205, 206, 207, 208, 209, 210, 211, 212, 213, 214, 215, 216, 217, 218, 219, 220, 221, 222, 223, 224, 225, 226, 227, 228, 229, 230, 231, 232, 233, 234, 235, 236, 237, 238, 239, 240, 241, 242, 243, 244, 245, 246, 247, 248, 249, 250, 251, 252, 253, 254, 255, 256, 257, 258, 259, 260, 261, 262, 263, 264],
      "AcquisitionTime": ["193402.022500", "193403.022500", "193404.022500", "193405.022500", "193406.022500", "193407.022500", "193408.022500", "193409.022500", "193410.022500", "193411.022500", "193412.022500", "193413.022500", "193414.022500", "193415.022500", "193416.022500", "193417.022500", "193418.022500", "193419.022500", "193420.022500", "193421.022500", "193422.022500", "193423.022500", "193424.022500", "193425.022500", "193426.022500", "193427.022500", "193428.022500", "193429.022500", "193430.022500", "193431.022500", "193432.022500", "193433.022500", "193434.022500", "193435.022500", "193436.022500", "193437.022500", "193438.022500", "193439.022500", "193440.022500", "193441.022500", "193442.022500", "193443.022500", "193444.022500", "193445.022500", "193446.022500", "193447.022500", "193448.022500", "193449.022500", "193450.022500", "193451.022500", "193452.022500", "193453.022500", "193454.022500", "193455.022500", "193456.022500", "193457.022500", "193458.022500", "193459.022500", "193500.022500", "193501.022500", "193502.022500", "193503.022500", "193504.022500", "193505.022500", "193506.022500", "193507.022500", "193508.022500", "193509.022500", "193510.022500", "193511.022500", "193512.022500", "193513.022500", "193514.022500", "193515.022500", "193516.022500", "193517.022500", "193518.022500", "193519.022500", "193520.022500", "193521.022500", "193522.022500", "193523.022500", "193524.022500", "193525.022500", "193526.022500", "193527.022500", "193528.022500", "193529.022500", "193530.022500", "193531.022500", "193532.022500", "193533.022500", "193534.022500", "193535.022500", "193536.022500", "193537.022500", "193538.022500", "193539.022500", "193540.022500", "193541.022500", "193542.022500", "193543.022500", "193544.022500", "193545.022500", "193546.022500", "193547.022500", "193548.022500", "193549.022500", "193550.022500", "193551.022500", "193552.022500", "193553.022500", "193554.022500", "193555.022500", "193556.022500", "193557.022500", "193558.022500", "193559.022500", "193600.022500", "193601.022500", "193602.022500", "193603.022500", "193604.022500", "193605.022500", "193606.022500", "193607.022500", "193608.022500", "193609.022500", "193610.022500", "193611.022500", "193612.022500", "193613.022500", "193614.022500", "193615.022500", "193616.022500", "193617.022500", "193618.022500", "193619.022500", "193620.022500", "193621.022500", "193622.022500", "193623.022500", "193624.022500", "193625.022500", "193626.022500", "193627.022500", "193628.022500", "193629.022500", "193630.022500", "193631.022500", "193632.022500", "193633.022500", "193634.022500", "193635.022500", "193636.022500", "193637.022500", "193638.022500", "193639.022500", "193640.022500", "193641.022500", "193642.022500", "193643.022500", "193644.022500", "193645.022500", "193646.022500", "193647.022500", "193648.022500", "193649.022500", "193650.022500", "193651.022500", "193652.022500", "193653.022500", "193654.022500", "193655.022500", "193656.022500", "193657.022500", "193658.022500", "193659.022500", "193700.022500", "193701.022500", "193702.022500", "193703.022500", "193704.022500", "193705.022500", "193706.022500", "193707.022500", "193708.022500", "193709.022500", "193710.022500", "193711.022500", "193712.022500", "193713.022500", "193714.022500", "193715.022500", "193716.022500", "193717.022500", "193718.022500", "193719.022500", "193720.022500", "193721.022500", "193722.022500", "193723.022500", "193724.022500", "193725.022500", "193726.022500", "193727.022500", "193728.022500", "193729.022500", "193730.022500", "193731.022500", "193732.022500", "193733.022500", "193734.022500", "193735.022500", "193736.022500", "193737.022500", "193738.022500", "193739.022500", "193740.022500", "193741.022500", "193742.022500", "193743.022500", "193744.022500", "193745.022500", "193746.022500", "193747.022500", "193748.022500", "193749.022500", "193750.022500", "193751.022500", "193752.022500", "193753.022500", "193754.022500", "193755.022500", "193756.022500", "193757.022500", "193758.022500", "193759.022500", "193800.022500", "193801.022500", "193802.022500", "193803.022500", "193804.022500", "193805.022500", "193806.022500", "193807.022500", "193808.022500", "193809.022500", "193810.022500", "193811.022500", "193812.022500", "193813.022500", "193814.022500", "193815.022500", "193816.022500", "193817.022500", "193818.022500", "193819.022500", "193820.022500", "193821.022500", "193822.022500", "193823.022500", "193824.022500", "193825.022500"],
      "ContentTime": ["193431.422000", "193431.425000", "193431.427000", "193431.430000", "193431.432000", "193431.435000", "193431.437000", "193431.440000", "193431.442000", "193431.444000", "193431.447000", "193431.449000", "193431.452000", "193431.454000", "193431.457000", "193431.459000", "193431.461000", "193431.464000", "193431.466000", "193431.469000", "193431.471000", "193431.474000", "193431.476000", "193431.479000", "193431.481000", "193431.483000", "193431.486000", "193431.488000", "193431.491000", "193451.381000", "193451.385000", "193451.405000", "193451.413000", "193451.415000", "193451.418000", "193451.420000", "193451.423000", "193451.425000", "193451.428000", "193451.430000", "193451.432000", "193451.435000", "193451.437000", "193451.440000", "193451.442000", "193451.445000", "193451.447000", "193451.450000", "193451.452000", "193511.382000", "193511.384000", "193511.387000", "193511.389000", "193511.392000", "193511.394000", "193511.397000", "193511.399000", "193511.402000", "193511.404000", "193511.407000", "193511.409000", "193511.412000", "193511.418000", "193511.420000", "193511.423000", "193511.425000", "193511.428000", "193511.430000", "193511.433000", "193531.381000", "193531.384000", "193531.386000", "193531.389000", "193531.391000", "193531.394000", "193531.396000", "193531.399000", "193531.401000", "193531.404000", "193531.406000", "193531.409000", "193531.411000", "193531.414000", "193531.416000", "193531.419000", "193531.421000", "193531.424000", "193531.426000", "193531.429000", "193551.380000", "193551.383000", "193551.386000", "193551.388000", "193551.391000", "193551.393000", "193551.395000", "193551.398000", "193551.400000", "193551.403000", "193551.405000", "193551.408000", "193551.410000", "193551.413000", "193551.415000", "193551.425000", "193551.427000", "193551.430000", "193551.432000", "193551.435000", "193611.380000", "193611.383000", "193611.386000", "193611.388000", "193611.391000", "193611.393000", "193611.396000", "193611.398000", "193611.400000", "193611.403000", "193611.405000", "193611.408000", "193611.410000", "193611.413000", "193611.415000", "193611.418000", "193611.420000", "193611.423000", "193611.425000", "193611.428000", "193651.381000", "193651.383000", "193651.386000", "193651.388000", "193651.391000", "193651.393000", "193651.396000", "193651.398000", "193651.401000", "193651.403000", "193651.406000", "193651.408000", "193651.411000", "193651.413000", "193651.415000", "193651.418000", "193651.420000", "193651.423000", "193651.425000", "193651.428000", "193651.431000", "193651.433000", "193651.435000", "193651.438000", "193651.440000", "193651.443000", "193651.445000", "193651.448000", "193651.450000", "193651.453000", "193651.455000", "193651.457000", "193651.460000", "193651.462000", "193651.465000", "193651.467000", "193651.470000", "193651.472000", "193651.475000", "193651.477000", "193711.381000", "193711.384000", "193711.387000", "193711.389000", "193711.391000", "193711.394000", "193711.396000", "193711.399000", "193711.401000", "193711.404000", "193711.406000", "193711.409000", "193711.411000", "193711.414000", "193711.416000", "193711.419000", "193711.421000", "193711.423000", "193711.426000", "193711.428000", "193731.381000", "193731.384000", "193731.386000", "193731.389000", "193731.391000", "193731.394000", "193731.396000", "193731.399000", "193731.402000", "193731.404000", "193731.407000", "193731.409000", "193731.412000", "193731.414000", "193731.417000", "193731.419000", "193731.422000", "193731.424000", "193731.427000", "193731.429000", "193751.381000", "193751.384000", "193751.386000", "193751.389000", "193751.392000", "193751.394000", "193751.396000", "193751.399000", "193751.401000", "193751.404000", "193751.406000", "193751.409000", "193751.411000", "193751.414000", "193751.416000", "193751.419000", "193751.421000", "193751.424000", "193751.426000", "193751.428000", "193811.381000", "193811.383000", "193811.386000", "193811.388000", "193811.391000", "193811.393000", "193811.396000", "193811.398000", "193811.400000", "193811.403000", "193811.405000", "193811.408000", "193811.410000", "193811.413000", "193811.415000", "193811.417000", "193811.420000", "193811.423000", "193811.425000", "193811.427000", "193826.396000", "193826.399000", "193826.401000", "193826.404000", "193826.406000", "193826.409000", "193826.411000", "193826.414000", "193826.416000", "193826.419000", "193826.421000", "193826.424000", "193826.426000", "193826.429000", "193826.431000"],
      "InstanceCreationTime": ["193431.422000", "193431.425000", "193431.427000", "193431.430000", "193431.432000", "193431.435000", "193431.437000", "193431.440000", "193431.442000", "193431.444000", "193431.447000", "193431.449000", "193431.452000", "193431.454000", "193431.457000", "193431.459000", "193431.461000", "193431.464000", "193431.466000", "193431.469000", "193431.471000", "193431.474000", "193431.476000", "193431.479000", "193431.481000", "193431.483000", "193431.486000", "193431.488000", "193431.491000", "193451.381000", "193451.385000", "193451.405000", "193451.413000", "193451.415000", "193451.418000", "193451.420000", "193451.423000", "193451.425000", "193451.428000", "193451.430000", "193451.432000", "193451.435000", "193451.437000", "193451.440000", "193451.442000", "193451.445000", "193451.447000", "193451.450000", "193451.452000", "193511.382000", "193511.384000", "193511.387000", "193511.389000", "193511.392000", "193511.394000", "193511.397000", "193511.399000", "193511.402000", "193511.404000", "193511.407000", "193511.409000", "193511.412000", "193511.418000", "193511.420000", "193511.423000", "193511.425000", "193511.428000", "193511.430000", "193511.433000", "193531.381000", "193531.384000", "193531.386000", "193531.389000", "193531.391000", "193531.394000", "193531.396000", "193531.399000", "193531.401000", "193531.404000", "193531.406000", "193531.409000", "193531.411000", "193531.414000", "193531.416000", "193531.419000", "193531.421000", "193531.424000", "193531.426000", "193531.429000", "193551.380000", "193551.383000", "193551.386000", "193551.388000", "193551.391000", "193551.393000", "193551.395000", "193551.398000", "193551.400000", "193551.403000", "193551.405000", "193551.408000", "193551.410000", "193551.413000", "193551.415000", "193551.425000", "193551.427000", "193551.430000", "193551.432000", "193551.435000", "193611.380000", "193611.383000", "193611.386000", "193611.388000", "193611.391000", "193611.393000", "193611.396000", "193611.398000", "193611.400000", "193611.403000", "193611.405000", "193611.408000", "193611.410000", "193611.413000", "193611.415000", "193611.418000", "193611.420000", "193611.423000", "193611.425000", "193611.428000", "193651.381000", "193651.383000", "193651.386000", "193651.388000", "193651.391000", "193651.393000", "193651.396000", "193651.398000", "193651.401000", "193651.403000", "193651.406000", "193651.408000", "193651.411000", "193651.413000", "193651.415000", "193651.418000", "193651.420000", "193651.423000", "193651.425000", "193651.428000", "193651.431000", "193651.433000", "193651.435000", "193651.438000", "193651.440000", "193651.443000", "193651.445000", "193651.448000", "193651.450000", "193651.453000", "193651.455000", "193651.457000", "193651.460000", "193651.462000", "193651.465000", "193651.467000", "193651.470000", "193651.472000", "193651.475000", "193651.477000", "193711.381000", "193711.384000", "193711.387000", "193711.389000", "193711.391000", "193711.394000", "193711.396000", "193711.399000", "193711.401000", "193711.404000", "193711.406000", "193711.409000", "193711.411000", "193711.414000", "193711.416000", "193711.419000", "193711.421000", "193711.423000", "193711.426000", "193711.428000", "193731.381000", "193731.384000", "193731.386000", "193731.389000", "193731.391000", "193731.394000", "193731.396000", "193731.399000", "193731.402000", "193731.404000", "193731.407000", "193731.409000", "193731.412000", "193731.414000", "193731.417000", "193731.419000", "193731.422000", "193731.424000", "193731.427000", "193731.429000", "193751.381000", "193751.384000", "193751.386000", "193751.389000", "193751.392000", "193751.394000", "193751.396000", "193751.399000", "193751.401000", "193751.404000", "193751.406000", "193751.409000", "193751.411000", "193751.414000", "193751.416000", "193751.419000", "193751.421000", "193751.424000", "193751.426000", "193751.428000", "193811.381000", "193811.383000", "193811.386000", "193811.388000", "193811.391000", "193811.393000", "193811.396000", "193811.398000", "193811.400000", "193811.403000", "193811.405000", "193811.408000", "193811.410000", "193811.413000", "193811.415000", "193811.417000", "193811.420000", "193811.423000", "193811.425000", "193811.427000", "193826.396000", "193826.399000", "193826.401000", "193826.404000", "193826.406000", "193826.409000", "193826.411000", "193826.414000", "193826.416000", "193826.419000", "193826.421000", "193826.424000", "193826.426000", "193826.429000", "193826.431000"],
      "InstanceNumber": [1, 2, 3, 4, 5, 6, 7, 8, 9, 10, 11, 12, 13, 14, 15, 16, 17, 18, 19, 20, 21, 22, 23, 24, 25, 26, 27, 28, 29, 30, 31, 32, 33, 34, 35, 36, 37, 38, 39, 40, 41, 42, 43, 44, 45, 46, 47, 48, 49, 50, 51, 52, 53, 54, 55, 56, 57, 58, 59, 60, 61, 62, 63, 64, 65, 66, 67, 68, 69, 70, 71, 72, 73, 74, 75, 76, 77, 78, 79, 80, 81, 82, 83, 84, 85, 86, 87, 88, 89, 90, 91, 92, 93, 94, 95, 96, 97, 98, 99, 100, 101, 102, 103, 104, 105, 106, 107, 108, 109, 110, 111, 112, 113, 114, 115, 116, 117, 118, 119, 120, 121, 122, 123, 124, 125, 126, 127, 128, 129, 130, 131, 132, 133, 134, 135, 136, 137, 138, 139, 140, 141, 142, 143, 144, 145, 146, 147, 148, 149, 150, 151, 152, 153, 154, 155, 156, 157, 158, 159, 160, 161, 162, 163, 164, 165, 166, 167, 168, 169, 170, 171, 172, 173, 174, 175, 176, 177, 178, 179, 180, 181, 182, 183, 184, 185, 186, 187, 188, 189, 190, 191, 192, 193, 194, 195, 196, 197, 198, 199, 200, 201, 202, 203, 204, 205, 206, 207, 208, 209, 210, 211, 212, 213, 214, 215, 216, 217, 218, 219, 220, 221, 222, 223, 224, 225, 226, 227, 228, 229, 230, 231, 232, 233, 234, 235, 236, 237, 238, 239, 240, 241, 242, 243, 244, 245, 246, 247, 248, 249, 250, 251, 252, 253, 254, 255, 256, 257, 258, 259, 260, 261, 262, 263, 264],
      "LargestImagePixelValue": [13431, 13243, 13150, 13075, 12917, 13084, 13003, 12979, 12903, 12893, 13109, 13147, 13131, 13197, 13195, 13179, 13249, 13143, 13300, 13303, 13178, 13344, 13320, 13257, 13351, 13313, 13223, 13276, 13262, 13226, 13211, 13212, 13197, 13242, 13165, 13267, 13078, 13082, 13459, 13257, 13205, 13299, 13220, 13055, 13170, 13059, 13113, 13062, 13206, 13149, 13007, 13170, 13074, 13089, 13089, 13002, 13115, 13166, 13128, 13062, 13234, 13010, 13041, 13036, 12922, 13046, 13092, 12936, 13025, 13177, 13030, 13049, 13204, 13048, 12982, 13165, 13081, 13059, 13137, 13173, 13181, 13097, 13224, 13100, 13165, 13190, 13018, 13036, 13015, 13067, 12977, 13054, 13125, 12971, 13092, 13061, 12979, 13102, 13157, 13008, 13049, 13015, 13043, 13016, 13065, 13066, 12992, 12934, 12963, 12834, 12844, 12917, 12872, 12784, 13009, 12916, 12895, 13001, 12956, 12898, 12897, 13099, 12943, 12953, 12982, 12975, 13049, 13070, 12927, 13078, 13069, 13025, 13048, 12993, 12897, 12913, 12967, 12877, 13013, 12888, 12905, 12896, 12786, 12833, 13012, 12974, 13000, 12897, 12937, 12817, 12875, 12937, 12791, 12946, 12933, 12765, 12896, 13009, 12874, 12896, 12859, 12841, 13036, 12972, 12926, 12804, 12902, 12783, 12743, 12813, 12696, 12813, 12850, 12790, 12719, 12817, 12892, 12902, 13060, 13011, 12731, 12864, 12955, 12851, 12785, 13002, 12729, 12692, 12938, 12901, 12793, 12891, 12789, 12780, 12868, 12869, 12810, 12858, 12808, 12880, 12706, 12896, 12749, 12743, 12727, 12722, 12657, 12677, 12779, 12543, 12642, 12798, 12753, 12607, 12816, 12716, 12726, 12560, 12726, 12658, 12584, 12678, 12650, 12562, 12716, 12694, 12610, 12812, 12747, 12703, 12696, 12563, 12470, 12612, 12626, 12539, 12590, 12500, 12293, 12218, 12587, 12435, 12521, 12472, 12391, 12502, 12369, 12273, 12453, 12579, 12437, 12474, 12587, 12492, 12372, 12473, 12320, 12326, 12424, 12274, 12394, 12428, 12393, 12333],
      "TriggerTime": [8100.0, 9100.0, 10100.0, 11100.0, 12100.0, 13100.0, 14100.0, 15100.0, 16100.0, 17100.0, 18100.0, 19100.0, 20100.0, 21100.0, 22100.0, 23100.0, 24100.0, 25100.0, 26100.0, 27100.0, 28100.0, 29100.0, 30100.0, 31100.0, 32100.0, 33100.0, 34100.0, 35100.0, 36100.0, 37100.0, 38100.0, 39100.0, 40100.0, 41100.0, 42100.0, 43100.0, 44100.0, 45100.0, 46100.0, 47100.0, 48100.0, 49100.0, 50100.0, 51100.0, 52100.0, 53100.0, 54100.0, 55100.0, 56100.0, 57100.0, 58100.0, 59100.0, 60100.0, 61100.0, 62100.0, 63100.0, 64100.0, 65100.0, 66100.0, 67100.0, 68100.0, 69100.0, 70100.0, 71100.0, 72100.0, 73100.0, 74100.0, 75100.0, 76100.0, 77100.0, 78100.0, 79100.0, 80100.0, 81100.0, 82100.0, 83100.0, 84100.0, 85100.0, 86100.0, 87100.0, 88100.0, 89100.0, 90100.0, 91100.0, 92100.0, 93100.0, 94100.0, 95100.0, 96100.0, 97100.0, 98100.0, 99100.0, 100100.0, 101100.0, 102100.0, 103100.0, 104100.0, 105100.0, 106100.0, 107100.0, 108100.0, 109100.0, 110100.0, 111100.0, 112100.0, 113100.0, 114100.0, 115100.0, 116100.0, 117100.0, 118100.0, 119100.0, 120100.0, 121100.0, 122100.0, 123100.0, 124100.0, 125100.0, 126100.0, 127100.0, 128100.0, 129100.0, 130100.0, 131100.0, 132100.0, 133100.0, 134100.0, 135100.0, 136100.0, 137100.0, 138100.0, 139100.0, 140100.0, 141100.0, 142100.0, 143100.0, 144100.0, 145100.0, 146100.0, 147100.0, 148100.0, 149100.0, 150100.0, 151100.0, 152100.0, 153100.0, 154100.0, 155100.0, 156100.0, 157100.0, 158100.0, 159100.0, 160100.0, 161100.0, 162100.0, 163100.0, 164100.0, 165100.0, 166100.0, 167100.0, 168100.0, 169100.0, 170100.0, 171100.0, 172100.0, 173100.0, 174100.0, 175100.0, 176100.0, 177100.0, 178100.0, 179100.0, 180100.0, 181100.0, 182100.0, 183100.0, 184100.0, 185100.0, 186100.0, 187100.0, 188100.0, 189100.0, 190100.0, 191100.0, 192100.0, 193100.0, 194100.0, 195100.0, 196100.0, 197100.0, 198100.0, 199100.0, 200100.0, 201100.0, 202100.0, 203100.0, 204100.0, 205100.0, 206100.0, 207100.0, 208100.0, 209100.0, 210100.0, 211100.0, 212100.0, 213100.0, 214100.0, 215100.0, 216100.0, 217100.0, 218100.0, 219100.0, 220100.0, 221100.0, 222100.0, 223100.0, 224100.0, 225100.0, 226100.0, 227100.0, 228100.0, 229100.0, 230100.0, 231100.0, 232100.0, 233100.0, 234100.0, 235100.0, 236100.0, 237100.0, 238100.0, 239100.0, 240100.0, 241100.0, 242100.0, 243100.0, 244100.0, 245100.0, 246100.0, 247100.0, 248100.0, 249100.0, 250100.0, 251100.0, 252100.0, 253100.0, 254100.0, 255100.0, 256100.0, 257100.0, 258100.0, 259100.0, 260100.0, 261100.0, 262100.0, 263100.0, 264100.0, 265100.0, 266100.0, 267100.0, 268100.0, 269100.0, 270100.0, 271100.0],
      "WindowCenter": [4506.0, 4482.0, 4477.0, 4479.0, 4476.0, 4475.0, 4475.0, 4475.0, 4480.0, 4482.0, 4481.0, 4491.0, 4493.0, 4491.0, 4490.0, 4493.0, 4489.0, 4490.0, 4490.0, 4489.0, 4489.0, 4489.0, 4502.0, 4491.0, 4489.0, 4504.0, 4501.0, 4504.0, 4505.0, 4510.0, 4511.0, 4504.0, 4509.0, 4507.0, 4504.0, 4508.0, 4504.0, 4505.0, 4518.0, 4506.0, 4505.0, 4518.0, 4517.0, 4516.0, 4508.0, 4516.0, 4510.0, 4506.0, 4507.0, 4504.0, 4503.0, 4507.0, 4505.0, 4505.0, 4506.0, 4505.0, 4506.0, 4504.0, 4493.0, 4492.0, 4501.0, 4491.0, 4494.0, 4491.0, 4492.0, 4491.0, 4492.0, 4489.0, 4490.0, 4489.0, 4488.0, 4487.0, 4491.0, 4478.0, 4487.0, 4487.0, 4491.0, 4487.0, 4491.0, 4495.0, 4505.0, 4494.0, 4494.0, 4492.0, 4491.0, 4494.0, 4487.0, 4475.0, 4488.0, 4488.0, 4491.0, 4489.0, 4490.0, 4493.0, 4491.0, 4494.0, 4491.0, 4492.0, 4495.0, 4491.0, 4492.0, 4493.0, 4491.0, 4494.0, 4494.0, 4501.0, 4491.0, 4491.0, 4493.0, 4482.0, 4480.0, 4492.0, 4494.0, 4492.0, 4493.0, 4490.0, 4493.0, 4505.0, 4494.0, 4495.0, 4496.0, 4507.0, 4496.0, 4493.0, 4495.0, 4493.0, 4504.0, 4504.0, 4495.0, 4494.0, 4503.0, 4502.0, 4493.0, 4494.0, 4491.0, 4492.0, 4492.0, 4493.0, 4503.0, 4494.0, 4496.0, 4508.0, 4494.0, 4494.0, 4504.0, 4505.0, 4492.0, 4494.0, 4493.0, 4491.0, 4495.0, 4492.0, 4482.0, 4482.0, 4481.0, 4479.0, 4479.0, 4491.0, 4480.0, 4489.0, 4492.0, 4492.0, 4492.0, 4493.0, 4484.0, 4490.0, 4494.0, 4481.0, 4480.0, 4479.0, 4475.0, 4478.0, 4478.0, 4480.0, 4479.0, 4480.0, 4482.0, 4478.0, 4488.0, 4492.0, 4479.0, 4479.0, 4481.0, 4482.0, 4483.0, 4494.0, 4494.0, 4491.0, 4480.0, 4478.0, 4480.0, 4481.0, 4478.0, 4478.0, 4478.0, 4484.0, 4482.0, 4491.0, 4493.0, 4491.0, 4480.0, 4480.0, 4479.0, 4481.0, 4483.0, 4490.0, 4480.0, 4483.0, 4494.0, 4481.0, 4482.0, 4493.0, 4482.0, 4480.0, 4479.0, 4480.0, 4476.0, 4465.0, 4463.0, 4465.0, 4466.0, 4477.0, 4481.0, 4479.0, 4490.0, 4484.0, 4483.0, 4480.0, 4479.0, 4477.0, 4480.0, 4480.0, 4481.0, 4482.0, 4482.0, 4481.0, 4486.0, 4482.0, 4471.0, 4480.0, 4484.0, 4485.0, 4483.0, 4486.0, 4480.0, 4483.0, 4480.0, 4482.0, 4485.0, 4487.0, 4481.0, 4484.0, 4483.0, 4483.0, 4469.0, 4481.0, 4469.0, 4469.0, 4471.0, 4457.0, 4465.0, 4466.0, 4465.0, 4468.0],
