{
  "AcquisitionMatrixPE": 106,
  "AcquisitionNumber": 1,
  "AcquisitionTime": "19:39:15.207500",
  "BandwidthPerPixelPhaseEncode": 13.477,
  "BaseResolution": 106,
  "BodyPartExamined": "BRAIN",
  "CoilCombinationMethod": "Sum of Squares",
  "ConsistencyInfo": "N4_VE11C_LATEST_20160120",
  "ConversionSoftware": "dcm2niix",
  "ConversionSoftwareVersion": "v1.0.20220720",
  "DerivedVendorReportedEchoSpacing": 0.000700005,
  "DeviceSerialNumber": "166108",
  "DwellTime": 2.6e-06,
  "EchoTime": 0.03,
  "EchoTrainLength": 80,
  "EffectiveEchoSpacing": 0.000700005,
  "FlipAngle": 62,
  "HeudiconvVersion": "1.3.0",
  "ImageComments": "Unaliased MB4/PE3/LB",
  "ImageOrientationPatientDICOM": [1, 0, 0, 0, 0.921185, -0.389124],
  "ImageOrientationText": "Tra>Cor(-22.9)",
  "ImageType": [
    "ORIGINAL",
    "PRIMARY",
    "M",
    "MB",
    "ND",
    "MOSAIC"
],
  "ImagingFrequency": 123.244,
  "InPlanePhaseEncodingDirectionDICOM": "COL",
  "InstitutionAddress": "Bedford Way 26,London,London,GB,WC1H 0AP",
  "InstitutionName": "University College",
  "InstitutionalDepartmentName": "Department",
  "MRAcquisitionType": "2D",
  "MagneticFieldStrength": 3,
  "Manufacturer": "Siemens",
  "ManufacturersModelName": "Prisma",
  "MatrixCoilMode": "SENSE",
  "Modality": "MR",
  "MultibandAccelerationFactor": 4,
  "NonlinearGradientCorrection": false,
  "PartialFourier": 0.75,
  "PatientPosition": "HFS",
  "PercentPhaseFOV": 100,
  "PercentSampling": 100,
  "PhaseEncodingDirection": "j-",
  "PhaseEncodingSteps": 80,
  "PhaseResolution": 1,
  "PixelBandwidth": 1815,
  "ProcedureStepDescription": "Egor^MovieProject2",
  "ProtocolName": "func-bold_task-tono_run-02",
  "PulseSequenceDetails": "%CustomerSeq%\\cmrr_mbep2d_bold",
  "ReceiveCoilActiveElements": "HEA;HEP",
  "ReceiveCoilName": "Head_32",
  "ReconMatrixPE": 106,
  "RepetitionTime": 1,
  "SAR": 0.042922,
  "ScanOptions": "PFP\\FS\\EXT",
  "ScanningSequence": "EP",
  "SequenceName": "epfid2d1_106",
  "SequenceVariant": "SK\\SS",
  "SeriesDescription": "func-bold_task-tono_run-02",
  "SeriesNumber": 20,
  "ShimSetting": [-1577, 670, 7410, 342, -48, 248, 119, -23],
  "SliceThickness": 2,
  "SliceTiming": [0, 0.5325, 0.0875, 0.6225, 0.1775, 0.7125, 0.265, 0.8, 0.355, 0.89, 0.445, 0, 0.5325, 0.0875, 0.6225, 0.1775, 0.7125, 0.265, 0.8, 0.355, 0.89, 0.445, 0, 0.5325, 0.0875, 0.6225, 0.1775, 0.7125, 0.265, 0.8, 0.355, 0.89, 0.445, 0, 0.5325, 0.0875, 0.6225, 0.1775, 0.7125, 0.265, 0.8, 0.355, 0.89, 0.445],
  "SoftwareVersions": "syngo MR E11",
  "SpacingBetweenSlices": 2,
  "StationName": "AWP166108",
  "TaskName": "tonotopy",
  "TotalReadoutTime": 0.0735005,
  "TxRefAmp": 244.62,
  "WipMemBlock": "8c4fcf0a-c941-490a-8724-059af0157051||Sequence: R016 ve11c/master r/e634e98; Dec 19 2017 11:00:25 by eja",
  "dcmmeta_affine": [
    [-2.0, 0.0, 0.0, 106.0],
    [0.0, 1.842370867729187, -0.7782478928565979, -74.1988754272461],
    [0.0, 0.7782478928565979, 1.842370867729187, -71.11659240722656],
    [0.0, 0.0, 0.0, 1.0]
],
  "dcmmeta_reorient_transform": [
    [0.0, -1.0, 0.0, 105.0],
    [1.0, 0.0, 0.0, 0.0],
    [0.0, 0.0, 1.0, 0.0],
    [0.0, 0.0, 0.0, 1.0]
],
  "dcmmeta_shape": [106, 106, 44, 264],
  "dcmmeta_slice_dim": 2,
  "dcmmeta_version": 0.6,
  "global": {
    "const": {
      "AcquisitionMatrix": [106, 0, 0, 106],
      "AngioFlag": "N",
      "BitsAllocated": 16,
      "BitsStored": 16,
      "BodyPartExamined": "BRAIN",
      "CardiacNumberOfImages": 1,
      "Columns": 742,
      "EchoNumbers": 1,
      "EchoTime": 30.0,
      "EchoTrainLength": 80,
      "FlipAngle": 62.0,
      "HighBit": 15,
      "ImageOrientationPatient": [1.0, 0.0, 0.0, 0.0, 0.92118540965409, -0.3891239404617],
      "ImagePositionPatient": [-742.0, -705.12398222749, 258.08226255914],
      "ImageType": [
        "ORIGINAL",
        "PRIMARY",
        "M",
        "MB",
        "ND",
        "MOSAIC"
],
      "ImagedNucleus": "1H",
      "ImagingFrequency": 123.243661,
      "InPlanePhaseEncodingDirection": "COL",
      "MRAcquisitionType": "2D",
      "MagneticFieldStrength": 3.0,
      "Manufacturer": "SIEMENS",
      "ManufacturerModelName": "Prisma",
      "Modality": "MR",
      "NominalInterval": 0,
      "NumberOfAverages": 1.0,
      "NumberOfPhaseEncodingSteps": 80,
      "PercentPhaseFieldOfView": 100.0,
      "PercentSampling": 100.0,
      "PerformedProcedureStepStartTime": "182138.729000",
      "PhotometricInterpretation": "MONOCHROME2",
      "PixelBandwidth": 1815.0,
      "PixelRepresentation": 0,
      "PixelSpacing": [2.0, 2.0],
      "ProtocolName": "func-bold_task-tono_run-02",
      "RepetitionTime": 1000.0,
      "Rows": 742,
      "SAR": 0.04292202049112,
      "SamplesPerPixel": 1,
      "ScanOptions": [
        "PFP",
        "FS",
        "EXT"
],
      "ScanningSequence": "EP",
      "SequenceName": "epfid2d1_106",
      "SequenceVariant": [
        "SK",
        "SS"
],
      "SeriesDescription": "func-bold_task-tono_run-02",
      "SeriesNumber": 20,
      "SeriesTime": "193945.959000",
      "SliceLocation": -36.6390077184,
      "SliceThickness": 2.0,
      "SmallestImagePixelValue": 0,
      "SoftwareVersions": "syngo MR E11",
      "SpacingBetweenSlices": 2.0000000305459,
      "SpecificCharacterSet": "ISO_IR 100",
      "StudyID": "1",
      "StudyTime": "182138.589000",
      "TransmitCoilName": "Body",
      "VariableFlipAngleFlag": "N",
      "WindowCenterWidthExplanation": "Algo1",
      "dBdt": 0.0},
    "slices": {}
  },
  "time": {
    "samples": {
      "AcquisitionNumber": [1, 2, 3, 4, 5, 6, 7, 8, 9, 10, 11, 12, 13, 14, 15, 16, 17, 18, 19, 20, 21, 22, 23, 24, 25, 26, 27, 28, 29, 30, 31, 32, 33, 34, 35, 36, 37, 38, 39, 40, 41, 42, 43, 44, 45, 46, 47, 48, 49, 50, 51, 52, 53, 54, 55, 56, 57, 58, 59, 60, 61, 62, 63, 64, 65, 66, 67, 68, 69, 70, 71, 72, 73, 74, 75, 76, 77, 78, 79, 80, 81, 82, 83, 84, 85, 86, 87, 88, 89, 90, 91, 92, 93, 94, 95, 96, 97, 98, 99, 100, 101, 102, 103, 104, 105, 106, 107, 108, 109, 110, 111, 112, 113, 114, 115, 116, 117, 118, 119, 120, 121, 122, 123, 124, 125, 126, 127, 128, 129, 130, 131, 132, 133, 134, 135, 136, 137, 138, 139, 140, 141, 142, 143, 144, 145, 146, 147, 148, 149, 150, 151, 152, 153, 154, 155, 156, 157, 158, 159, 160, 161, 162, 163, 164, 165, 166, 167, 168, 169, 170, 171, 172, 173, 174, 175, 176, 177, 178, 179, 180, 181, 182, 183, 184, 185, 186, 187, 188, 189, 190, 191, 192, 193, 194, 195, 196, 197, 198, 199, 200, 201, 202, 203, 204, 205, 206, 207, 208, 209, 210, 211, 212, 213, 214, 215, 216, 217, 218, 219, 220, 221, 222, 223, 224, 225, 226, 227, 228, 229, 230, 231, 232, 233, 234, 235, 236, 237, 238, 239, 240, 241, 242, 243, 244, 245, 246, 247, 248, 249, 250, 251, 252, 253, 254, 255, 256, 257, 258, 259, 260, 261, 262, 263, 264],
      "AcquisitionTime": ["193915.207500", "193916.207500", "193917.207500", "193918.207500", "193919.207500", "193920.207500", "193921.207500", "193922.207500", "193923.207500", "193924.207500", "193925.207500", "193926.207500", "193927.207500", "193928.207500", "193929.207500", "193930.207500", "193931.207500", "193932.207500", "193933.207500", "193934.207500", "193935.207500", "193936.207500", "193937.207500", "193938.207500", "193939.207500", "193940.207500", "193941.207500", "193942.207500", "193943.207500", "193944.207500", "193945.207500", "193946.207500", "193947.207500", "193948.207500", "193949.207500", "193950.207500", "193951.207500", "193952.207500", "193953.207500", "193954.207500", "193955.207500", "193956.207500", "193957.207500", "193958.207500", "193959.207500", "194000.207500", "194001.207500", "194002.207500", "194003.207500", "194004.207500", "194005.207500", "194006.207500", "194007.207500", "194008.207500", "194009.207500", "194010.207500", "194011.207500", "194012.207500", "194013.207500", "194014.207500", "194015.207500", "194016.207500", "194017.207500", "194018.207500", "194019.207500", "194020.207500", "194021.207500", "194022.207500", "194023.207500", "194024.207500", "194025.207500", "194026.207500", "194027.207500", "194028.207500", "194029.207500", "194030.207500", "194031.207500", "194032.207500", "194033.207500", "194034.207500", "194035.207500", "194036.207500", "194037.207500", "194038.207500", "194039.207500", "194040.207500", "194041.207500", "194042.207500", "194043.207500", "194044.207500", "194045.207500", "194046.207500", "194047.207500", "194048.207500", "194049.207500", "194050.207500", "194051.207500", "194052.207500", "194053.207500", "194054.207500", "194055.207500", "194056.207500", "194057.207500", "194058.207500", "194059.207500", "194100.207500", "194101.207500", "194102.207500", "194103.207500", "194104.207500", "194105.207500", "194106.207500", "194107.207500", "194108.207500", "194109.207500", "194110.207500", "194111.207500", "194112.207500", "194113.207500", "194114.207500", "194115.207500", "194116.207500", "194117.207500", "194118.207500", "194119.207500", "194120.207500", "194121.207500", "194122.207500", "194123.207500", "194124.207500", "194125.207500", "194126.207500", "194127.207500", "194128.207500", "194129.207500", "194130.207500", "194131.207500", "194132.207500", "194133.207500", "194134.207500", "194135.207500", "194136.207500", "194137.207500", "194138.207500", "194139.207500", "194140.207500", "194141.207500", "194142.207500", "194143.207500", "194144.207500", "194145.207500", "194146.207500", "194147.207500", "194148.207500", "194149.207500", "194150.207500", "194151.207500", "194152.207500", "194153.207500", "194154.207500", "194155.207500", "194156.207500", "194157.207500", "194158.207500", "194159.207500", "194200.207500", "194201.207500", "194202.207500", "194203.207500", "194204.207500", "194205.207500", "194206.207500", "194207.207500", "194208.207500", "194209.207500", "194210.207500", "194211.207500", "194212.207500", "194213.207500", "194214.207500", "194215.207500", "194216.207500", "194217.207500", "194218.207500", "194219.207500", "194220.207500", "194221.207500", "194222.207500", "194223.207500", "194224.207500", "194225.207500", "194226.207500", "194227.207500", "194228.207500", "194229.207500", "194230.207500", "194231.207500", "194232.207500", "194233.207500", "194234.207500", "194235.207500", "194236.207500", "194237.207500", "194238.207500", "194239.207500", "194240.207500", "194241.207500", "194242.207500", "194243.207500", "194244.207500", "194245.207500", "194246.207500", "194247.207500", "194248.207500", "194249.207500", "194250.207500", "194251.207500", "194252.207500", "194253.207500", "194254.207500", "194255.207500", "194256.207500", "194257.207500", "194258.207500", "194259.207500", "194300.207500", "194301.207500", "194302.207500", "194303.207500", "194304.207500", "194305.207500", "194306.207500", "194307.207500", "194308.207500", "194309.207500", "194310.207500", "194311.207500", "194312.207500", "194313.207500", "194314.207500", "194315.207500", "194316.207500", "194317.207500", "194318.207500", "194319.207500", "194320.207500", "194321.207500", "194322.207500", "194323.207500", "194324.207500", "194325.207500", "194326.207500", "194327.207500", "194328.207500", "194329.207500", "194330.207500", "194331.207500", "194332.207500", "194333.207500", "194334.207500", "194335.207500", "194336.207500", "194337.207500", "194338.207500"],
      "ContentTime": ["193945.961000", "193945.965000", "193945.979000", "193945.982000", "193945.984000", "193945.987000", "193945.989000", "193945.992000", "193945.994000", "193945.997000", "193946.000000", "193946.003000", "193946.005000", "193946.008000", "193946.011000", "193946.014000", "193946.016000", "193946.019000", "193946.021000", "193946.024000", "193946.026000", "193946.029000", "193946.031000", "193946.034000", "193946.036000", "193946.038000", "193946.041000", "193946.044000", "193946.046000", "194005.939000", "194005.942000", "194005.944000", "194005.947000", "194005.949000", "194005.952000", "194005.955000", "194005.958000", "194005.960000", "194005.963000", "194005.966000", "194005.969000", "194005.978000", "194005.981000", "194005.983000", "194005.986000", "194005.988000", "194005.991000", "194005.993000", "194005.995000", "194025.939000", "194025.942000", "194025.945000", "194025.947000", "194025.949000", "194025.952000", "194025.954000", "194025.957000", "194025.959000", "194025.961000", "194025.964000", "194025.966000", "194025.969000", "194025.971000", "194025.974000", "194025.977000", "194025.980000", "194025.983000", "194025.985000", "194025.988000", "194045.940000", "194045.942000", "194045.945000", "194045.947000", "194045.950000", "194045.952000", "194045.955000", "194045.958000", "194045.961000", "194045.964000", "194045.966000", "194045.969000", "194045.972000", "194045.975000", "194045.977000", "194045.979000", "194045.982000", "194045.984000", "194045.987000", "194045.989000", "194105.938000", "194105.941000", "194105.943000", "194105.946000", "194105.948000", "194105.951000", "194105.953000", "194105.956000", "194105.958000", "194105.961000", "194105.964000", "194105.967000", "194105.969000", "194105.972000", "194105.975000", "194105.977000", "194105.980000", "194105.982000", "194105.985000", "194105.987000", "194125.939000", "194125.941000", "194125.944000", "194125.946000", "194125.949000", "194125.951000", "194125.954000", "194125.957000", "194125.960000", "194125.963000", "194125.966000", "194125.969000", "194125.971000", "194125.974000", "194125.976000", "194125.979000", "194125.981000", "194125.983000", "194125.986000", "194125.988000", "194145.938000", "194145.941000", "194145.944000", "194145.946000", "194145.949000", "194145.951000", "194145.953000", "194145.956000", "194145.958000", "194145.961000", "194145.964000", "194145.967000", "194145.969000", "194145.972000", "194145.975000", "194145.977000", "194145.980000", "194145.982000", "194145.985000", "194145.987000", "194205.939000", "194205.941000", "194205.944000", "194205.946000", "194205.949000", "194205.951000", "194205.954000", "194205.957000", "194205.960000", "194205.962000", "194205.965000", "194205.968000", "194205.971000", "194205.973000", "194205.976000", "194205.978000", "194205.981000", "194205.983000", "194205.986000", "194205.988000", "194225.939000", "194225.942000", "194225.944000", "194225.947000", "194225.949000", "194225.952000", "194225.954000", "194225.957000", "194225.960000", "194225.962000", "194225.965000", "194225.967000", "194225.970000", "194225.973000", "194225.975000", "194225.978000", "194225.980000", "194225.983000", "194225.985000", "194225.988000", "194245.939000", "194245.942000", "194245.944000", "194245.947000", "194245.949000", "194245.952000", "194245.954000", "194245.957000", "194245.960000", "194245.963000", "194245.965000", "194245.968000", "194245.971000", "194245.973000", "194245.976000", "194245.978000", "194245.981000", "194245.983000", "194245.986000", "194245.988000", "194305.940000", "194305.942000", "194305.945000", "194305.947000", "194305.950000", "194305.952000", "194305.955000", "194305.957000", "194305.960000", "194305.962000", "194305.965000", "194305.968000", "194305.971000", "194305.973000", "194305.976000", "194305.978000", "194305.981000", "194305.983000", "194305.986000", "194305.988000", "194325.979000", "194325.981000", "194325.984000", "194325.986000", "194325.989000", "194325.991000", "194325.994000", "194325.996000", "194326.000000", "194326.002000", "194326.004000", "194326.007000", "194326.009000", "194326.012000", "194326.014000", "194326.017000", "194326.019000", "194326.022000", "194326.024000", "194326.027000", "194340.022000", "194340.025000", "194340.028000", "194340.031000", "194340.034000", "194340.037000", "194340.040000", "194340.042000", "194340.045000", "194340.048000", "194340.051000", "194340.053000", "194340.056000", "194340.059000", "194340.062000"],
      "InstanceCreationTime": ["193945.961000", "193945.965000", "193945.979000", "193945.982000", "193945.984000", "193945.987000", "193945.989000", "193945.992000", "193945.994000", "193945.997000", "193946.000000", "193946.003000", "193946.005000", "193946.008000", "193946.011000", "193946.014000", "193946.016000", "193946.019000", "193946.021000", "193946.024000", "193946.026000", "193946.029000", "193946.031000", "193946.034000", "193946.036000", "193946.038000", "193946.041000", "193946.044000", "193946.046000", "194005.939000", "194005.942000", "194005.944000", "194005.947000", "194005.949000", "194005.952000", "194005.955000", "194005.958000", "194005.960000", "194005.963000", "194005.966000", "194005.969000", "194005.978000", "194005.981000", "194005.983000", "194005.986000", "194005.988000", "194005.991000", "194005.993000", "194005.995000", "194025.939000", "194025.942000", "194025.945000", "194025.947000", "194025.949000", "194025.952000", "194025.954000", "194025.957000", "194025.959000", "194025.961000", "194025.964000", "194025.966000", "194025.969000", "194025.971000", "194025.974000", "194025.977000", "194025.980000", "194025.983000", "194025.985000", "194025.988000", "194045.940000", "194045.942000", "194045.945000", "194045.947000", "194045.950000", "194045.952000", "194045.955000", "194045.958000", "194045.961000", "194045.964000", "194045.966000", "194045.969000", "194045.972000", "194045.975000", "194045.977000", "194045.979000", "194045.982000", "194045.984000", "194045.987000", "194045.989000", "194105.938000", "194105.941000", "194105.943000", "194105.946000", "194105.948000", "194105.951000", "194105.953000", "194105.956000", "194105.958000", "194105.961000", "194105.964000", "194105.967000", "194105.969000", "194105.972000", "194105.975000", "194105.977000", "194105.980000", "194105.982000", "194105.985000", "194105.987000", "194125.939000", "194125.941000", "194125.944000", "194125.946000", "194125.949000", "194125.951000", "194125.954000", "194125.957000", "194125.960000", "194125.963000", "194125.966000", "194125.969000", "194125.971000", "194125.974000", "194125.976000", "194125.979000", "194125.981000", "194125.983000", "194125.986000", "194125.988000", "194145.938000", "194145.941000", "194145.944000", "194145.946000", "194145.949000", "194145.951000", "194145.953000", "194145.956000", "194145.958000", "194145.961000", "194145.964000", "194145.967000", "194145.969000", "194145.972000", "194145.975000", "194145.977000", "194145.980000", "194145.982000", "194145.985000", "194145.987000", "194205.939000", "194205.941000", "194205.944000", "194205.946000", "194205.949000", "194205.951000", "194205.954000", "194205.957000", "194205.960000", "194205.962000", "194205.965000", "194205.968000", "194205.971000", "194205.973000", "194205.976000", "194205.978000", "194205.981000", "194205.983000", "194205.986000", "194205.988000", "194225.939000", "194225.942000", "194225.944000", "194225.947000", "194225.949000", "194225.952000", "194225.954000", "194225.957000", "194225.960000", "194225.962000", "194225.965000", "194225.967000", "194225.970000", "194225.973000", "194225.975000", "194225.978000", "194225.980000", "194225.983000", "194225.985000", "194225.988000", "194245.939000", "194245.942000", "194245.944000", "194245.947000", "194245.949000", "194245.952000", "194245.954000", "194245.957000", "194245.960000", "194245.963000", "194245.965000", "194245.968000", "194245.971000", "194245.973000", "194245.976000", "194245.978000", "194245.981000", "194245.983000", "194245.986000", "194245.988000", "194305.940000", "194305.942000", "194305.945000", "194305.947000", "194305.950000", "194305.952000", "194305.955000", "194305.957000", "194305.960000", "194305.962000", "194305.965000", "194305.968000", "194305.971000", "194305.973000", "194305.976000", "194305.978000", "194305.981000", "194305.983000", "194305.986000", "194305.988000", "194325.979000", "194325.981000", "194325.984000", "194325.986000", "194325.989000", "194325.991000", "194325.994000", "194325.996000", "194326.000000", "194326.002000", "194326.004000", "194326.007000", "194326.009000", "194326.012000", "194326.014000", "194326.017000", "194326.019000", "194326.022000", "194326.024000", "194326.027000", "194340.022000", "194340.025000", "194340.028000", "194340.031000", "194340.034000", "194340.037000", "194340.040000", "194340.042000", "194340.045000", "194340.048000", "194340.051000", "194340.053000", "194340.056000", "194340.059000", "194340.062000"],
      "InstanceNumber": [1, 2, 3, 4, 5, 6, 7, 8, 9, 10, 11, 12, 13, 14, 15, 16, 17, 18, 19, 20, 21, 22, 23, 24, 25, 26, 27, 28, 29, 30, 31, 32, 33, 34, 35, 36, 37, 38, 39, 40, 41, 42, 43, 44, 45, 46, 47, 48, 49, 50, 51, 52, 53, 54, 55, 56, 57, 58, 59, 60, 61, 62, 63, 64, 65, 66, 67, 68, 69, 70, 71, 72, 73, 74, 75, 76, 77, 78, 79, 80, 81, 82, 83, 84, 85, 86, 87, 88, 89, 90, 91, 92, 93, 94, 95, 96, 97, 98, 99, 100, 101, 102, 103, 104, 105, 106, 107, 108, 109, 110, 111, 112, 113, 114, 115, 116, 117, 118, 119, 120, 121, 122, 123, 124, 125, 126, 127, 128, 129, 130, 131, 132, 133, 134, 135, 136, 137, 138, 139, 140, 141, 142, 143, 144, 145, 146, 147, 148, 149, 150, 151, 152, 153, 154, 155, 156, 157, 158, 159, 160, 161, 162, 163, 164, 165, 166, 167, 168, 169, 170, 171, 172, 173, 174, 175, 176, 177, 178, 179, 180, 181, 182, 183, 184, 185, 186, 187, 188, 189, 190, 191, 192, 193, 194, 195, 196, 197, 198, 199, 200, 201, 202, 203, 204, 205, 206, 207, 208, 209, 210, 211, 212, 213, 214, 215, 216, 217, 218, 219, 220, 221, 222, 223, 224, 225, 226, 227, 228, 229, 230, 231, 232, 233, 234, 235, 236, 237, 238, 239, 240, 241, 242, 243, 244, 245, 246, 247, 248, 249, 250, 251, 252, 253, 254, 255, 256, 257, 258, 259, 260, 261, 262, 263, 264],
      "LargestImagePixelValue": [12720, 12488, 12404, 12118, 12174, 12458, 12101, 11872, 12176, 12206, 12130, 12343, 12437, 12205, 12310, 12208, 12079, 12218, 12140, 12075, 12268, 12270, 12011, 12169, 12422, 11963, 12183, 12586, 12227, 12055, 12367, 12405, 12032, 12366, 12077, 12007, 12349, 12079, 12021, 12401, 12140, 12058, 12391, 12075, 12127, 12503, 12279, 12167, 12517, 12240, 12061, 12371, 12247, 11952, 12155, 12227, 11934, 12136, 12320, 12045, 12166, 12360, 12063, 12104, 12459, 12247, 12390, 12392, 12183, 12273, 12342, 12031, 12053, 12317, 12049, 12162, 12427, 12127, 12087, 12452, 12146, 11967, 12516, 12115, 12154, 12368, 12318, 12098, 12232, 12285, 12194, 12153, 12504, 12207, 12159, 12424, 12117, 12033, 12485, 12359, 12187, 12424, 12297, 12164, 12166, 12291, 12130, 12210, 12516, 12275, 12028, 12358, 12330, 12171, 12313, 12344, 12068, 12384, 12365, 12158, 12349, 12410, 12229, 12220, 12477, 12257, 12101, 12383, 12226, 12106, 12313, 12237, 12179, 12451, 12394, 12172, 12346, 12447, 12205, 12295, 12431, 12240, 12335, 12412, 12162, 12328, 12516, 12220, 12331, 12346, 12203, 12343, 12305, 12001, 12332, 12519, 12259, 12141, 12491, 12308, 12145, 12386, 12177, 12141, 12337, 12338, 12202, 12469, 12413, 12138, 12313, 12575, 12258, 12388, 12527, 12283, 12228, 12505, 12294, 12192, 12528, 12323, 12240, 12408, 12411, 12237, 12335, 12579, 12322, 12204, 12509, 12289, 12290, 12506, 12270, 12181, 12347, 12440, 12403, 12438, 12537, 12299, 12351, 12650, 12269, 12280, 12578, 12351, 12222, 12497, 12430, 12338, 12648, 12427, 12474, 12577, 12495, 12316, 12456, 12467, 12420, 12536, 12459, 12436, 12497, 12726, 12478, 12327, 12562, 12369, 12492, 12682, 12316, 12425, 12705, 12463, 12375, 12651, 12542, 12391, 12657, 12524, 12220, 12721, 12693, 12437, 12666, 12609, 12400, 12636, 12556, 12329, 12482, 12558, 12269, 12407, 12705, 12480, 12307, 12612, 12445, 12395, 12694, 12488],
      "TriggerTime": [8100.0, 9100.0, 10100.0, 11100.0, 12100.0, 13100.0, 14100.0, 15100.0, 16100.0, 17100.0, 18100.0, 19100.0, 20100.0, 21100.0, 22100.0, 23100.0, 24100.0, 25100.0, 26100.0, 27100.0, 28100.0, 29100.0, 30100.0, 31100.0, 32100.0, 33100.0, 34100.0, 35100.0, 36100.0, 37100.0, 38100.0, 39100.0, 40100.0, 41100.0, 42100.0, 43100.0, 44100.0, 45100.0, 46100.0, 47100.0, 48100.0, 49100.0, 50100.0, 51100.0, 52100.0, 53100.0, 54100.0, 55100.0, 56100.0, 57100.0, 58100.0, 59100.0, 60100.0, 61100.0, 62100.0, 63100.0, 64100.0, 65100.0, 66100.0, 67100.0, 68100.0, 69100.0, 70100.0, 71100.0, 72100.0, 73100.0, 74100.0, 75100.0, 76100.0, 77100.0, 78100.0, 79100.0, 80100.0, 81100.0, 82100.0, 83100.0, 84100.0, 85100.0, 86100.0, 87100.0, 88100.0, 89100.0, 90100.0, 91100.0, 92100.0, 93100.0, 94100.0, 95100.0, 96100.0, 97100.0, 98100.0, 99100.0, 100100.0, 101100.0, 102100.0, 103100.0, 104100.0, 105100.0, 106100.0, 107100.0, 108100.0, 109100.0, 110100.0, 111100.0, 112100.0, 113100.0, 114100.0, 115100.0, 116100.0, 117100.0, 118100.0, 119100.0, 120100.0, 121100.0, 122100.0, 123100.0, 124100.0, 125100.0, 126100.0, 127100.0, 128100.0, 129100.0, 130100.0, 131100.0, 132100.0, 133100.0, 134100.0, 135100.0, 136100.0, 137100.0, 138100.0, 139100.0, 140100.0, 141100.0, 142100.0, 143100.0, 144100.0, 145100.0, 146100.0, 147100.0, 148100.0, 149100.0, 150100.0, 151100.0, 152100.0, 153100.0, 154100.0, 155100.0, 156100.0, 157100.0, 158100.0, 159100.0, 160100.0, 161100.0, 162100.0, 163100.0, 164100.0, 165100.0, 166100.0, 167100.0, 168100.0, 169100.0, 170100.0, 171100.0, 172100.0, 173100.0, 174100.0, 175100.0, 176100.0, 177100.0, 178100.0, 179100.0, 180100.0, 181100.0, 182100.0, 183100.0, 184100.0, 185100.0, 186100.0, 187100.0, 188100.0, 189100.0, 190100.0, 191100.0, 192100.0, 193100.0, 194100.0, 195100.0, 196100.0, 197100.0, 198100.0, 199100.0, 200100.0, 201100.0, 202100.0, 203100.0, 204100.0, 205100.0, 206100.0, 207100.0, 208100.0, 209100.0, 210100.0, 211100.0, 212100.0, 213100.0, 214100.0, 215100.0, 216100.0, 217100.0, 218100.0, 219100.0, 220100.0, 221100.0, 222100.0, 223100.0, 224100.0, 225100.0, 226100.0, 227100.0, 228100.0, 229100.0, 230100.0, 231100.0, 232100.0, 233100.0, 234100.0, 235100.0, 236100.0, 237100.0, 238100.0, 239100.0, 240100.0, 241100.0, 242100.0, 243100.0, 244100.0, 245100.0, 246100.0, 247100.0, 248100.0, 249100.0, 250100.0, 251100.0, 252100.0, 253100.0, 254100.0, 255100.0, 256100.0, 257100.0, 258100.0, 259100.0, 260100.0, 261100.0, 262100.0, 263100.0, 264100.0, 265100.0, 266100.0, 267100.0, 268100.0, 269100.0, 270100.0, 271100.0],
      "WindowCenter": [4478.0, 4468.0, 4453.0, 4449.0, 4452.0, 4449.0, 4450.0, 4442.0, 4452.0, 4456.0, 4465.0, 4466.0, 4477.0, 4466.0, 4477.0, 4469.0, 4470.0, 4465.0, 4469.0, 4467.0, 4466.0, 4469.0, 4482.0, 4481.0, 4492.0, 4480.0, 4483.0, 4491.0, 4480.0, 4485.0, 4492.0, 4497.0, 4492.0, 4503.0, 4497.0, 4495.0, 4507.0, 4495.0, 4485.0, 4494.0, 4483.0, 4493.0, 4496.0, 4494.0, 4495.0, 4492.0, 4483.0, 4481.0, 4494.0, 4485.0, 4483.0, 4482.0, 4481.0, 4467.0, 4469.0, 4469.0, 4466.0, 4479.0, 4492.0, 4482.0, 4483.0, 4494.0, 4484.0, 4484.0, 4483.0, 4479.0, 4481.0, 4476.0, 4466.0, 4467.0, 4477.0, 4468.0, 4469.0, 4466.0, 4468.0, 4476.0, 4493.0, 4482.0, 4485.0, 4497.0, 4481.0, 4469.0, 4482.0, 4477.0, 4479.0, 4480.0, 4478.0, 4480.0, 4478.0, 4482.0, 4481.0, 4481.0, 4493.0, 4480.0, 4483.0, 4482.0, 4480.0, 4479.0, 4479.0, 4482.0, 4482.0, 4478.0, 4481.0, 4478.0, 4479.0, 4480.0, 4484.0, 4478.0, 4481.0, 4479.0, 4480.0, 4480.0, 4481.0, 4480.0, 4478.0, 4479.0, 4481.0, 4491.0, 4478.0, 4482.0, 4492.0, 4495.0, 4484.0, 4486.0, 4495.0, 4482.0, 4481.0, 4494.0, 4483.0, 4480.0, 4484.0, 4481.0, 4482.0, 4496.0, 4493.0, 4481.0, 4498.0, 4492.0, 4486.0, 4482.0, 4493.0, 4479.0, 4493.0, 4493.0, 4481.0, 4482.0, 4481.0, 4483.0, 4493.0, 4496.0, 4483.0, 4494.0, 4482.0, 4480.0, 4493.0, 4480.0, 4480.0, 4481.0, 4493.0, 4481.0, 4481.0, 4493.0, 4480.0, 4486.0, 4498.0, 4482.0, 4483.0, 4493.0, 4492.0, 4481.0, 4496.0, 4493.0, 4484.0, 4494.0, 4493.0, 4481.0, 4484.0, 4479.0, 4480.0, 4482.0, 4480.0, 4478.0, 4480.0, 4479.0, 4478.0, 4481.0, 4495.0, 4491.0, 4494.0, 4486.0, 4493.0, 4483.0, 4479.0, 4484.0, 4485.0, 4481.0, 4491.0, 4481.0, 4479.0, 4481.0, 4482.0, 4480.0, 4480.0, 4506.0, 4487.0, 4481.0, 4482.0, 4483.0, 4480.0, 4479.0, 4485.0, 4481.0, 4491.0, 4482.0, 4480.0, 4480.0, 4478.0, 4479.0, 4492.0, 4495.0, 4496.0, 4497.0, 4497.0, 4495.0, 4493.0, 4493.0, 4482.0, 4491.0, 4493.0, 4483.0, 4492.0, 4495.0, 4484.0, 4493.0, 4494.0, 4490.0, 4494.0, 4492.0, 4492.0, 4493.0, 4506.0, 4495.0, 4486.0, 4494.0, 4492.0, 4482.0, 4491.0, 4478.0, 4481.0, 4481.0, 4480.0, 4479.0, 4495.0, 4491.0, 4483.0, 4491.0, 4492.0, 4483.0, 4482.0, 4479.0, 4480.0, 4485.0, 4491.0, 4484.0],
