{
  "AcquisitionMatrixPE": 106,
  "AcquisitionNumber": 1,
  "AcquisitionTime": "19:17:32.262500",
  "BandwidthPerPixelPhaseEncode": 16.846,
  "BaseResolution": 106,
  "BodyPartExamined": "BRAIN",
  "CoilCombinationMethod": "Sum of Squares",
  "ConsistencyInfo": "N4_VE11C_LATEST_20160120",
  "ConversionSoftware": "dcm2niix",
  "ConversionSoftwareVersion": "v1.0.20220720",
  "DerivedVendorReportedEchoSpacing": 0.000560012,
  "DeviceSerialNumber": "166108",
  "DwellTime": 1.8e-06,
  "EchoTime": 0.0352,
  "EchoTrainLength": 106,
  "EffectiveEchoSpacing": 0.000560012,
  "FlipAngle": 60,
  "HeudiconvVersion": "1.3.0",
  "ImageComments": "Unaliased MB4/PE3/LB",
  "ImageOrientationPatientDICOM": [1, 0, 0, 0, 0.941471, -0.337095],
  "ImageOrientationText": "Tra>Cor(-19.7)",
  "ImageType": [
    "ORIGINAL",
    "PRIMARY",
    "M",
    "MB",
    "ND",
    "MOSAIC"
],
  "ImagingFrequency": 123.244,
  "InPlanePhaseEncodingDirectionDICOM": "COL",
  "InstitutionAddress": "Bedford Way 26,London,London,GB,WC1H 0AP",
  "InstitutionName": "University College",
  "InstitutionalDepartmentName": "Department",
  "MRAcquisitionType": "2D",
  "MagneticFieldStrength": 3,
  "Manufacturer": "Siemens",
  "ManufacturersModelName": "Prisma",
  "MatrixCoilMode": "SENSE",
  "Modality": "MR",
  "MultibandAccelerationFactor": 4,
  "NonlinearGradientCorrection": false,
  "PartialFourier": 1,
  "PatientPosition": "HFS",
  "PercentPhaseFOV": 100,
  "PercentSampling": 100,
  "PhaseEncodingDirection": "j-",
  "PhaseEncodingSteps": 106,
  "PhaseResolution": 1,
  "PixelBandwidth": 2620,
  "ProcedureStepDescription": "Egor^MovieProject2",
  "ProtocolName": "func-bold_task-pRF_run-02",
  "PulseSequenceDetails": "%CustomerSeq%\\cmrr_mbep2d_bold",
  "ReceiveCoilActiveElements": "HEA;HEP",
  "ReceiveCoilName": "Head_32",
  "ReconMatrixPE": 106,
  "RepetitionTime": 1,
  "SAR": 0.0771436,
  "ScanOptions": "FS\\EXT",
  "ScanningSequence": "EP",
  "SequenceName": "epfid2d1_106",
  "SequenceVariant": "SK\\SS",
  "SeriesDescription": "func-bold_task-pRF_run-02",
  "SeriesNumber": 12,
  "ShimSetting": [-1568, 652, 7417, 311, 59, 169, 105, -1],
  "SliceThickness": 2,
  "SliceTiming": [0, 0.41, 0.8175, 0.245, 0.655, 0.0825, 0.49, 0.9, 0.3275, 0.735, 0.165, 0.5725, 0, 0.41, 0.8175, 0.245, 0.655, 0.0825, 0.49, 0.9, 0.3275, 0.735, 0.165, 0.5725, 0, 0.41, 0.8175, 0.245, 0.655, 0.0825, 0.49, 0.9, 0.3275, 0.735, 0.165, 0.5725, 0, 0.41, 0.8175, 0.245, 0.655, 0.0825, 0.49, 0.9, 0.3275, 0.735, 0.165, 0.5725],
  "SoftwareVersions": "syngo MR E11",
  "SpacingBetweenSlices": 2,
  "StationName": "AWP166108",
  "TaskName": "retinotopy",
  "TotalReadoutTime": 0.0588013,
  "TxRefAmp": 244.62,
  "WipMemBlock": "2fc2b340-af66-4bd2-92bc-7a89fe968b22||Sequence: R016 ve11c/master r/e634e98; Dec 19 2017 11:00:25 by eja",
  "dcmmeta_affine": [
    [-2.0, 0.0, 0.0, 106.0],
    [0.0, 1.8829411268234253, -0.6741905808448792, -76.51765441894531],
    [0.0, 0.6741905808448792, 1.8829411268234253, -47.229915618896484],
    [0.0, 0.0, 0.0, 1.0]
],
  "dcmmeta_reorient_transform": [
    [0.0, -1.0, 0.0, 105.0],
    [1.0, 0.0, 0.0, 0.0],
    [0.0, 0.0, 1.0, 0.0],
    [0.0, 0.0, 0.0, 1.0]
],
  "dcmmeta_shape": [106, 106, 48, 356],
  "dcmmeta_slice_dim": 2,
  "dcmmeta_version": 0.6,
  "global": {
    "const": {
      "AcquisitionMatrix": [106, 0, 0, 106],
      "AngioFlag": "N",
      "BitsAllocated": 16,
      "BitsStored": 16,
      "BodyPartExamined": "BRAIN",
      "CardiacNumberOfImages": 1,
      "Columns": 742,
      "EchoNumbers": 1,
      "EchoTime": 35.2,
      "EchoTrainLength": 106,
      "FlipAngle": 60.0,
      "HighBit": 15,
      "ImageOrientationPatient": [1.0, 0.0, 0.0, 0.0, 0.94147053802673, -0.3370952773737],
      "ImagePositionPatient": [-742.0, -719.96642386854, 237.95268825056],
      "ImageType": [
        "ORIGINAL",
        "PRIMARY",
        "M",
        "MB",
        "ND",
        "MOSAIC"
],
      "ImagedNucleus": "1H",
      "ImagingFrequency": 123.243658,
      "InPlanePhaseEncodingDirection": "COL",
      "MRAcquisitionType": "2D",
      "MagneticFieldStrength": 3.0,
      "Manufacturer": "SIEMENS",
      "ManufacturerModelName": "Prisma",
      "Modality": "MR",
      "NominalInterval": 0,
      "NumberOfAverages": 1.0,
      "NumberOfPhaseEncodingSteps": 106,
      "PercentPhaseFieldOfView": 100.0,
      "PercentSampling": 100.0,
      "PerformedProcedureStepStartTime": "182138.729000",
      "PhotometricInterpretation": "MONOCHROME2",
      "PixelBandwidth": 2620.0,
      "PixelRepresentation": 0,
      "PixelSpacing": [2.0, 2.0],
      "ProtocolName": "func-bold_task-pRF_run-02",
      "RepetitionTime": 1000.0,
      "Rows": 742,
      "SAR": 0.07714363590385,
      "SamplesPerPixel": 1,
      "ScanOptions": [
        "FS",
        "EXT"
],
      "ScanningSequence": "EP",
      "SequenceName": "epfid2d1_106",
      "SequenceVariant": [
        "SK",
        "SS"
],
      "SeriesDescription": "func-bold_task-pRF_run-02",
      "SeriesNumber": 12,
      "SeriesTime": "191811.404000",
      "SliceLocation": -18.671835921561,
      "SliceThickness": 2.0,
      "SmallestImagePixelValue": 0,
      "SoftwareVersions": "syngo MR E11",
      "SpacingBetweenSlices": 2.0000000341154,
      "SpecificCharacterSet": "ISO_IR 100",
      "StudyID": "1",
      "StudyTime": "182138.589000",
      "TransmitCoilName": "Body",
      "VariableFlipAngleFlag": "N",
      "WindowCenterWidthExplanation": "Algo1",
      "dBdt": 0.0},
    "slices": {}
  },
  "time": {
    "samples": {
      "AcquisitionNumber": [1, 2, 3, 4, 5, 6, 7, 8, 9, 10, 11, 12, 13, 14, 15, 16, 17, 18, 19, 20, 21, 22, 23, 24, 25, 26, 27, 28, 29, 30, 31, 32, 33, 34, 35, 36, 37, 38, 39, 40, 41, 42, 43, 44, 45, 46, 47, 48, 49, 50, 51, 52, 53, 54, 55, 56, 57, 58, 59, 60, 61, 62, 63, 64, 65, 66, 67, 68, 69, 70, 71, 72, 73, 74, 75, 76, 77, 78, 79, 80, 81, 82, 83, 84, 85, 86, 87, 88, 89, 90, 91, 92, 93, 94, 95, 96, 97, 98, 99, 100, 101, 102, 103, 104, 105, 106, 107, 108, 109, 110, 111, 112, 113, 114, 115, 116, 117, 118, 119, 120, 121, 122, 123, 124, 125, 126, 127, 128, 129, 130, 131, 132, 133, 134, 135, 136, 137, 138, 139, 140, 141, 142, 143, 144, 145, 146, 147, 148, 149, 150, 151, 152, 153, 154, 155, 156, 157, 158, 159, 160, 161, 162, 163, 164, 165, 166, 167, 168, 169, 170, 171, 172, 173, 174, 175, 176, 177, 178, 179, 180, 181, 182, 183, 184, 185, 186, 187, 188, 189, 190, 191, 192, 193, 194, 195, 196, 197, 198, 199, 200, 201, 202, 203, 204, 205, 206, 207, 208, 209, 210, 211, 212, 213, 214, 215, 216, 217, 218, 219, 220, 221, 222, 223, 224, 225, 226, 227, 228, 229, 230, 231, 232, 233, 234, 235, 236, 237, 238, 239, 240, 241, 242, 243, 244, 245, 246, 247, 248, 249, 250, 251, 252, 253, 254, 255, 256, 257, 258, 259, 260, 261, 262, 263, 264, 265, 266, 267, 268, 269, 270, 271, 272, 273, 274, 275, 276, 277, 278, 279, 280, 281, 282, 283, 284, 285, 286, 287, 288, 289, 290, 291, 292, 293, 294, 295, 296, 297, 298, 299, 300, 301, 302, 303, 304, 305, 306, 307, 308, 309, 310, 311, 312, 313, 314, 315, 316, 317, 318, 319, 320, 321, 322, 323, 324, 325, 326, 327, 328, 329, 330, 331, 332, 333, 334, 335, 336, 337, 338, 339, 340, 341, 342, 343, 344, 345, 346, 347, 348, 349, 350, 351, 352, 353, 354, 355, 356],
      "AcquisitionTime": ["191732.262500", "191733.262500", "191734.262500", "191735.262500", "191736.262500", "191737.262500", "191738.262500", "191739.262500", "191740.262500", "191741.262500", "191742.262500", "191743.262500", "191744.262500", "191745.262500", "191746.262500", "191747.262500", "191748.262500", "191749.262500", "191750.262500", "191751.262500", "191752.262500", "191753.262500", "191754.262500", "191755.262500", "191756.262500", "191757.262500", "191758.262500", "191759.262500", "191800.262500", "191801.262500", "191802.262500", "191803.262500", "191804.262500", "191805.262500", "191806.262500", "191807.262500", "191808.262500", "191809.262500", "191810.262500", "191811.262500", "191812.262500", "191813.262500", "191814.262500", "191815.262500", "191816.262500", "191817.262500", "191818.262500", "191819.262500", "191820.262500", "191821.262500", "191822.262500", "191823.262500", "191824.262500", "191825.262500", "191826.262500", "191827.262500", "191828.262500", "191829.262500", "191830.262500", "191831.262500", "191832.262500", "191833.262500", "191834.262500", "191835.262500", "191836.262500", "191837.262500", "191838.262500", "191839.262500", "191840.262500", "191841.262500", "191842.262500", "191843.262500", "191844.262500", "191845.262500", "191846.262500", "191847.262500", "191848.262500", "191849.262500", "191850.262500", "191851.262500", "191852.262500", "191853.262500", "191854.262500", "191855.262500", "191856.262500", "191857.262500", "191858.262500", "191859.262500", "191900.262500", "191901.262500", "191902.262500", "191903.262500", "191904.262500", "191905.262500", "191906.262500", "191907.262500", "191908.262500", "191909.262500", "191910.262500", "191911.262500", "191912.262500", "191913.262500", "191914.262500", "191915.262500", "191916.262500", "191917.262500", "191918.262500", "191919.262500", "191920.262500", "191921.262500", "191922.262500", "191923.262500", "191924.262500", "191925.262500", "191926.262500", "191927.262500", "191928.262500", "191929.262500", "191930.262500", "191931.262500", "191932.262500", "191933.262500", "191934.262500", "191935.262500", "191936.262500", "191937.262500", "191938.262500", "191939.262500", "191940.262500", "191941.262500", "191942.262500", "191943.262500", "191944.262500", "191945.262500", "191946.262500", "191947.262500", "191948.262500", "191949.262500", "191950.262500", "191951.262500", "191952.262500", "191953.262500", "191954.262500", "191955.262500", "191956.262500", "191957.262500", "191958.262500", "191959.262500", "192000.262500", "192001.262500", "192002.262500", "192003.262500", "192004.262500", "192005.262500", "192006.262500", "192007.262500", "192008.262500", "192009.262500", "192010.262500", "192011.262500", "192012.262500", "192013.262500", "192014.262500", "192015.262500", "192016.262500", "192017.262500", "192018.262500", "192019.262500", "192020.262500", "192021.262500", "192022.262500", "192023.262500", "192024.262500", "192025.262500", "192026.262500", "192027.262500", "192028.262500", "192029.262500", "192030.262500", "192031.262500", "192032.262500", "192033.262500", "192034.262500", "192035.262500", "192036.262500", "192037.262500", "192038.262500", "192039.262500", "192040.262500", "192041.262500", "192042.262500", "192043.262500", "192044.262500", "192045.262500", "192046.262500", "192047.262500", "192048.262500", "192049.262500", "192050.262500", "192051.262500", "192052.262500", "192053.262500", "192054.262500", "192055.262500", "192056.262500", "192057.262500", "192058.262500", "192059.262500", "192100.262500", "192101.262500", "192102.262500", "192103.262500", "192104.262500", "192105.262500", "192106.262500", "192107.262500", "192108.262500", "192109.262500", "192110.262500", "192111.262500", "192112.262500", "192113.262500", "192114.262500", "192115.262500", "192116.262500", "192117.262500", "192118.262500", "192119.262500", "192120.262500", "192121.262500", "192122.262500", "192123.262500", "192124.262500", "192125.262500", "192126.262500", "192127.262500", "192128.262500", "192129.262500", "192130.262500", "192131.262500", "192132.262500", "192133.262500", "192134.262500", "192135.262500", "192136.262500", "192137.262500", "192138.262500", "192139.262500", "192140.262500", "192141.262500", "192142.262500", "192143.262500", "192144.262500", "192145.262500", "192146.262500", "192147.262500", "192148.262500", "192149.262500", "192150.262500", "192151.262500", "192152.262500", "192153.262500", "192154.262500", "192155.262500", "192156.262500", "192157.262500", "192158.262500", "192159.262500", "192200.262500", "192201.262500", "192202.262500", "192203.262500", "192204.262500", "192205.262500", "192206.262500", "192207.262500", "192208.262500", "192209.262500", "192210.262500", "192211.262500", "192212.262500", "192213.262500", "192214.262500", "192215.262500", "192216.262500", "192217.262500", "192218.262500", "192219.262500", "192220.262500", "192221.262500", "192222.262500", "192223.262500", "192224.262500", "192225.262500", "192226.262500", "192227.262500", "192228.262500", "192229.262500", "192230.262500", "192231.262500", "192232.262500", "192233.262500", "192234.262500", "192235.262500", "192236.262500", "192237.262500", "192238.262500", "192239.262500", "192240.262500", "192241.262500", "192242.262500", "192243.262500", "192244.262500", "192245.262500", "192246.262500", "192247.262500", "192248.262500", "192249.262500", "192250.262500", "192251.262500", "192252.262500", "192253.262500", "192254.262500", "192255.262500", "192256.262500", "192257.262500", "192258.262500", "192259.262500", "192300.262500", "192301.262500", "192302.262500", "192303.262500", "192304.262500", "192305.262500", "192306.262500", "192307.262500", "192308.262500", "192309.262500", "192310.262500", "192311.262500", "192312.262500", "192313.262500", "192314.262500", "192315.262500", "192316.262500", "192317.262500", "192318.262500", "192319.262500", "192320.262500", "192321.262500", "192322.262500", "192323.262500", "192324.262500", "192325.262500", "192326.262500", "192327.262500"],
      "ContentTime": ["191811.406000", "191811.409000", "191811.412000", "191811.414000", "191811.417000", "191811.419000", "191811.422000", "191811.424000", "191811.427000", "191811.429000", "191811.432000", "191811.434000", "191811.437000", "191811.439000", "191811.442000", "191811.445000", "191811.447000", "191811.450000", "191811.452000", "191811.455000", "191811.457000", "191811.460000", "191811.462000", "191811.465000", "191811.467000", "191811.477000", "191811.480000", "191811.482000", "191811.485000", "191811.497000", "191811.500000", "191811.502000", "191811.504000", "191811.507000", "191811.509000", "191811.512000", "191811.514000", "191811.517000", "191831.381000", "191831.384000", "191831.387000", "191831.389000", "191831.392000", "191831.394000", "191831.397000", "191831.399000", "191831.402000", "191831.404000", "191831.406000", "191831.409000", "191831.411000", "191831.414000", "191831.416000", "191831.419000", "191831.421000", "191831.432000", "191831.435000", "191831.437000", "191851.381000", "191851.384000", "191851.387000", "191851.390000", "191851.392000", "191851.394000", "191851.397000", "191851.399000", "191851.402000", "191851.404000", "191851.407000", "191851.409000", "191851.412000", "191851.414000", "191851.417000", "191851.419000", "191851.421000", "191851.424000", "191851.427000", "191851.429000", "191911.381000", "191911.384000", "191911.387000", "191911.389000", "191911.392000", "191911.394000", "191911.396000", "191911.399000", "191911.402000", "191911.404000", "191911.406000", "191911.409000", "191911.411000", "191911.414000", "191911.416000", "191911.419000", "191911.421000", "191911.424000", "191911.426000", "191911.429000", "191931.381000", "191931.384000", "191931.386000", "191931.389000", "191931.399000", "191931.401000", "191931.403000", "191931.406000", "191931.408000", "191931.411000", "191931.413000", "191931.416000", "191931.418000", "191931.421000", "191931.423000", "191931.426000", "191931.428000", "191931.431000", "191931.433000", "191931.435000", "191951.381000", "191951.383000", "191951.386000", "191951.388000", "191951.391000", "191951.393000", "191951.402000", "191951.405000", "191951.407000", "191951.410000", "191951.412000", "191951.415000", "191951.417000", "191951.420000", "191951.422000", "191951.425000", "191951.427000", "191951.430000", "191951.432000", "191951.434000", "192011.381000", "192011.383000", "192011.386000", "192011.388000", "192011.391000", "192011.393000", "192011.396000", "192011.398000", "192011.401000", "192011.403000", "192011.406000", "192011.408000", "192011.411000", "192011.413000", "192011.416000", "192011.418000", "192011.421000", "192011.423000", "192011.426000", "192011.428000", "192031.381000", "192031.383000", "192031.386000", "192031.388000", "192031.391000", "192031.393000", "192031.396000", "192031.398000", "192031.401000", "192031.403000", "192031.406000", "192031.408000", "192031.411000", "192031.413000", "192031.416000", "192031.418000", "192031.421000", "192031.423000", "192031.426000", "192031.428000", "192051.381000", "192051.384000", "192051.387000", "192051.389000", "192051.392000", "192051.394000", "192051.408000", "192051.411000", "192051.413000", "192051.416000", "192051.418000", "192051.421000", "192051.423000", "192051.426000", "192051.428000", "192051.431000", "192051.433000", "192051.436000", "192051.438000", "192051.441000", "192111.382000", "192111.384000", "192111.387000", "192111.389000", "192111.392000", "192111.394000", "192111.397000", "192111.399000", "192111.402000", "192111.404000", "192111.407000", "192111.409000", "192111.411000", "192111.414000", "192111.416000", "192111.419000", "192111.421000", "192111.424000", "192111.427000", "192111.429000", "192131.382000", "192131.384000", "192131.387000", "192131.389000", "192131.392000", "192131.394000", "192131.397000", "192131.399000", "192131.402000", "192131.404000", "192131.407000", "192131.409000", "192131.412000", "192131.414000", "192131.417000", "192131.419000", "192131.421000", "192131.424000", "192131.426000", "192131.429000", "192151.381000", "192151.384000", "192151.387000", "192151.389000", "192151.392000", "192151.394000", "192151.396000", "192151.399000", "192151.401000", "192151.404000", "192151.406000", "192151.409000", "192151.411000", "192151.414000", "192151.416000", "192151.419000", "192151.421000", "192151.424000", "192151.426000", "192151.429000", "192211.380000", "192211.383000", "192211.386000", "192211.388000", "192211.391000", "192211.393000", "192211.396000", "192211.398000", "192211.401000", "192211.403000", "192211.406000", "192211.408000", "192211.411000", "192211.413000", "192211.416000", "192211.418000", "192211.421000", "192211.423000", "192211.426000", "192211.428000", "192231.380000", "192231.383000", "192231.386000", "192231.388000", "192231.391000", "192231.393000", "192231.396000", "192231.398000", "192231.401000", "192231.403000", "192231.406000", "192231.408000", "192231.411000", "192231.413000", "192231.416000", "192231.418000", "192231.421000", "192231.423000", "192231.426000", "192231.428000", "192251.380000", "192251.383000", "192251.386000", "192251.388000", "192251.391000", "192251.393000", "192251.396000", "192251.398000", "192251.401000", "192251.403000", "192251.406000", "192251.408000", "192251.411000", "192251.413000", "192251.416000", "192251.418000", "192251.421000", "192251.423000", "192251.426000", "192251.428000", "192311.382000", "192311.385000", "192311.387000", "192311.389000", "192311.392000", "192311.395000", "192311.397000", "192311.400000", "192311.402000", "192311.404000", "192311.407000", "192311.409000", "192311.412000", "192311.414000", "192311.417000", "192311.419000", "192311.422000", "192311.424000", "192311.427000", "192311.429000", "192329.115000", "192329.118000", "192329.120000", "192329.123000", "192329.125000", "192329.128000", "192329.130000", "192329.133000", "192329.135000", "192329.138000", "192329.140000", "192329.143000", "192329.145000", "192329.148000", "192329.150000", "192329.153000", "192329.155000", "192329.158000"],
      "InstanceCreationTime": ["191811.406000", "191811.409000", "191811.412000", "191811.414000", "191811.417000", "191811.419000", "191811.422000", "191811.424000", "191811.427000", "191811.429000", "191811.432000", "191811.434000", "191811.437000", "191811.439000", "191811.442000", "191811.445000", "191811.447000", "191811.450000", "191811.452000", "191811.455000", "191811.457000", "191811.460000", "191811.462000", "191811.465000", "191811.467000", "191811.477000", "191811.480000", "191811.482000", "191811.485000", "191811.497000", "191811.500000", "191811.502000", "191811.504000", "191811.507000", "191811.509000", "191811.512000", "191811.514000", "191811.517000", "191831.381000", "191831.384000", "191831.387000", "191831.389000", "191831.392000", "191831.394000", "191831.397000", "191831.399000", "191831.402000", "191831.404000", "191831.406000", "191831.409000", "191831.411000", "191831.414000", "191831.416000", "191831.419000", "191831.421000", "191831.432000", "191831.435000", "191831.437000", "191851.381000", "191851.384000", "191851.387000", "191851.390000", "191851.392000", "191851.394000", "191851.397000", "191851.399000", "191851.402000", "191851.404000", "191851.407000", "191851.409000", "191851.412000", "191851.414000", "191851.417000", "191851.419000", "191851.421000", "191851.424000", "191851.427000", "191851.429000", "191911.381000", "191911.384000", "191911.387000", "191911.389000", "191911.392000", "191911.394000", "191911.396000", "191911.399000", "191911.402000", "191911.404000", "191911.406000", "191911.409000", "191911.411000", "191911.414000", "191911.416000", "191911.419000", "191911.421000", "191911.424000", "191911.426000", "191911.429000", "191931.381000", "191931.384000", "191931.386000", "191931.389000", "191931.399000", "191931.401000", "191931.403000", "191931.406000", "191931.408000", "191931.411000", "191931.413000", "191931.416000", "191931.418000", "191931.421000", "191931.423000", "191931.426000", "191931.428000", "191931.431000", "191931.433000", "191931.435000", "191951.381000", "191951.383000", "191951.386000", "191951.388000", "191951.391000", "191951.393000", "191951.402000", "191951.405000", "191951.407000", "191951.410000", "191951.412000", "191951.415000", "191951.417000", "191951.420000", "191951.422000", "191951.425000", "191951.427000", "191951.430000", "191951.432000", "191951.434000", "192011.381000", "192011.383000", "192011.386000", "192011.388000", "192011.391000", "192011.393000", "192011.396000", "192011.398000", "192011.401000", "192011.403000", "192011.406000", "192011.408000", "192011.411000", "192011.413000", "192011.416000", "192011.418000", "192011.421000", "192011.423000", "192011.426000", "192011.428000", "192031.381000", "192031.383000", "192031.386000", "192031.388000", "192031.391000", "192031.393000", "192031.396000", "192031.398000", "192031.401000", "192031.403000", "192031.406000", "192031.408000", "192031.411000", "192031.413000", "192031.416000", "192031.418000", "192031.421000", "192031.423000", "192031.426000", "192031.428000", "192051.381000", "192051.384000", "192051.387000", "192051.389000", "192051.392000", "192051.394000", "192051.408000", "192051.411000", "192051.413000", "192051.416000", "192051.418000", "192051.421000", "192051.423000", "192051.426000", "192051.428000", "192051.431000", "192051.433000", "192051.436000", "192051.438000", "192051.441000", "192111.382000", "192111.384000", "192111.387000", "192111.389000", "192111.392000", "192111.394000", "192111.397000", "192111.399000", "192111.402000", "192111.404000", "192111.407000", "192111.409000", "192111.411000", "192111.414000", "192111.416000", "192111.419000", "192111.421000", "192111.424000", "192111.427000", "192111.429000", "192131.382000", "192131.384000", "192131.387000", "192131.389000", "192131.392000", "192131.394000", "192131.397000", "192131.399000", "192131.402000", "192131.404000", "192131.407000", "192131.409000", "192131.412000", "192131.414000", "192131.417000", "192131.419000", "192131.421000", "192131.424000", "192131.426000", "192131.429000", "192151.381000", "192151.384000", "192151.387000", "192151.389000", "192151.392000", "192151.394000", "192151.396000", "192151.399000", "192151.401000", "192151.404000", "192151.406000", "192151.409000", "192151.411000", "192151.414000", "192151.416000", "192151.419000", "192151.421000", "192151.424000", "192151.426000", "192151.429000", "192211.380000", "192211.383000", "192211.386000", "192211.388000", "192211.391000", "192211.393000", "192211.396000", "192211.398000", "192211.401000", "192211.403000", "192211.406000", "192211.408000", "192211.411000", "192211.413000", "192211.416000", "192211.418000", "192211.421000", "192211.423000", "192211.426000", "192211.428000", "192231.380000", "192231.383000", "192231.386000", "192231.388000", "192231.391000", "192231.393000", "192231.396000", "192231.398000", "192231.401000", "192231.403000", "192231.406000", "192231.408000", "192231.411000", "192231.413000", "192231.416000", "192231.418000", "192231.421000", "192231.423000", "192231.426000", "192231.428000", "192251.380000", "192251.383000", "192251.386000", "192251.388000", "192251.391000", "192251.393000", "192251.396000", "192251.398000", "192251.401000", "192251.403000", "192251.406000", "192251.408000", "192251.411000", "192251.413000", "192251.416000", "192251.418000", "192251.421000", "192251.423000", "192251.426000", "192251.428000", "192311.382000", "192311.385000", "192311.387000", "192311.389000", "192311.392000", "192311.395000", "192311.397000", "192311.400000", "192311.402000", "192311.404000", "192311.407000", "192311.409000", "192311.412000", "192311.414000", "192311.417000", "192311.419000", "192311.422000", "192311.424000", "192311.427000", "192311.429000", "192329.115000", "192329.118000", "192329.120000", "192329.123000", "192329.125000", "192329.128000", "192329.130000", "192329.133000", "192329.135000", "192329.138000", "192329.140000", "192329.143000", "192329.145000", "192329.148000", "192329.150000", "192329.153000", "192329.155000", "192329.158000"],
      "InstanceNumber": [1, 2, 3, 4, 5, 6, 7, 8, 9, 10, 11, 12, 13, 14, 15, 16, 17, 18, 19, 20, 21, 22, 23, 24, 25, 26, 27, 28, 29, 30, 31, 32, 33, 34, 35, 36, 37, 38, 39, 40, 41, 42, 43, 44, 45, 46, 47, 48, 49, 50, 51, 52, 53, 54, 55, 56, 57, 58, 59, 60, 61, 62, 63, 64, 65, 66, 67, 68, 69, 70, 71, 72, 73, 74, 75, 76, 77, 78, 79, 80, 81, 82, 83, 84, 85, 86, 87, 88, 89, 90, 91, 92, 93, 94, 95, 96, 97, 98, 99, 100, 101, 102, 103, 104, 105, 106, 107, 108, 109, 110, 111, 112, 113, 114, 115, 116, 117, 118, 119, 120, 121, 122, 123, 124, 125, 126, 127, 128, 129, 130, 131, 132, 133, 134, 135, 136, 137, 138, 139, 140, 141, 142, 143, 144, 145, 146, 147, 148, 149, 150, 151, 152, 153, 154, 155, 156, 157, 158, 159, 160, 161, 162, 163, 164, 165, 166, 167, 168, 169, 170, 171, 172, 173, 174, 175, 176, 177, 178, 179, 180, 181, 182, 183, 184, 185, 186, 187, 188, 189, 190, 191, 192, 193, 194, 195, 196, 197, 198, 199, 200, 201, 202, 203, 204, 205, 206, 207, 208, 209, 210, 211, 212, 213, 214, 215, 216, 217, 218, 219, 220, 221, 222, 223, 224, 225, 226, 227, 228, 229, 230, 231, 232, 233, 234, 235, 236, 237, 238, 239, 240, 241, 242, 243, 244, 245, 246, 247, 248, 249, 250, 251, 252, 253, 254, 255, 256, 257, 258, 259, 260, 261, 262, 263, 264, 265, 266, 267, 268, 269, 270, 271, 272, 273, 274, 275, 276, 277, 278, 279, 280, 281, 282, 283, 284, 285, 286, 287, 288, 289, 290, 291, 292, 293, 294, 295, 296, 297, 298, 299, 300, 301, 302, 303, 304, 305, 306, 307, 308, 309, 310, 311, 312, 313, 314, 315, 316, 317, 318, 319, 320, 321, 322, 323, 324, 325, 326, 327, 328, 329, 330, 331, 332, 333, 334, 335, 336, 337, 338, 339, 340, 341, 342, 343, 344, 345, 346, 347, 348, 349, 350, 351, 352, 353, 354, 355, 356],
      "LargestImagePixelValue": [11760, 11432, 11105, 11119, 11247, 11134, 11059, 11111, 11009, 10879, 11001, 11137, 10962, 10918, 11044, 10854, 10767, 10767, 10682, 10698, 10603, 10677, 10803, 10743, 10814, 10884, 10740, 10772, 10883, 10829, 10969, 10982, 10931, 11170, 10898, 11182, 11061, 11207, 11106, 11066, 11154, 11081, 11322, 11363, 11342, 11268, 11352, 11514, 11403, 11406, 11299, 11454, 11228, 11231, 11166, 11197, 11086, 11245, 11360, 11166, 11397, 11496, 11519, 11377, 11582, 11444, 11415, 11485, 11381, 11442, 11352, 11398, 11296, 11184, 11120, 10993, 11238, 11141, 11137, 11254, 11279, 11366, 11229, 11524, 11416, 11485, 11421, 11269, 11398, 11396, 11230, 11164, 10961, 11088, 11139, 11145, 11006, 11289, 10986, 11105, 11203, 11157, 11211, 11299, 11135, 11244, 11330, 11293, 11391, 11404, 11542, 11592, 11532, 11482, 11483, 11534, 11461, 11441, 11407, 11283, 11337, 11381, 11383, 11302, 11396, 11347, 11274, 11056, 11142, 11175, 11240, 11107, 11179, 11263, 11330, 11283, 11348, 11242, 11284, 10931, 11018, 11084, 11107, 11132, 11108, 11177, 11173, 11157, 11343, 11176, 11192, 11417, 11515, 11570, 11361, 11513, 11524, 11498, 11533, 11388, 11585, 11517, 11536, 11572, 11533, 11398, 11430, 11553, 11624, 11666, 11481, 11421, 11356, 11271, 11351, 11036, 11353, 11420, 11442, 11450, 11477, 11377, 11303, 11207, 11421, 11250, 11359, 11343, 11333, 11366, 11198, 11493, 11251, 11424, 11219, 11297, 11214, 11356, 11441, 11445, 11453, 11500, 11546, 11545, 11446, 11540, 11372, 11585, 11612, 11552, 11649, 11638, 11640, 11555, 11705, 11617, 11535, 11625, 11597, 11493, 11368, 11456, 11455, 11379, 11369, 11293, 11321, 11138, 11160, 11317, 11386, 11344, 11470, 11493, 11497, 11500, 11602, 11463, 11403, 11466, 11457, 11423, 11270, 11373, 11487, 11271, 11406, 11541, 11611, 11472, 11678, 11568, 11621, 11633, 11796, 11697, 11744, 11663, 11851, 11576, 11609, 11601, 11809, 11608, 11650, 11749, 11569, 11404, 11458, 11376, 11301, 11233, 11369, 11263, 11033, 11540, 11323, 11399, 11400, 11519, 11465, 11461, 11422, 11516, 11511, 11498, 11719, 11553, 11580, 11539, 11744, 11639, 11438, 11506, 11697, 11638, 11508, 11629, 11697, 11526, 11479, 11646, 11631, 11617, 11462, 11621, 11756, 11770, 11675, 11553, 11695, 11696, 11672, 11372, 11425, 11515, 11536, 11444, 11479, 11437, 11358, 11591, 11588, 11768, 11494, 11636, 11689, 11819, 11527, 11385, 11510, 11415, 11317, 11385, 11582, 11512, 11513, 11453, 11404, 11365, 11465, 11407, 11256, 11439, 11451, 11567, 11473, 11644, 11644, 11524, 11646, 11645, 11592, 11431, 11385, 11606],
