{
  "AcquisitionMatrixPE": 106,
  "AcquisitionNumber": 1,
  "AcquisitionTime": "12:57:6.372500",
  "BandwidthPerPixelPhaseEncode": 16.846,
  "BaseResolution": 106,
  "BodyPartExamined": "BRAIN",
  "CoilCombinationMethod": "Sum of Squares",
  "ConsistencyInfo": "N4_VE11C_LATEST_20160120",
  "ConversionSoftware": "dcm2niix",
  "ConversionSoftwareVersion": "v1.0.20220720",
  "DerivedVendorReportedEchoSpacing": 0.000560012,
  "DeviceSerialNumber": "166108",
  "DwellTime": 1.8e-06,
  "EchoTime": 0.0352,
  "EchoTrainLength": 106,
  "EffectiveEchoSpacing": 0.000560012,
  "FlipAngle": 60,
  "HeudiconvVersion": "1.3.0",
  "ImageComments": "Unaliased MB4/PE3/LB",
  "ImageOrientationPatientDICOM": [1, 0, 0, 0, 1, 0],
  "ImageOrientationText": "Tra",
  "ImageType": [
    "ORIGINAL",
    "PRIMARY",
    "M",
    "MB",
    "ND",
    "MOSAIC"
],
  "ImagingFrequency": 123.244,
  "InPlanePhaseEncodingDirectionDICOM": "COL",
  "InstitutionAddress": "Bedford Way 26,London,London,GB,WC1H 0AP",
  "InstitutionName": "University College",
  "InstitutionalDepartmentName": "Department",
  "MRAcquisitionType": "2D",
  "MagneticFieldStrength": 3,
  "Manufacturer": "Siemens",
  "ManufacturersModelName": "Prisma",
  "MatrixCoilMode": "SENSE",
  "Modality": "MR",
  "MultibandAccelerationFactor": 4,
  "NonlinearGradientCorrection": false,
  "PartialFourier": 1,
  "PatientPosition": "HFS",
  "PercentPhaseFOV": 100,
  "PercentSampling": 100,
  "PhaseEncodingDirection": "j-",
  "PhaseEncodingSteps": 106,
  "PhaseResolution": 1,
  "PixelBandwidth": 2620,
  "ProcedureStepDescription": "Egor^MovieProject2",
  "ProtocolName": "task-backtothefuture_run-3",
  "PulseSequenceDetails": "%CustomerSeq%\\cmrr_mbep2d_bold",
  "ReceiveCoilActiveElements": "HEA;HEP",
  "ReceiveCoilName": "Head_32",
  "ReconMatrixPE": 106,
  "RepetitionTime": 1.5,
  "SAR": 0.0657346,
  "ScanOptions": "FS\\EXT",
  "ScanningSequence": "EP",
  "SequenceName": "epfid2d1_106",
  "SequenceVariant": "SK\\SS",
  "SeriesDescription": "task-backtothefuture_run-3",
  "SeriesNumber": 11,
  "ShimSetting": [-1587, 640, 7421, 411, -92, 212, 37, -33],
  "SliceThickness": 2,
  "SliceTiming": [0, 1.0675, 0.6575, 0.2475, 1.315, 0.905, 0.4925, 0.0825, 1.15, 0.74, 0.3275, 1.3975, 0.9875, 0.575, 0.165, 1.2325, 0.8225, 0.41, 0, 1.0675, 0.6575, 0.2475, 1.315, 0.905, 0.4925, 0.0825, 1.15, 0.74, 0.3275, 1.3975, 0.9875, 0.575, 0.165, 1.2325, 0.8225, 0.41, 0, 1.0675, 0.6575, 0.2475, 1.315, 0.905, 0.4925, 0.0825, 1.15, 0.74, 0.3275, 1.3975, 0.9875, 0.575, 0.165, 1.2325, 0.8225, 0.41, 0, 1.0675, 0.6575, 0.2475, 1.315, 0.905, 0.4925, 0.0825, 1.15, 0.74, 0.3275, 1.3975, 0.9875, 0.575, 0.165, 1.2325, 0.8225, 0.41],
  "SoftwareVersions": "syngo MR E11",
  "SpacingBetweenSlices": 2,
  "StationName": "AWP166108",
  "TaskName": "backtothefuture",
  "TotalReadoutTime": 0.0588013,
  "TxRefAmp": 221.82,
  "WipMemBlock": "2c37ee03-40e5-4d96-8e99-1d461e7b073b||Sequence: R016 ve11c/master r/e634e98; Dec 19 2017 11:00:25 by eja",
  "dcmmeta_affine": [
    [-2.0, 0.0, 0.0, 106.0],
    [0.0, 2.0, 0.0, -88.33734893798828],
    [0.0, 0.0, 2.0, -61.361446380615234],
    [0.0, 0.0, 0.0, 1.0]
],
  "dcmmeta_reorient_transform": [
    [0.0, -1.0, 0.0, 105.0],
    [1.0, 0.0, 0.0, 0.0],
    [0.0, 0.0, 1.0, 0.0],
    [0.0, 0.0, 0.0, 1.0]
],
  "dcmmeta_shape": [106, 106, 72, 1608],
  "dcmmeta_slice_dim": 2,
  "dcmmeta_version": 0.6,
  "global": {
    "const": {
      "AcquisitionMatrix": [106, 0, 0, 106],
      "AngioFlag": "N",
      "BitsAllocated": 16,
      "BitsStored": 16,
      "BodyPartExamined": "BRAIN",
      "CardiacNumberOfImages": 1,
      "Columns": 954,
      "EchoNumbers": 1,
      "EchoTime": 35.2,
      "EchoTrainLength": 106,
      "FlipAngle": 60.0,
      "HighBit": 15,
      "ImageOrientationPatient": [1.0, 0.0, 0.0, 0.0, 1.0, 0.0],
      "ImagePositionPatient": [-954.0, -969.66265106201, -61.361446380615],
      "ImageType": [
        "ORIGINAL",
        "PRIMARY",
        "M",
        "MB",
        "ND",
        "MOSAIC"
],
      "ImagedNucleus": "1H",
      "ImagingFrequency": 123.243736,
      "InPlanePhaseEncodingDirection": "COL",
      "MRAcquisitionType": "2D",
      "MagneticFieldStrength": 3.0,
      "Manufacturer": "SIEMENS",
      "ManufacturerModelName": "Prisma",
      "Modality": "MR",
      "NominalInterval": 0,
      "NumberOfAverages": 1.0,
      "NumberOfPhaseEncodingSteps": 106,
      "PercentPhaseFieldOfView": 100.0,
      "PercentSampling": 100.0,
      "PerformedProcedureStepStartTime": "110729.579000",
      "PhotometricInterpretation": "MONOCHROME2",
      "PixelBandwidth": 2620.0,
      "PixelRepresentation": 0,
      "PixelSpacing": [2.0, 2.0],
      "ProtocolName": "task-backtothefuture_run-3",
      "RepetitionTime": 1500.0,
      "Rows": 954,
      "SAR": 0.06573459167528,
      "SamplesPerPixel": 1,
      "ScanOptions": [
        "FS",
        "EXT"
],
      "ScanningSequence": "EP",
      "SequenceName": "epfid2d1_106",
      "SequenceVariant": [
        "SK",
        "SS"
],
      "SeriesDescription": "task-backtothefuture_run-3",
      "SeriesNumber": 11,
      "SeriesTime": "125803.227000",
      "SliceLocation": -61.361446380615,
      "SliceThickness": 2.0,
      "SmallestImagePixelValue": 0,
      "SoftwareVersions": "syngo MR E11",
      "SpacingBetweenSlices": 2.0000000537281,
      "SpecificCharacterSet": "ISO_IR 100",
      "StudyID": "1",
      "StudyTime": "110729.519000",
      "TransmitCoilName": "Body",
      "VariableFlipAngleFlag": "N",
      "WindowCenterWidthExplanation": "Algo1",
      "dBdt": 0.0},
    "slices": {}
  },
  "time": {
    "samples": {
      "AcquisitionNumber": [1, 2, 3, 4, 5, 6, 7, 8, 9, 10, 11, 12, 13, 14, 15, 16, 17, 18, 19, 20, 21, 22, 23, 24, 25, 26, 27, 28, 29, 30, 31, 32, 33, 34, 35, 36, 37, 38, 39, 40, 41, 42, 43, 44, 45, 46, 47, 48, 49, 50, 51, 52, 53, 54, 55, 56, 57, 58, 59, 60, 61, 62, 63, 64, 65, 66, 67, 68, 69, 70, 71, 72, 73, 74, 75, 76, 77, 78, 79, 80, 81, 82, 83, 84, 85, 86, 87, 88, 89, 90, 91, 92, 93, 94, 95, 96, 97, 98, 99, 100, 101, 102, 103, 104, 105, 106, 107, 108, 109, 110, 111, 112, 113, 114, 115, 116, 117, 118, 119, 120, 121, 122, 123, 124, 125, 126, 127, 128, 129, 130, 131, 132, 133, 134, 135, 136, 137, 138, 139, 140, 141, 142, 143, 144, 145, 146, 147, 148, 149, 150, 151, 152, 153, 154, 155, 156, 157, 158, 159, 160, 161, 162, 163, 164, 165, 166, 167, 168, 169, 170, 171, 172, 173, 174, 175, 176, 177, 178, 179, 180, 181, 182, 183, 184, 185, 186, 187, 188, 189, 190, 191, 192, 193, 194, 195, 196, 197, 198, 199, 200, 201, 202, 203, 204, 205, 206, 207, 208, 209, 210, 211, 212, 213, 214, 215, 216, 217, 218, 219, 220, 221, 222, 223, 224, 225, 226, 227, 228, 229, 230, 231, 232, 233, 234, 235, 236, 237, 238, 239, 240, 241, 242, 243, 244, 245, 246, 247, 248, 249, 250, 251, 252, 253, 254, 255, 256, 257, 258, 259, 260, 261, 262, 263, 264, 265, 266, 267, 268, 269, 270, 271, 272, 273, 274, 275, 276, 277, 278, 279, 280, 281, 282, 283, 284, 285, 286, 287, 288, 289, 290, 291, 292, 293, 294, 295, 296, 297, 298, 299, 300, 301, 302, 303, 304, 305, 306, 307, 308, 309, 310, 311, 312, 313, 314, 315, 316, 317, 318, 319, 320, 321, 322, 323, 324, 325, 326, 327, 328, 329, 330, 331, 332, 333, 334, 335, 336, 337, 338, 339, 340, 341, 342, 343, 344, 345, 346, 347, 348, 349, 350, 351, 352, 353, 354, 355, 356, 357, 358, 359, 360, 361, 362, 363, 364, 365, 366, 367, 368, 369, 370, 371, 372, 373, 374, 375, 376, 377, 378, 379, 380, 381, 382, 383, 384, 385, 386, 387, 388, 389, 390, 391, 392, 393, 394, 395, 396, 397, 398, 399, 400, 401, 402, 403, 404, 405, 406, 407, 408, 409, 410, 411, 412, 413, 414, 415, 416, 417, 418, 419, 420, 421, 422, 423, 424, 425, 426, 427, 428, 429, 430, 431, 432, 433, 434, 435, 436, 437, 438, 439, 440, 441, 442, 443, 444, 445, 446, 447, 448, 449, 450, 451, 452, 453, 454, 455, 456, 457, 458, 459, 460, 461, 462, 463, 464, 465, 466, 467, 468, 469, 470, 471, 472, 473, 474, 475, 476, 477, 478, 479, 480, 481, 482, 483, 484, 485, 486, 487, 488, 489, 490, 491, 492, 493, 494, 495, 496, 497, 498, 499, 500, 501, 502, 503, 504, 505, 506, 507, 508, 509, 510, 511, 512, 513, 514, 515, 516, 517, 518, 519, 520, 521, 522, 523, 524, 525, 526, 527, 528, 529, 530, 531, 532, 533, 534, 535, 536, 537, 538, 539, 540, 541, 542, 543, 544, 545, 546, 547, 548, 549, 550, 551, 552, 553, 554, 555, 556, 557, 558, 559, 560, 561, 562, 563, 564, 565, 566, 567, 568, 569, 570, 571, 572, 573, 574, 575, 576, 577, 578, 579, 580, 581, 582, 583, 584, 585, 586, 587, 588, 589, 590, 591, 592, 593, 594, 595, 596, 597, 598, 599, 600, 601, 602, 603, 604, 605, 606, 607, 608, 609, 610, 611, 612, 613, 614, 615, 616, 617, 618, 619, 620, 621, 622, 623, 624, 625, 626, 627, 628, 629, 630, 631, 632, 633, 634, 635, 636, 637, 638, 639, 640, 641, 642, 643, 644, 645, 646, 647, 648, 649, 650, 651, 652, 653, 654, 655, 656, 657, 658, 659, 660, 661, 662, 663, 664, 665, 666, 667, 668, 669, 670, 671, 672, 673, 674, 675, 676, 677, 678, 679, 680, 681, 682, 683, 684, 685, 686, 687, 688, 689, 690, 691, 692, 693, 694, 695, 696, 697, 698, 699, 700, 701, 702, 703, 704, 705, 706, 707, 708, 709, 710, 711, 712, 713, 714, 715, 716, 717, 718, 719, 720, 721, 722, 723, 724, 725, 726, 727, 728, 729, 730, 731, 732, 733, 734, 735, 736, 737, 738, 739, 740, 741, 742, 743, 744, 745, 746, 747, 748, 749, 750, 751, 752, 753, 754, 755, 756, 757, 758, 759, 760, 761, 762, 763, 764, 765, 766, 767, 768, 769, 770, 771, 772, 773, 774, 775, 776, 777, 778, 779, 780, 781, 782, 783, 784, 785, 786, 787, 788, 789, 790, 791, 792, 793, 794, 795, 796, 797, 798, 799, 800, 801, 802, 803, 804, 805, 806, 807, 808, 809, 810, 811, 812, 813, 814, 815, 816, 817, 818, 819, 820, 821, 822, 823, 824, 825, 826, 827, 828, 829, 830, 831, 832, 833, 834, 835, 836, 837, 838, 839, 840, 841, 842, 843, 844, 845, 846, 847, 848, 849, 850, 851, 852, 853, 854, 855, 856, 857, 858, 859, 860, 861, 862, 863, 864, 865, 866, 867, 868, 869, 870, 871, 872, 873, 874, 875, 876, 877, 878, 879, 880, 881, 882, 883, 884, 885, 886, 887, 888, 889, 890, 891, 892, 893, 894, 895, 896, 897, 898, 899, 900, 901, 902, 903, 904, 905, 906, 907, 908, 909, 910, 911, 912, 913, 914, 915, 916, 917, 918, 919, 920, 921, 922, 923, 924, 925, 926, 927, 928, 929, 930, 931, 932, 933, 934, 935, 936, 937, 938, 939, 940, 941, 942, 943, 944, 945, 946, 947, 948, 949, 950, 951, 952, 953, 954, 955, 956, 957, 958, 959, 960, 961, 962, 963, 964, 965, 966, 967, 968, 969, 970, 971, 972, 973, 974, 975, 976, 977, 978, 979, 980, 981, 982, 983, 984, 985, 986, 987, 988, 989, 990, 991, 992, 993, 994, 995, 996, 997, 998, 999, 1000, 1001, 1002, 1003, 1004, 1005, 1006, 1007, 1008, 1009, 1010, 1011, 1012, 1013, 1014, 1015, 1016, 1017, 1018, 1019, 1020, 1021, 1022, 1023, 1024, 1025, 1026, 1027, 1028, 1029, 1030, 1031, 1032, 1033, 1034, 1035, 1036, 1037, 1038, 1039, 1040, 1041, 1042, 1043, 1044, 1045, 1046, 1047, 1048, 1049, 1050, 1051, 1052, 1053, 1054, 1055, 1056, 1057, 1058, 1059, 1060, 1061, 1062, 1063, 1064, 1065, 1066, 1067, 1068, 1069, 1070, 1071, 1072, 1073, 1074, 1075, 1076, 1077, 1078, 1079, 1080, 1081, 1082, 1083, 1084, 1085, 1086, 1087, 1088, 1089, 1090, 1091, 1092, 1093, 1094, 1095, 1096, 1097, 1098, 1099, 1100, 1101, 1102, 1103, 1104, 1105, 1106, 1107, 1108, 1109, 1110, 1111, 1112, 1113, 1114, 1115, 1116, 1117, 1118, 1119, 1120, 1121, 1122, 1123, 1124, 1125, 1126, 1127, 1128, 1129, 1130, 1131, 1132, 1133, 1134, 1135, 1136, 1137, 1138, 1139, 1140, 1141, 1142, 1143, 1144, 1145, 1146, 1147, 1148, 1149, 1150, 1151, 1152, 1153, 1154, 1155, 1156, 1157, 1158, 1159, 1160, 1161, 1162, 1163, 1164, 1165, 1166, 1167, 1168, 1169, 1170, 1171, 1172, 1173, 1174, 1175, 1176, 1177, 1178, 1179, 1180, 1181, 1182, 1183, 1184, 1185, 1186, 1187, 1188, 1189, 1190, 1191, 1192, 1193, 1194, 1195, 1196, 1197, 1198, 1199, 1200, 1201, 1202, 1203, 1204, 1205, 1206, 1207, 1208, 1209, 1210, 1211, 1212, 1213, 1214, 1215, 1216, 1217, 1218, 1219, 1220, 1221, 1222, 1223, 1224, 1225, 1226, 1227, 1228, 1229, 1230, 1231, 1232, 1233, 1234, 1235, 1236, 1237, 1238, 1239, 1240, 1241, 1242, 1243, 1244, 1245, 1246, 1247, 1248, 1249, 1250, 1251, 1252, 1253, 1254, 1255, 1256, 1257, 1258, 1259, 1260, 1261, 1262, 1263, 1264, 1265, 1266, 1267, 1268, 1269, 1270, 1271, 1272, 1273, 1274, 1275, 1276, 1277, 1278, 1279, 1280, 1281, 1282, 1283, 1284, 1285, 1286, 1287, 1288, 1289, 1290, 1291, 1292, 1293, 1294, 1295, 1296, 1297, 1298, 1299, 1300, 1301, 1302, 1303, 1304, 1305, 1306, 1307, 1308, 1309, 1310, 1311, 1312, 1313, 1314, 1315, 1316, 1317, 1318, 1319, 1320, 1321, 1322, 1323, 1324, 1325, 1326, 1327, 1328, 1329, 1330, 1331, 1332, 1333, 1334, 1335, 1336, 1337, 1338, 1339, 1340, 1341, 1342, 1343, 1344, 1345, 1346, 1347, 1348, 1349, 1350, 1351, 1352, 1353, 1354, 1355, 1356, 1357, 1358, 1359, 1360, 1361, 1362, 1363, 1364, 1365, 1366, 1367, 1368, 1369, 1370, 1371, 1372, 1373, 1374, 1375, 1376, 1377, 1378, 1379, 1380, 1381, 1382, 1383, 1384, 1385, 1386, 1387, 1388, 1389, 1390, 1391, 1392, 1393, 1394, 1395, 1396, 1397, 1398, 1399, 1400, 1401, 1402, 1403, 1404, 1405, 1406, 1407, 1408, 1409, 1410, 1411, 1412, 1413, 1414, 1415, 1416, 1417, 1418, 1419, 1420, 1421, 1422, 1423, 1424, 1425, 1426, 1427, 1428, 1429, 1430, 1431, 1432, 1433, 1434, 1435, 1436, 1437, 1438, 1439, 1440, 1441, 1442, 1443, 1444, 1445, 1446, 1447, 1448, 1449, 1450, 1451, 1452, 1453, 1454, 1455, 1456, 1457, 1458, 1459, 1460, 1461, 1462, 1463, 1464, 1465, 1466, 1467, 1468, 1469, 1470, 1471, 1472, 1473, 1474, 1475, 1476, 1477, 1478, 1479, 1480, 1481, 1482, 1483, 1484, 1485, 1486, 1487, 1488, 1489, 1490, 1491, 1492, 1493, 1494, 1495, 1496, 1497, 1498, 1499, 1500, 1501, 1502, 1503, 1504, 1505, 1506, 1507, 1508, 1509, 1510, 1511, 1512, 1513, 1514, 1515, 1516, 1517, 1518, 1519, 1520, 1521, 1522, 1523, 1524, 1525, 1526, 1527, 1528, 1529, 1530, 1531, 1532, 1533, 1534, 1535, 1536, 1537, 1538, 1539, 1540, 1541, 1542, 1543, 1544, 1545, 1546, 1547, 1548, 1549, 1550, 1551, 1552, 1553, 1554, 1555, 1556, 1557, 1558, 1559, 1560, 1561, 1562, 1563, 1564, 1565, 1566, 1567, 1568, 1569, 1570, 1571, 1572, 1573, 1574, 1575, 1576, 1577, 1578, 1579, 1580, 1581, 1582, 1583, 1584, 1585, 1586, 1587, 1588, 1589, 1590, 1591, 1592, 1593, 1594, 1595, 1596, 1597, 1598, 1599, 1600, 1601, 1602, 1603, 1604, 1605, 1606, 1607, 1608],
      "AcquisitionTime": ["125706.372500", "125707.872500", "125709.372500", "125710.872500", "125712.372500", "125713.872500", "125715.372500", "125716.872500", "125718.372500", "125719.872500", "125721.372500", "125722.872500", "125724.372500", "125725.872500", "125727.372500", "125728.872500", "125730.372500", "125731.872500", "125733.372500", "125734.872500", "125736.372500", "125737.872500", "125739.372500", "125740.872500", "125742.372500", "125743.872500", "125745.372500", "125746.872500", "125748.372500", "125749.872500", "125751.372500", "125752.872500", "125754.372500", "125755.872500", "125757.372500", "125758.872500", "125800.372500", "125801.872500", "125803.372500", "125804.872500", "125806.372500", "125807.872500", "125809.372500", "125810.872500", "125812.372500", "125813.872500", "125815.372500", "125816.872500", "125818.372500", "125819.872500", "125821.372500", "125822.872500", "125824.372500", "125825.872500", "125827.372500", "125828.872500", "125830.372500", "125831.872500", "125833.372500", "125834.872500", "125836.372500", "125837.872500", "125839.372500", "125840.872500", "125842.372500", "125843.872500", "125845.372500", "125846.872500", "125848.372500", "125849.872500", "125851.372500", "125852.872500", "125854.372500", "125855.872500", "125857.372500", "125858.872500", "125900.372500", "125901.872500", "125903.372500", "125904.872500", "125906.372500", "125907.872500", "125909.372500", "125910.872500", "125912.372500", "125913.872500", "125915.372500", "125916.872500", "125918.372500", "125919.872500", "125921.372500", "125922.872500", "125924.372500", "125925.872500", "125927.372500", "125928.872500", "125930.372500", "125931.872500", "125933.372500", "125934.872500", "125936.372500", "125937.872500", "125939.372500", "125940.872500", "125942.372500", "125943.872500", "125945.372500", "125946.872500", "125948.372500", "125949.872500", "125951.372500", "125952.872500", "125954.372500", "125955.872500", "125957.372500", "125958.872500", "130000.372500", "130001.872500", "130003.372500", "130004.872500", "130006.372500", "130007.872500", "130009.372500", "130010.872500", "130012.372500", "130013.872500", "130015.372500", "130016.872500", "130018.372500", "130019.872500", "130021.372500", "130022.872500", "130024.372500", "130025.872500", "130027.372500", "130028.872500", "130030.372500", "130031.872500", "130033.372500", "130034.872500", "130036.372500", "130037.872500", "130039.372500", "130040.872500", "130042.372500", "130043.872500", "130045.372500", "130046.872500", "130048.372500", "130049.872500", "130051.372500", "130052.872500", "130054.372500", "130055.872500", "130057.372500", "130058.872500", "130100.372500", "130101.872500", "130103.372500", "130104.872500", "130106.372500", "130107.872500", "130109.372500", "130110.872500", "130112.372500", "130113.872500", "130115.372500", "130116.872500", "130118.372500", "130119.872500", "130121.372500", "130122.872500", "130124.372500", "130125.872500", "130127.372500", "130128.872500", "130130.372500", "130131.872500", "130133.372500", "130134.872500", "130136.372500", "130137.872500", "130139.372500", "130140.872500", "130142.372500", "130143.872500", "130145.372500", "130146.872500", "130148.372500", "130149.872500", "130151.372500", "130152.872500", "130154.372500", "130155.872500", "130157.372500", "130158.872500", "130200.372500", "130201.872500", "130203.372500", "130204.872500", "130206.372500", "130207.872500", "130209.372500", "130210.872500", "130212.372500", "130213.872500", "130215.372500", "130216.872500", "130218.372500", "130219.872500", "130221.372500", "130222.872500", "130224.372500", "130225.872500", "130227.372500", "130228.872500", "130230.372500", "130231.872500", "130233.372500", "130234.872500", "130236.372500", "130237.872500", "130239.372500", "130240.872500", "130242.372500", "130243.872500", "130245.372500", "130246.872500", "130248.372500", "130249.872500", "130251.372500", "130252.872500", "130254.372500", "130255.872500", "130257.372500", "130258.872500", "130300.372500", "130301.872500", "130303.372500", "130304.872500", "130306.372500", "130307.872500", "130309.372500", "130310.872500", "130312.372500", "130313.872500", "130315.372500", "130316.872500", "130318.372500", "130319.872500", "130321.372500", "130322.872500", "130324.372500", "130325.872500", "130327.372500", "130328.872500", "130330.372500", "130331.872500", "130333.372500", "130334.872500", "130336.372500", "130337.872500", "130339.372500", "130340.872500", "130342.372500", "130343.872500", "130345.372500", "130346.872500", "130348.372500", "130349.872500", "130351.372500", "130352.872500", "130354.372500", "130355.872500", "130357.372500", "130358.872500", "130400.372500", "130401.872500", "130403.372500", "130404.872500", "130406.372500", "130407.872500", "130409.372500", "130410.872500", "130412.372500", "130413.872500", "130415.372500", "130416.872500", "130418.372500", "130419.872500", "130421.372500", "130422.872500", "130424.372500", "130425.872500", "130427.372500", "130428.872500", "130430.372500", "130431.872500", "130433.372500", "130434.872500", "130436.372500", "130437.872500", "130439.372500", "130440.872500", "130442.372500", "130443.872500", "130445.372500", "130446.872500", "130448.372500", "130449.872500", "130451.372500", "130452.872500", "130454.372500", "130455.872500", "130457.372500", "130458.872500", "130500.372500", "130501.872500", "130503.372500", "130504.872500", "130506.372500", "130507.872500", "130509.372500", "130510.872500", "130512.372500", "130513.872500", "130515.372500", "130516.872500", "130518.372500", "130519.872500", "130521.372500", "130522.872500", "130524.372500", "130525.872500", "130527.372500", "130528.872500", "130530.372500", "130531.872500", "130533.372500", "130534.872500", "130536.372500", "130537.872500", "130539.372500", "130540.872500", "130542.372500", "130543.872500", "130545.372500", "130546.872500", "130548.372500", "130549.872500", "130551.372500", "130552.872500", "130554.372500", "130555.872500", "130557.372500", "130558.872500", "130600.372500", "130601.872500", "130603.372500", "130604.872500", "130606.372500", "130607.872500", "130609.372500", "130610.872500", "130612.372500", "130613.872500", "130615.372500", "130616.872500", "130618.372500", "130619.872500", "130621.372500", "130622.872500", "130624.372500", "130625.872500", "130627.372500", "130628.872500", "130630.372500", "130631.872500", "130633.372500", "130634.872500", "130636.372500", "130637.872500", "130639.372500", "130640.872500", "130642.372500", "130643.872500", "130645.372500", "130646.872500", "130648.372500", "130649.872500", "130651.372500", "130652.872500", "130654.372500", "130655.872500", "130657.372500", "130658.872500", "130700.372500", "130701.872500", "130703.372500", "130704.872500", "130706.372500", "130707.872500", "130709.372500", "130710.872500", "130712.372500", "130713.872500", "130715.372500", "130716.872500", "130718.372500", "130719.872500", "130721.372500", "130722.872500", "130724.372500", "130725.872500", "130727.372500", "130728.872500", "130730.372500", "130731.872500", "130733.372500", "130734.872500", "130736.372500", "130737.872500", "130739.372500", "130740.872500", "130742.372500", "130743.872500", "130745.372500", "130746.872500", "130748.372500", "130749.872500", "130751.372500", "130752.872500", "130754.372500", "130755.872500", "130757.372500", "130758.872500", "130800.372500", "130801.872500", "130803.372500", "130804.872500", "130806.372500", "130807.872500", "130809.372500", "130810.872500", "130812.372500", "130813.872500", "130815.372500", "130816.872500", "130818.372500", "130819.872500", "130821.372500", "130822.872500", "130824.372500", "130825.872500", "130827.372500", "130828.872500", "130830.372500", "130831.872500", "130833.372500", "130834.872500", "130836.372500", "130837.872500", "130839.372500", "130840.872500", "130842.372500", "130843.872500", "130845.372500", "130846.872500", "130848.372500", "130849.872500", "130851.372500", "130852.872500", "130854.372500", "130855.872500", "130857.372500", "130858.872500", "130900.372500", "130901.872500", "130903.372500", "130904.872500", "130906.372500", "130907.872500", "130909.372500", "130910.872500", "130912.372500", "130913.872500", "130915.372500", "130916.872500", "130918.372500", "130919.872500", "130921.372500", "130922.872500", "130924.372500", "130925.872500", "130927.372500", "130928.872500", "130930.372500", "130931.872500", "130933.372500", "130934.872500", "130936.372500", "130937.872500", "130939.372500", "130940.872500", "130942.372500", "130943.872500", "130945.372500", "130946.872500", "130948.372500", "130949.872500", "130951.372500", "130952.872500", "130954.372500", "130955.872500", "130957.372500", "130958.872500", "131000.372500", "131001.872500", "131003.372500", "131004.872500", "131006.372500", "131007.872500", "131009.372500", "131010.872500", "131012.372500", "131013.872500", "131015.372500", "131016.872500", "131018.372500", "131019.872500", "131021.372500", "131022.872500", "131024.372500", "131025.872500", "131027.372500", "131028.872500", "131030.372500", "131031.872500", "131033.372500", "131034.872500", "131036.372500", "131037.872500", "131039.372500", "131040.872500", "131042.372500", "131043.872500", "131045.372500", "131046.872500", "131048.372500", "131049.872500", "131051.372500", "131052.872500", "131054.372500", "131055.872500", "131057.372500", "131058.872500", "131100.372500", "131101.872500", "131103.372500", "131104.872500", "131106.372500", "131107.872500", "131109.372500", "131110.872500", "131112.372500", "131113.872500", "131115.372500", "131116.872500", "131118.372500", "131119.872500", "131121.372500", "131122.872500", "131124.372500", "131125.872500", "131127.372500", "131128.872500", "131130.372500", "131131.872500", "131133.372500", "131134.872500", "131136.372500", "131137.872500", "131139.372500", "131140.872500", "131142.372500", "131143.872500", "131145.372500", "131146.872500", "131148.372500", "131149.872500", "131151.372500", "131152.872500", "131154.372500", "131155.872500", "131157.372500", "131158.872500", "131200.372500", "131201.872500", "131203.372500", "131204.872500", "131206.372500", "131207.872500", "131209.372500", "131210.872500", "131212.372500", "131213.872500", "131215.372500", "131216.872500", "131218.372500", "131219.872500", "131221.372500", "131222.872500", "131224.372500", "131225.872500", "131227.372500", "131228.872500", "131230.372500", "131231.872500", "131233.372500", "131234.872500", "131236.372500", "131237.872500", "131239.372500", "131240.872500", "131242.372500", "131243.872500", "131245.372500", "131246.872500", "131248.372500", "131249.872500", "131251.372500", "131252.872500", "131254.372500", "131255.872500", "131257.372500", "131258.872500", "131300.372500", "131301.872500", "131303.372500", "131304.872500", "131306.372500", "131307.872500", "131309.372500", "131310.872500", "131312.372500", "131313.872500", "131315.372500", "131316.872500", "131318.372500", "131319.872500", "131321.372500", "131322.872500", "131324.372500", "131325.872500", "131327.372500", "131328.872500", "131330.372500", "131331.872500", "131333.372500", "131334.872500", "131336.372500", "131337.872500", "131339.372500", "131340.872500", "131342.372500", "131343.872500", "131345.372500", "131346.872500", "131348.372500", "131349.872500", "131351.372500", "131352.872500", "131354.372500", "131355.872500", "131357.372500", "131358.872500", "131400.372500", "131401.872500", "131403.372500", "131404.872500", "131406.372500", "131407.872500", "131409.372500", "131410.872500", "131412.372500", "131413.872500", "131415.372500", "131416.872500", "131418.372500", "131419.872500", "131421.372500", "131422.872500", "131424.372500", "131425.872500", "131427.372500", "131428.872500", "131430.372500", "131431.872500", "131433.372500", "131434.872500", "131436.372500", "131437.872500", "131439.372500", "131440.872500", "131442.372500", "131443.872500", "131445.372500", "131446.872500", "131448.372500", "131449.872500", "131451.372500", "131452.872500", "131454.372500", "131455.872500", "131457.372500", "131458.872500", "131500.372500", "131501.872500", "131503.372500", "131504.872500", "131506.372500", "131507.872500", "131509.372500", "131510.872500", "131512.372500", "131513.872500", "131515.372500", "131516.872500", "131518.372500", "131519.872500", "131521.372500", "131522.872500", "131524.372500", "131525.872500", "131527.372500", "131528.872500", "131530.372500", "131531.872500", "131533.372500", "131534.872500", "131536.372500", "131537.872500", "131539.372500", "131540.872500", "131542.372500", "131543.872500", "131545.372500", "131546.872500", "131548.372500", "131549.872500", "131551.372500", "131552.872500", "131554.372500", "131555.872500", "131557.372500", "131558.872500", "131600.372500", "131601.872500", "131603.372500", "131604.872500", "131606.372500", "131607.872500", "131609.372500", "131610.872500", "131612.372500", "131613.872500", "131615.372500", "131616.872500", "131618.372500", "131619.872500", "131621.372500", "131622.872500", "131624.372500", "131625.872500", "131627.372500", "131628.872500", "131630.372500", "131631.872500", "131633.372500", "131634.872500", "131636.372500", "131637.872500", "131639.372500", "131640.872500", "131642.372500", "131643.872500", "131645.372500", "131646.872500", "131648.372500", "131649.872500", "131651.372500", "131652.872500", "131654.372500", "131655.872500", "131657.372500", "131658.872500", "131700.372500", "131701.872500", "131703.372500", "131704.872500", "131706.372500", "131707.872500", "131709.372500", "131710.872500", "131712.372500", "131713.872500", "131715.372500", "131716.872500", "131718.372500", "131719.872500", "131721.372500", "131722.872500", "131724.372500", "131725.872500", "131727.372500", "131728.872500", "131730.372500", "131731.872500", "131733.372500", "131734.872500", "131736.372500", "131737.872500", "131739.372500", "131740.872500", "131742.372500", "131743.872500", "131745.372500", "131746.872500", "131748.372500", "131749.872500", "131751.372500", "131752.872500", "131754.372500", "131755.872500", "131757.372500", "131758.872500", "131800.372500", "131801.872500", "131803.372500", "131804.872500", "131806.372500", "131807.872500", "131809.372500", "131810.872500", "131812.372500", "131813.872500", "131815.372500", "131816.872500", "131818.372500", "131819.872500", "131821.372500", "131822.872500", "131824.372500", "131825.872500", "131827.372500", "131828.872500", "131830.372500", "131831.872500", "131833.372500", "131834.872500", "131836.372500", "131837.872500", "131839.372500", "131840.872500", "131842.372500", "131843.872500", "131845.372500", "131846.872500", "131848.372500", "131849.872500", "131851.372500", "131852.872500", "131854.372500", "131855.872500", "131857.372500", "131858.872500", "131900.372500", "131901.872500", "131903.372500", "131904.872500", "131906.372500", "131907.872500", "131909.372500", "131910.872500", "131912.372500", "131913.872500", "131915.372500", "131916.872500", "131918.372500", "131919.872500", "131921.372500", "131922.872500", "131924.372500", "131925.872500", "131927.372500", "131928.872500", "131930.372500", "131931.872500", "131933.372500", "131934.872500", "131936.372500", "131937.872500", "131939.372500", "131940.872500", "131942.372500", "131943.872500", "131945.372500", "131946.872500", "131948.372500", "131949.872500", "131951.372500", "131952.872500", "131954.372500", "131955.872500", "131957.372500", "131958.872500", "132000.372500", "132001.872500", "132003.372500", "132004.872500", "132006.372500", "132007.872500", "132009.372500", "132010.872500", "132012.372500", "132013.872500", "132015.372500", "132016.872500", "132018.372500", "132019