{
  "AcquisitionMatrixPE": 106,
  "AcquisitionNumber": 1,
  "AcquisitionTime": "10:51:14.520000",
  "BandwidthPerPixelPhaseEncode": 16.846,
  "BaseResolution": 106,
  "BodyPartExamined": "BRAIN",
  "CoilCombinationMethod": "Sum of Squares",
  "ConsistencyInfo": "N4_VE11C_LATEST_20160120",
  "ConversionSoftware": "dcm2niix",
  "ConversionSoftwareVersion": "v1.0.20220720",
  "DerivedVendorReportedEchoSpacing": 0.000560012,
  "DeviceSerialNumber": "166108",
  "DwellTime": 1.8e-06,
  "EchoTime": 0.0352,
  "EchoTrainLength": 106,
  "EffectiveEchoSpacing": 0.000560012,
  "FlipAngle": 60,
  "HeudiconvVersion": "1.3.0",
  "ImageComments": "Unaliased MB4/PE3/LB",
  "ImageOrientationPatientDICOM": [1, 0, 0, 0, 1, 0],
  "ImageOrientationText": "Tra",
  "ImageType": [
    "ORIGINAL",
    "PRIMARY",
    "M",
    "MB",
    "ND",
    "MOSAIC"
],
  "ImagingFrequency": 123.244,
  "InPlanePhaseEncodingDirectionDICOM": "COL",
  "InstitutionAddress": "Bedford Way 26,London,London,GB,WC1H 0AP",
  "InstitutionName": "University College",
  "InstitutionalDepartmentName": "Department",
  "MRAcquisitionType": "2D",
  "MagneticFieldStrength": 3,
  "Manufacturer": "Siemens",
  "ManufacturersModelName": "Prisma",
  "MatrixCoilMode": "SENSE",
  "Modality": "MR",
  "MultibandAccelerationFactor": 4,
  "NonlinearGradientCorrection": false,
  "PartialFourier": 1,
  "PatientPosition": "HFS",
  "PercentPhaseFOV": 100,
  "PercentSampling": 100,
  "PhaseEncodingDirection": "j-",
  "PhaseEncodingSteps": 106,
  "PhaseResolution": 1,
  "PixelBandwidth": 2620,
  "ProcedureStepDescription": "Egor^MovieProject2",
  "ProtocolName": "task-backtothefuture_run-1",
  "PulseSequenceDetails": "%CustomerSeq%\\cmrr_mbep2d_bold",
  "ReceiveCoilActiveElements": "HEA;HEP",
  "ReceiveCoilName": "Head_32",
  "ReconMatrixPE": 106,
  "RepetitionTime": 1.5,
  "SAR": 0.0759745,
  "ScanOptions": "FS\\EXT",
  "ScanningSequence": "EP",
  "SequenceName": "epfid2d1_106",
  "SequenceVariant": "SK\\SS",
  "SeriesDescription": "task-backtothefuture_run-1",
  "SeriesNumber": 3,
  "ShimSetting": [-1571, 658, 7369, 177, 37, 12, -115, -12],
  "SliceThickness": 2,
  "SliceTiming": [0, 1.07, 0.66, 0.2475, 1.3175, 0.905, 0.495, 0.0825, 1.1525, 0.74, 0.33, 1.4, 0.9875, 0.5775, 0.165, 1.235, 0.8225, 0.4125, 0, 1.07, 0.66, 0.2475, 1.3175, 0.905, 0.495, 0.0825, 1.1525, 0.74, 0.33, 1.4, 0.9875, 0.5775, 0.165, 1.235, 0.8225, 0.4125, 0, 1.07, 0.66, 0.2475, 1.3175, 0.905, 0.495, 0.0825, 1.1525, 0.74, 0.33, 1.4, 0.9875, 0.5775, 0.165, 1.235, 0.8225, 0.4125, 0, 1.07, 0.66, 0.2475, 1.3175, 0.905, 0.495, 0.0825, 1.1525, 0.74, 0.33, 1.4, 0.9875, 0.5775, 0.165, 1.235, 0.8225, 0.4125],
  "SoftwareVersions": "syngo MR E11",
  "SpacingBetweenSlices": 2,
  "StationName": "AWP166108",
  "TaskName": "backtothefuture",
  "TotalReadoutTime": 0.0588013,
  "TxRefAmp": 237.071,
  "WipMemBlock": "13e67479-186f-4ad4-834f-d7530301944e||Sequence: R016 ve11c/master r/e634e98; Dec 19 2017 11:00:25 by eja",
  "dcmmeta_affine": [
    [-2.0, 0.0, 0.0, 106.0],
    [0.0, 2.0, 0.0, -94.96385955810547],
    [0.0, 0.0, 2.0, -58.95180892944336],
    [0.0, 0.0, 0.0, 1.0]
],
  "dcmmeta_reorient_transform": [
    [0.0, -1.0, 0.0, 105.0],
    [1.0, 0.0, 0.0, 0.0],
    [0.0, 0.0, 1.0, 0.0],
    [0.0, 0.0, 0.0, 1.0]
],
  "dcmmeta_shape": [106, 106, 72, 1360],
  "dcmmeta_slice_dim": 2,
  "dcmmeta_version": 0.6,
  "global": {
    "const": {
      "AcquisitionMatrix": [106, 0, 0, 106],
      "AngioFlag": "N",
      "BitsAllocated": 16,
      "BitsStored": 16,
      "BodyPartExamined": "BRAIN",
      "CardiacNumberOfImages": 1,
      "Columns": 954,
      "EchoNumbers": 1,
      "EchoTime": 35.2,
      "EchoTrainLength": 106,
      "FlipAngle": 60.0,
      "HighBit": 15,
      "ImageOrientationPatient": [1.0, 0.0, 0.0, 0.0, 1.0, 0.0],
      "ImagePositionPatient": [-954.0, -963.03614425659, -58.951808929443],
      "ImageType": [
        "ORIGINAL",
        "PRIMARY",
        "M",
        "MB",
        "ND",
        "MOSAIC"
],
      "ImagedNucleus": "1H",
      "ImagingFrequency": 123.243691,
      "InPlanePhaseEncodingDirection": "COL",
      "MRAcquisitionType": "2D",
      "MagneticFieldStrength": 3.0,
      "Manufacturer": "SIEMENS",
      "ManufacturerModelName": "Prisma",
      "Modality": "MR",
      "NominalInterval": 0,
      "NumberOfAverages": 1.0,
      "NumberOfPhaseEncodingSteps": 106,
      "PercentPhaseFieldOfView": 100.0,
      "PercentSampling": 100.0,
      "PerformedProcedureStepStartTime": "101309.142000",
      "PhotometricInterpretation": "MONOCHROME2",
      "PixelBandwidth": 2620.0,
      "PixelRepresentation": 0,
      "PixelSpacing": [2.0, 2.0],
      "ProtocolName": "task-backtothefuture_run-1",
      "RepetitionTime": 1500.0,
      "Rows": 954,
      "SAR": 0.07597447676005,
      "SamplesPerPixel": 1,
      "ScanOptions": [
        "FS",
        "EXT"
],
      "ScanningSequence": "EP",
      "SequenceName": "epfid2d1_106",
      "SequenceVariant": [
        "SK",
        "SS"
],
      "SeriesDescription": "task-backtothefuture_run-1",
      "SeriesNumber": 3,
      "SeriesTime": "105158.192000",
      "SliceLocation": -58.951808929443,
      "SliceThickness": 2.0,
      "SmallestImagePixelValue": 0,
      "SoftwareVersions": "syngo MR E11",
      "SpacingBetweenSlices": 2.0000000537281,
      "SpecificCharacterSet": "ISO_IR 100",
      "StudyID": "1",
      "StudyTime": "101309.077000",
      "TransmitCoilName": "Body",
      "VariableFlipAngleFlag": "N",
      "WindowCenterWidthExplanation": "Algo1",
      "dBdt": 0.0},
    "slices": {}
  },
  "time": {
    "samples": {
      "AcquisitionNumber": [1, 2, 3, 4, 5, 6, 7, 8, 9, 10, 11, 12, 13, 14, 15, 16, 17, 18, 19, 20, 21, 22, 23, 24, 25, 26, 27, 28, 29, 30, 31, 32, 33, 34, 35, 36, 37, 38, 39, 40, 41, 42, 43, 44, 45, 46, 47, 48, 49, 50, 51, 52, 53, 54, 55, 56, 57, 58, 59, 60, 61, 62, 63, 64, 65, 66, 67, 68, 69, 70, 71, 72, 73, 74, 75, 76, 77, 78, 79, 80, 81, 82, 83, 84, 85, 86, 87, 88, 89, 90, 91, 92, 93, 94, 95, 96, 97, 98, 99, 100, 101, 102, 103, 104, 105, 106, 107, 108, 109, 110, 111, 112, 113, 114, 115, 116, 117, 118, 119, 120, 121, 122, 123, 124, 125, 126, 127, 128, 129, 130, 131, 132, 133, 134, 135, 136, 137, 138, 139, 140, 141, 142, 143, 144, 145, 146, 147, 148, 149, 150, 151, 152, 153, 154, 155, 156, 157, 158, 159, 160, 161, 162, 163, 164, 165, 166, 167, 168, 169, 170, 171, 172, 173, 174, 175, 176, 177, 178, 179, 180, 181, 182, 183, 184, 185, 186, 187, 188, 189, 190, 191, 192, 193, 194, 195, 196, 197, 198, 199, 200, 201, 202, 203, 204, 205, 206, 207, 208, 209, 210, 211, 212, 213, 214, 215, 216, 217, 218, 219, 220, 221, 222, 223, 224, 225, 226, 227, 228, 229, 230, 231, 232, 233, 234, 235, 236, 237, 238, 239, 240, 241, 242, 243, 244, 245, 246, 247, 248, 249, 250, 251, 252, 253, 254, 255, 256, 257, 258, 259, 260, 261, 262, 263, 264, 265, 266, 267, 268, 269, 270, 271, 272, 273, 274, 275, 276, 277, 278, 279, 280, 281, 282, 283, 284, 285, 286, 287, 288, 289, 290, 291, 292, 293, 294, 295, 296, 297, 298, 299, 300, 301, 302, 303, 304, 305, 306, 307, 308, 309, 310, 311, 312, 313, 314, 315, 316, 317, 318, 319, 320, 321, 322, 323, 324, 325, 326, 327, 328, 329, 330, 331, 332, 333, 334, 335, 336, 337, 338, 339, 340, 341, 342, 343, 344, 345, 346, 347, 348, 349, 350, 351, 352, 353, 354, 355, 356, 357, 358, 359, 360, 361, 362, 363, 364, 365, 366, 367, 368, 369, 370, 371, 372, 373, 374, 375, 376, 377, 378, 379, 380, 381, 382, 383, 384, 385, 386, 387, 388, 389, 390, 391, 392, 393, 394, 395, 396, 397, 398, 399, 400, 401, 402, 403, 404, 405, 406, 407, 408, 409, 410, 411, 412, 413, 414, 415, 416, 417, 418, 419, 420, 421, 422, 423, 424, 425, 426, 427, 428, 429, 430, 431, 432, 433, 434, 435, 436, 437, 438, 439, 440, 441, 442, 443, 444, 445, 446, 447, 448, 449, 450, 451, 452, 453, 454, 455, 456, 457, 458, 459, 460, 461, 462, 463, 464, 465, 466, 467, 468, 469, 470, 471, 472, 473, 474, 475, 476, 477, 478, 479, 480, 481, 482, 483, 484, 485, 486, 487, 488, 489, 490, 491, 492, 493, 494, 495, 496, 497, 498, 499, 500, 501, 502, 503, 504, 505, 506, 507, 508, 509, 510, 511, 512, 513, 514, 515, 516, 517, 518, 519, 520, 521, 522, 523, 524, 525, 526, 527, 528, 529, 530, 531, 532, 533, 534, 535, 536, 537, 538, 539, 540, 541, 542, 543, 544, 545, 546, 547, 548, 549, 550, 551, 552, 553, 554, 555, 556, 557, 558, 559, 560, 561, 562, 563, 564, 565, 566, 567, 568, 569, 570, 571, 572, 573, 574, 575, 576, 577, 578, 579, 580, 581, 582, 583, 584, 585, 586, 587, 588, 589, 590, 591, 592, 593, 594, 595, 596, 597, 598, 599, 600, 601, 602, 603, 604, 605, 606, 607, 608, 609, 610, 611, 612, 613, 614, 615, 616, 617, 618, 619, 620, 621, 622, 623, 624, 625, 626, 627, 628, 629, 630, 631, 632, 633, 634, 635, 636, 637, 638, 639, 640, 641, 642, 643, 644, 645, 646, 647, 648, 649, 650, 651, 652, 653, 654, 655, 656, 657, 658, 659, 660, 661, 662, 663, 664, 665, 666, 667, 668, 669, 670, 671, 672, 673, 674, 675, 676, 677, 678, 679, 680, 681, 682, 683, 684, 685, 686, 687, 688, 689, 690, 691, 692, 693, 694, 695, 696, 697, 698, 699, 700, 701, 702, 703, 704, 705, 706, 707, 708, 709, 710, 711, 712, 713, 714, 715, 716, 717, 718, 719, 720, 721, 722, 723, 724, 725, 726, 727, 728, 729, 730, 731, 732, 733, 734, 735, 736, 737, 738, 739, 740, 741, 742, 743, 744, 745, 746, 747, 748, 749, 750, 751, 752, 753, 754, 755, 756, 757, 758, 759, 760, 761, 762, 763, 764, 765, 766, 767, 768, 769, 770, 771, 772, 773, 774, 775, 776, 777, 778, 779, 780, 781, 782, 783, 784, 785, 786, 787, 788, 789, 790, 791, 792, 793, 794, 795, 796, 797, 798, 799, 800, 801, 802, 803, 804, 805, 806, 807, 808, 809, 810, 811, 812, 813, 814, 815, 816, 817, 818, 819, 820, 821, 822, 823, 824, 825, 826, 827, 828, 829, 830, 831, 832, 833, 834, 835, 836, 837, 838, 839, 840, 841, 842, 843, 844, 845, 846, 847, 848, 849, 850, 851, 852, 853, 854, 855, 856, 857, 858, 859, 860, 861, 862, 863, 864, 865, 866, 867, 868, 869, 870, 871, 872, 873, 874, 875, 876, 877, 878, 879, 880, 881, 882, 883, 884, 885, 886, 887, 888, 889, 890, 891, 892, 893, 894, 895, 896, 897, 898, 899, 900, 901, 902, 903, 904, 905, 906, 907, 908, 909, 910, 911, 912, 913, 914, 915, 916, 917, 918, 919, 920, 921, 922, 923, 924, 925, 926, 927, 928, 929, 930, 931, 932, 933, 934, 935, 936, 937, 938, 939, 940, 941, 942, 943, 944, 945, 946, 947, 948, 949, 950, 951, 952, 953, 954, 955, 956, 957, 958, 959, 960, 961, 962, 963, 964, 965, 966, 967, 968, 969, 970, 971, 972, 973, 974, 975, 976, 977, 978, 979, 980, 981, 982, 983, 984, 985, 986, 987, 988, 989, 990, 991, 992, 993, 994, 995, 996, 997, 998, 999, 1000, 1001, 1002, 1003, 1004, 1005, 1006, 1007, 1008, 1009, 1010, 1011, 1012, 1013, 1014, 1015, 1016, 1017, 1018, 1019, 1020, 1021, 1022, 1023, 1024, 1025, 1026, 1027, 1028, 1029, 1030, 1031, 1032, 1033, 1034, 1035, 1036, 1037, 1038, 1039, 1040, 1041, 1042, 1043, 1044, 1045, 1046, 1047, 1048, 1049, 1050, 1051, 1052, 1053, 1054, 1055, 1056, 1057, 1058, 1059, 1060, 1061, 1062, 1063, 1064, 1065, 1066, 1067, 1068, 1069, 1070, 1071, 1072, 1073, 1074, 1075, 1076, 1077, 1078, 1079, 1080, 1081, 1082, 1083, 1084, 1085, 1086, 1087, 1088, 1089, 1090, 1091, 1092, 1093, 1094, 1095, 1096, 1097, 1098, 1099, 1100, 1101, 1102, 1103, 1104, 1105, 1106, 1107, 1108, 1109, 1110, 1111, 1112, 1113, 1114, 1115, 1116, 1117, 1118, 1119, 1120, 1121, 1122, 1123, 1124, 1125, 1126, 1127, 1128, 1129, 1130, 1131, 1132, 1133, 1134, 1135, 1136, 1137, 1138, 1139, 1140, 1141, 1142, 1143, 1144, 1145, 1146, 1147, 1148, 1149, 1150, 1151, 1152, 1153, 1154, 1155, 1156, 1157, 1158, 1159, 1160, 1161, 1162, 1163, 1164, 1165, 1166, 1167, 1168, 1169, 1170, 1171, 1172, 1173, 1174, 1175, 1176, 1177, 1178, 1179, 1180, 1181, 1182, 1183, 1184, 1185, 1186, 1187, 1188, 1189, 1190, 1191, 1192, 1193, 1194, 1195, 1196, 1197, 1198, 1199, 1200, 1201, 1202, 1203, 1204, 1205, 1206, 1207, 1208, 1209, 1210, 1211, 1212, 1213, 1214, 1215, 1216, 1217, 1218, 1219, 1220, 1221, 1222, 1223, 1224, 1225, 1226, 1227, 1228, 1229, 1230, 1231, 1232, 1233, 1234, 1235, 1236, 1237, 1238, 1239, 1240, 1241, 1242, 1243, 1244, 1245, 1246, 1247, 1248, 1249, 1250, 1251, 1252, 1253, 1254, 1255, 1256, 1257, 1258, 1259, 1260, 1261, 1262, 1263, 1264, 1265, 1266, 1267, 1268, 1269, 1270, 1271, 1272, 1273, 1274, 1275, 1276, 1277, 1278, 1279, 1280, 1281, 1282, 1283, 1284, 1285, 1286, 1287, 1288, 1289, 1290, 1291, 1292, 1293, 1294, 1295, 1296, 1297, 1298, 1299, 1300, 1301, 1302, 1303, 1304, 1305, 1306, 1307, 1308, 1309, 1310, 1311, 1312, 1313, 1314, 1315, 1316, 1317, 1318, 1319, 1320, 1321, 1322, 1323, 1324, 1325, 1326, 1327, 1328, 1329, 1330, 1331, 1332, 1333, 1334, 1335, 1336, 1337, 1338, 1339, 1340, 1341, 1342, 1343, 1344, 1345, 1346, 1347, 1348, 1349, 1350, 1351, 1352, 1353, 1354, 1355, 1356, 1357, 1358, 1359, 1360],
      "AcquisitionTime": ["105114.520000", "105116.020000", "105117.520000", "105119.020000", "105120.520000", "105122.020000", "105123.520000", "105125.020000", "105126.520000", "105128.020000", "105129.520000", "105131.020000", "105132.520000", "105134.020000", "105135.520000", "105137.020000", "105138.520000", "105140.020000", "105141.520000", "105143.020000", "105144.520000", "105146.020000", "105147.520000", "105149.020000", "105150.520000", "105152.020000", "105153.520000", "105155.020000", "105156.520000", "105158.020000", "105159.520000", "105201.020000", "105202.520000", "105204.020000", "105205.520000", "105207.020000", "105208.520000", "105210.020000", "105211.520000", "105213.020000", "105214.520000", "105216.020000", "105217.520000", "105219.020000", "105220.520000", "105222.020000", "105223.520000", "105225.020000", "105226.520000", "105228.020000", "105229.520000", "105231.020000", "105232.520000", "105234.020000", "105235.520000", "105237.020000", "105238.520000", "105240.020000", "105241.520000", "105243.020000", "105244.520000", "105246.020000", "105247.520000", "105249.020000", "105250.520000", "105252.020000", "105253.520000", "105255.020000", "105256.520000", "105258.020000", "105259.520000", "105301.020000", "105302.520000", "105304.020000", "105305.520000", "105307.020000", "105308.520000", "105310.020000", "105311.520000", "105313.020000", "105314.520000", "105316.020000", "105317.520000", "105319.020000", "105320.520000", "105322.020000", "105323.520000", "105325.020000", "105326.520000", "105328.020000", "105329.520000", "105331.020000", "105332.520000", "105334.020000", "105335.520000", "105337.020000", "105338.520000", "105340.020000", "105341.520000", "105343.020000", "105344.520000", "105346.020000", "105347.520000", "105349.020000", "105350.520000", "105352.020000", "105353.520000", "105355.020000", "105356.520000", "105358.020000", "105359.520000", "105401.020000", "105402.520000", "105404.020000", "105405.520000", "105407.020000", "105408.520000", "105410.020000", "105411.520000", "105413.020000", "105414.520000", "105416.020000", "105417.520000", "105419.020000", "105420.520000", "105422.020000", "105423.520000", "105425.020000", "105426.520000", "105428.020000", "105429.520000", "105431.020000", "105432.520000", "105434.020000", "105435.520000", "105437.020000", "105438.520000", "105440.020000", "105441.520000", "105443.020000", "105444.520000", "105446.020000", "105447.520000", "105449.020000", "105450.520000", "105452.020000", "105453.520000", "105455.020000", "105456.520000", "105458.020000", "105459.520000", "105501.020000", "105502.520000", "105504.020000", "105505.520000", "105507.020000", "105508.520000", "105510.020000", "105511.520000", "105513.020000", "105514.520000", "105516.020000", "105517.520000", "105519.020000", "105520.520000", "105522.020000", "105523.520000", "105525.020000", "105526.520000", "105528.020000", "105529.520000", "105531.020000", "105532.520000", "105534.020000", "105535.520000", "105537.020000", "105538.520000", "105540.020000", "105541.520000", "105543.020000", "105544.520000", "105546.020000", "105547.520000", "105549.020000", "105550.520000", "105552.020000", "105553.520000", "105555.020000", "105556.520000", "105558.020000", "105559.520000", "105601.020000", "105602.520000", "105604.020000", "105605.520000", "105607.020000", "105608.520000", "105610.020000", "105611.520000", "105613.020000", "105614.520000", "105616.020000", "105617.520000", "105619.020000", "105620.520000", "105622.020000", "105623.520000", "105625.020000", "105626.520000", "105628.020000", "105629.520000", "105631.020000", "105632.520000", "105634.020000", "105635.520000", "105637.020000", "105638.520000", "105640.020000", "105641.520000", "105643.020000", "105644.520000", "105646.020000", "105647.520000", "105649.020000", "105650.520000", "105652.020000", "105653.520000", "105655.020000", "105656.520000", "105658.020000", "105659.520000", "105701.020000", "105702.520000", "105704.020000", "105705.520000", "105707.020000", "105708.520000", "105710.020000", "105711.520000", "105713.020000", "105714.520000", "105716.020000", "105717.520000", "105719.020000", "105720.520000", "105722.020000", "105723.520000", "105725.020000", "105726.520000", "105728.020000", "105729.520000", "105731.020000", "105732.520000", "105734.020000", "105735.520000", "105737.020000", "105738.520000", "105740.020000", "105741.520000", "105743.020000", "105744.520000", "105746.020000", "105747.520000", "105749.020000", "105750.520000", "105752.020000", "105753.520000", "105755.020000", "105756.520000", "105758.020000", "105759.520000", "105801.020000", "105802.520000", "105804.020000", "105805.520000", "105807.020000", "105808.520000", "105810.020000", "105811.520000", "105813.020000", "105814.520000", "105816.020000", "105817.520000", "105819.020000", "105820.520000", "105822.020000", "105823.520000", "105825.020000", "105826.520000", "105828.020000", "105829.520000", "105831.020000", "105832.520000", "105834.020000", "105835.520000", "105837.020000", "105838.520000", "105840.020000", "105841.520000", "105843.020000", "105844.520000", "105846.020000", "105847.520000", "105849.020000", "105850.520000", "105852.020000", "105853.520000", "105855.020000", "105856.520000", "105858.020000", "105859.520000", "105901.020000", "105902.520000", "105904.020000", "105905.520000", "105907.020000", "105908.520000", "105910.020000", "105911.520000", "105913.020000", "105914.520000", "105916.020000", "105917.520000", "105919.020000", "105920.520000", "105922.020000", "105923.520000", "105925.020000", "105926.520000", "105928.020000", "105929.520000", "105931.020000", "105932.520000", "105934.020000", "105935.520000", "105937.020000", "105938.520000", "105940.020000", "105941.520000", "105943.020000", "105944.520000", "105946.020000", "105947.520000", "105949.020000", "105950.520000", "105952.020000", "105953.520000", "105955.020000", "105956.520000", "105958.020000", "105959.520000", "110001.020000", "110002.520000", "110004.020000", "110005.520000", "110007.020000", "110008.520000", "110010.020000", "110011.520000", "110013.020000", "110014.520000", "110016.020000", "110017.520000", "110019.020000", "110020.520000", "110022.020000", "110023.520000", "110025.020000", "110026.520000", "110028.020000", "110029.520000", "110031.020000", "110032.520000", "110034.020000", "110035.520000", "110037.020000", "110038.520000", "110040.020000", "110041.520000", "110043.020000", "110044.520000", "110046.020000", "110047.520000", "110049.020000", "110050.520000", "110052.020000", "110053.520000", "110055.020000", "110056.520000", "110058.020000", "110059.520000", "110101.020000", "110102.520000", "110104.020000", "110105.520000", "110107.020000", "110108.520000", "110110.020000", "110111.520000", "110113.020000", "110114.520000", "110116.020000", "110117.520000", "110119.020000", "110120.520000", "110122.020000", "110123.520000", "110125.020000", "110126.520000", "110128.020000", "110129.520000", "110131.020000", "110132.520000", "110134.020000", "110135.520000", "110137.020000", "110138.520000", "110140.020000", "110141.520000", "110143.020000", "110144.520000", "110146.020000", "110147.520000", "110149.020000", "110150.520000", "110152.020000", "110153.520000", "110155.020000", "110156.520000", "110158.020000", "110159.520000", "110201.020000", "110202.520000", "110204.020000", "110205.520000", "110207.020000", "110208.520000", "110210.020000", "110211.520000", "110213.020000", "110214.520000", "110216.020000", "110217.520000", "110219.020000", "110220.520000", "110222.020000", "110223.520000", "110225.020000", "110226.520000", "110228.020000", "110229.520000", "110231.020000", "110232.520000", "110234.020000", "110235.520000", "110237.020000", "110238.520000", "110240.020000", "110241.520000", "110243.020000", "110244.520000", "110246.020000", "110247.520000", "110249.020000", "110250.520000", "110252.020000", "110253.520000", "110255.020000", "110256.520000", "110258.020000", "110259.520000", "110301.020000", "110302.520000", "110304.020000", "110305.520000", "110307.020000", "110308.520000", "110310.020000", "110311.520000", "110313.020000", "110314.520000", "110316.020000", "110317.520000", "110319.020000", "110320.520000", "110322.020000", "110323.520000", "110325.020000", "110326.520000", "110328.020000", "110329.520000", "110331.020000", "110332.520000", "110334.020000", "110335.520000", "110337.020000", "110338.520000", "110340.020000", "110341.520000", "110343.020000", "110344.520000", "110346.020000", "110347.520000", "110349.020000", "110350.520000", "110352.020000", "110353.520000", "110355.020000", "110356.520000", "110358.020000", "110359.520000", "110401.020000", "110402.520000", "110404.020000", "110405.520000", "110407.020000", "110408.520000", "110410.020000", "110411.520000", "110413.020000", "110414.520000", "110416.020000", "110417.520000", "110419.020000", "110420.520000", "110422.020000", "110423.520000", "110425.020000", "110426.520000", "110428.020000", "110429.520000", "110431.020000", "110432.520000", "110434.020000", "110435.520000", "110437.020000", "110438.520000", "110440.020000", "110441.520000", "110443.020000", "110444.520000", "110446.020000", "110447.520000", "110449.020000", "110450.520000", "110452.020000", "110453.520000", "110455.020000", "110456.520000", "110458.020000", "110459.520000", "110501.020000", "110502.520000", "110504.020000", "110505.520000", "110507.020000", "110508.520000", "110510.020000", "110511.520000", "110513.020000", "110514.520000", "110516.020000", "110517.520000", "110519.020000", "110520.520000", "110522.020000", "110523.520000", "110525.020000", "110526.520000", "110528.020000", "110529.520000", "110531.020000", "110532.520000", "110534.020000", "110535.520000", "110537.020000", "110538.520000", "110540.020000", "110541.520000", "110543.020000", "110544.520000", "110546.020000", "110547.520000", "110549.020000", "110550.520000", "110552.020000", "110553.520000", "110555.020000", "110556.520000", "110558.020000", "110559.520000", "110601.020000", "110602.520000", "110604.020000", "110605.520000", "110607.020000", "110608.520000", "110610.020000", "110611.520000", "110613.020000", "110614.520000", "110616.020000", "110617.520000", "110619.020000", "110620.520000", "110622.020000", "110623.520000", "110625.020000", "110626.520000", "110628.020000", "110629.520000", "110631.020000", "110632.520000", "110634.020000", "110635.520000", "110637.020000", "110638.520000", "110640.020000", "110641.520000", "110643.020000", "110644.520000", "110646.020000", "110647.520000", "110649.020000", "110650.520000", "110652.020000", "110653.520000", "110655.020000", "110656.520000", "110658.020000", "110659.520000", "110701.020000", "110702.520000", "110704.020000", "110705.520000", "110707.020000", "110708.520000", "110710.020000", "110711.520000", "110713.020000", "110714.520000", "110716.020000", "110717.520000", "110719.020000", "110720.520000", "110722.020000", "110723.520000", "110725.020000", "110726.520000", "110728.020000", "110729.520000", "110731.020000", "110732.520000", "110734.020000", "110735.520000", "110737.020000", "110738.520000", "110740.020000", "110741.520000", "110743.020000", "110744.520000", "110746.020000", "110747.520000", "110749.020000", "110750.520000", "110752.020000", "110753.520000", "110755.020000", "110756.520000", "110758.020000", "110759.520000", "110801.020000", "110802.520000", "110804.020000", "110805.520000", "110807.020000", "110808.520000", "110810.020000", "110811.520000", "110813.020000", "110814.520000", "110816.020000", "110817.520000", "110819.020000", "110820.520000", "110822.020000", "110823.520000", "110825.020000", "110826.520000", "110828.020000", "110829.520000", "110831.020000", "110832.520000", "110834.020000", "110835.520000", "110837.020000", "110838.520000", "110840.020000", "110841.520000", "110843.020000", "110844.520000", "110846.020000", "110847.520000", "110849.020000", "110850.520000", "110852.020000", "110853.520000", "110855.020000", "110856.520000", "110858.020000", "110859.520000", "110901.020000", "110902.520000", "110904.020000", "110905.520000", "110907.020000", "110908.520000", "110910.020000", "110911.520000", "110913.020000", "110914.520000", "110916.020000", "110917.520000", "110919.020000", "110920.520000", "110922.020000", "110923.520000", "110925.020000", "110926.520000", "110928.020000", "110929.520000", "110931.020000", "110932.520000", "110934.020000", "110935.520000", "110937.020000", "110938.520000", "110940.020000", "110941.520000", "110943.020000", "110944.520000", "110946.020000", "110947.520000", "110949.020000", "110950.520000", "110952.020000", "110953.520000", "110955.020000", "110956.520000", "110958.020000", "110959.520000", "111001.020000", "111002.520000", "111004.020000", "111005.520000", "111007.020000", "111008.520000", "111010.020000", "111011.520000", "111013.020000", "111014.520000", "111016.020000", "111017.520000", "111019.020000", "111020.520000", "111022.020000", "111023.520000", "111025.020000", "111026.520000", "111028.020000", "111029.520000", "111031.020000", "111032.520000", "111034.020000", "111035.520000", "111037.020000", "111038.520000", "111040.020000", "111041.520000", "111043.020000", "111044.520000", "111046.020000", "111047.520000", "111049.020000", "111050.520000", "111052.020000", "111053.520000", "111055.020000", "111056.520000", "111058.020000", "111059.520000", "111101.020000", "111102.520000", "111104.020000", "111105.520000", "111107.020000", "111108.520000", "111110.020000", "111111.520000", "111113.020000", "111114.520000", "111116.020000", "111117.520000", "111119.020000", "111120.520000", "111122.020000", "111123.520000", "111125.020000", "111126.520000", "111128.020000", "111129.520000", "111131.020000", "111132.520000", "111134.020000", "111135.520000", "111137.020000", "111138.520000", "111140.020000", "111141.520000", "111143.020000", "111144.520000", "111146.020000", "111147.520000", "111149.020000", "111150.520000", "111152.020000", "111153.520000", "111155.020000", "111156.520000", "111158.020000", "111159.520000", "111201.020000", "111202.520000", "111204.020000", "111205.520000", "111207.020000", "111208.520000", "111210.020000", "111211.520000", "111213.020000", "111214.520000", "111216.020000", "111217.520000", "111219.020000", "111220.520000", "111222.020000", "111223.520000", "111225.020000", "111226.520000", "111228.020000", "111229.520000", "111231.020000", "111232.520000", "111234.020000", "111235.520000", "111237.020000", "111238.520000", "111240.020000", "111241.520000", "111243.020000", "111244.520000", "111246.020000", "111247.520000", "111249.020000", "111250.520000", "111252.020000", "111253.520000", "111255.020000", "111256.520000", "111258.020000", "111259.520000", "111301.020000", "111302.520000", "111304.020000", "111305.520000", "111307.020000", "111308.520000", "111310.020000", "111311.520000", "111313.020000", "111314.520000", "111316.020000", "111317.520000", "111319.020000", "111320.520000", "111322.020000", "111323.520000", "111325.020000", "111326.520000", "111328.020000", "111329.520000", "111331.020000", "111332.520000", "111334.020000", "111335.520000", "111337.020000", "111338.520000", "111340.020000", "111341.520000", "111343.020000", "111344.520000", "111346.020000", "111347.520000", "111349.020000", "111350.520000", "111352.020000", "111353.520000", "111355.020000", "111356.520000", "111358.020000", "111359.520000", "111401.020000", "111402.520000", "111404.020000", "111405.520000", "111407.020000", "111408.520000", "111410.020000", "111411.520000", "111413.020000", "111414.520000", "111416.020000", "111417.520000", "111419.020000", "111420.520000", "111422.020000", "111423.520000", "111425.020000", "111426.520000", "111428.020000", "111429.520000", "111431.020000", "111432.520000", "111434.020000", "111435.520000", "111437.020000", "111438.520000", "111440.020000", "111441.520000", "111443.020000", "111444.520000", "111446.020000", "111447.520000", "111449.020000", "111450.520000", "111452.020000", "111453.520000", "111455.020000", "111456.520000", "111458.020000", "111459.520000", "111501.020000", "111502.520000", "111504.020000", "111505.520000", "111507.020000", "111508.520000", "111510.020000", "111511.520000", "111513.020000", "111514.520000", "111516.020000", "111517.520000", "111519.020000", "111520.520000", "111522.020000", "111523.520000", "111525.020000", "111526.520000", "111528.020000", "111529.520000", "111531.020000", "111532.520000", "111534.020000", "111535.520000", "111537.020000", "111538.520000", "111540.020000", "111541.520000", "111543.020000", "111544.520000", "111546.020000", "111547.520000", "111549.020000", "111550.520000", "111552.020000", "111553.520000", "111555.020000", "111556.520000", "111558.020000", "111559.520000", "111601.020000", "111602.520000", "111604.020000", "111605.520000", "111607.020000", "111608.520000", "111610.020000", "111611.520000", "111613.020000", "111614.520000", "111616.020000", "111617.520000", "111619.020000", "111620.520000", "111622.020000", "111623.520000", "111625.020000", "111626.520000", "111628.020000", "111629.520000", "111631.020000", "111632.520000", "111634.020000", "111635.520000", "111637.020000", "111638.520000", "111640.020000", "11