{
  "AcquisitionMatrixPE": 106,
  "AcquisitionNumber": 1,
  "AcquisitionTime": "12:11:39.630000",
  "BandwidthPerPixelPhaseEncode": 16.846,
  "BaseResolution": 106,
  "BodyPartExamined": "BRAIN",
  "CoilCombinationMethod": "Sum of Squares",
  "ConsistencyInfo": "N4_VE11C_LATEST_20160120",
  "ConversionSoftware": "dcm2niix",
  "ConversionSoftwareVersion": "v1.0.20220720",
  "DerivedVendorReportedEchoSpacing": 0.000560012,
  "DeviceSerialNumber": "166108",
  "DwellTime": 1.8e-06,
  "EchoTime": 0.0352,
  "EchoTrainLength": 106,
  "EffectiveEchoSpacing": 0.000560012,
  "FlipAngle": 60,
  "HeudiconvVersion": "1.3.0",
  "ImageComments": "Unaliased MB4/PE3/LB",
  "ImageOrientationPatientDICOM": [1, 0, 0, 0, 1, 0],
  "ImageOrientationText": "Tra",
  "ImageType": [
    "ORIGINAL",
    "PRIMARY",
    "M",
    "MB",
    "ND",
    "MOSAIC"
],
  "ImagingFrequency": 123.244,
  "InPlanePhaseEncodingDirectionDICOM": "COL",
  "InstitutionAddress": "Bedford Way 26,London,London,GB,WC1H 0AP",
  "InstitutionName": "University College",
  "InstitutionalDepartmentName": "Department",
  "MRAcquisitionType": "2D",
  "MagneticFieldStrength": 3,
  "Manufacturer": "Siemens",
  "ManufacturersModelName": "Prisma",
  "MatrixCoilMode": "SENSE",
  "Modality": "MR",
  "MultibandAccelerationFactor": 4,
  "NonlinearGradientCorrection": false,
  "PartialFourier": 1,
  "PatientPosition": "HFS",
  "PercentPhaseFOV": 100,
  "PercentSampling": 100,
  "PhaseEncodingDirection": "j-",
  "PhaseEncodingSteps": 106,
  "PhaseResolution": 1,
  "PixelBandwidth": 2620,
  "ProcedureStepDescription": "Egor^MovieProject2",
  "ProtocolName": "task-backtothefuture_run-3",
  "PulseSequenceDetails": "%CustomerSeq%\\cmrr_mbep2d_bold",
  "ReceiveCoilActiveElements": "HEA;HEP",
  "ReceiveCoilName": "Head_32",
  "ReconMatrixPE": 106,
  "RepetitionTime": 1.5,
  "SAR": 0.0759955,
  "ScanOptions": "FS\\EXT",
  "ScanningSequence": "EP",
  "SequenceName": "epfid2d1_106",
  "SequenceVariant": "SK\\SS",
  "SeriesDescription": "task-backtothefuture_run-3",
  "SeriesNumber": 11,
  "ShimSetting": [-1571, 658, 7369, 177, 37, 12, -115, -12],
  "SliceThickness": 2,
  "SliceTiming": [0, 1.0675, 0.6575, 0.2475, 1.315, 0.905, 0.4925, 0.0825, 1.15, 0.74, 0.3275, 1.3975, 0.9875, 0.575, 0.165, 1.2325, 0.8225, 0.41, 0, 1.0675, 0.6575, 0.2475, 1.315, 0.905, 0.4925, 0.0825, 1.15, 0.74, 0.3275, 1.3975, 0.9875, 0.575, 0.165, 1.2325, 0.8225, 0.41, 0, 1.0675, 0.6575, 0.2475, 1.315, 0.905, 0.4925, 0.0825, 1.15, 0.74, 0.3275, 1.3975, 0.9875, 0.575, 0.165, 1.2325, 0.8225, 0.41, 0, 1.0675, 0.6575, 0.2475, 1.315, 0.905, 0.4925, 0.0825, 1.15, 0.74, 0.3275, 1.3975, 0.9875, 0.575, 0.165, 1.2325, 0.8225, 0.41],
  "SoftwareVersions": "syngo MR E11",
  "SpacingBetweenSlices": 2,
  "StationName": "AWP166108",
  "TaskName": "backtothefuture",
  "TotalReadoutTime": 0.0588013,
  "TxRefAmp": 237.071,
  "WipMemBlock": "62874e04-eefd-4a6a-9d75-300549fc9f11||Sequence: R016 ve11c/master r/e634e98; Dec 19 2017 11:00:25 by eja",
  "dcmmeta_affine": [
    [-2.0, 0.0, 0.0, 106.0],
    [0.0, 2.0, 0.0, -94.96385955810547],
    [0.0, 0.0, 2.0, -58.95180892944336],
    [0.0, 0.0, 0.0, 1.0]
],
  "dcmmeta_reorient_transform": [
    [0.0, -1.0, 0.0, 105.0],
    [1.0, 0.0, 0.0, 0.0],
    [0.0, 0.0, 1.0, 0.0],
    [0.0, 0.0, 0.0, 1.0]
],
  "dcmmeta_shape": [106, 106, 72, 1608],
  "dcmmeta_slice_dim": 2,
  "dcmmeta_version": 0.6,
  "global": {
    "const": {
      "AcquisitionMatrix": [106, 0, 0, 106],
      "AngioFlag": "N",
      "BitsAllocated": 16,
      "BitsStored": 16,
      "BodyPartExamined": "BRAIN",
      "CardiacNumberOfImages": 1,
      "Columns": 954,
      "EchoNumbers": 1,
      "EchoTime": 35.2,
      "EchoTrainLength": 106,
      "FlipAngle": 60.0,
      "HighBit": 15,
      "ImageOrientationPatient": [1.0, 0.0, 0.0, 0.0, 1.0, 0.0],
      "ImagePositionPatient": [-954.0, -963.03614425659, -58.951808929443],
      "ImageType": [
        "ORIGINAL",
        "PRIMARY",
        "M",
        "MB",
        "ND",
        "MOSAIC"
],
      "ImagedNucleus": "1H",
      "ImagingFrequency": 123.243728,
      "InPlanePhaseEncodingDirection": "COL",
      "MRAcquisitionType": "2D",
      "MagneticFieldStrength": 3.0,
      "Manufacturer": "SIEMENS",
      "ManufacturerModelName": "Prisma",
      "Modality": "MR",
      "NominalInterval": 0,
      "NumberOfAverages": 1.0,
      "NumberOfPhaseEncodingSteps": 106,
      "PercentPhaseFieldOfView": 100.0,
      "PercentSampling": 100.0,
      "PerformedProcedureStepStartTime": "101309.142000",
      "PhotometricInterpretation": "MONOCHROME2",
      "PixelBandwidth": 2620.0,
      "PixelRepresentation": 0,
      "PixelSpacing": [2.0, 2.0],
      "ProtocolName": "task-backtothefuture_run-3",
      "RepetitionTime": 1500.0,
      "Rows": 954,
      "SAR": 0.07599553960363,
      "SamplesPerPixel": 1,
      "ScanOptions": [
        "FS",
        "EXT"
],
      "ScanningSequence": "EP",
      "SequenceName": "epfid2d1_106",
      "SequenceVariant": [
        "SK",
        "SS"
],
      "SeriesDescription": "task-backtothefuture_run-3",
      "SeriesNumber": 11,
      "SeriesTime": "121220.852000",
      "SliceLocation": -58.951808929443,
      "SliceThickness": 2.0,
      "SmallestImagePixelValue": 0,
      "SoftwareVersions": "syngo MR E11",
      "SpacingBetweenSlices": 2.0000000537281,
      "SpecificCharacterSet": "ISO_IR 100",
      "StudyID": "1",
      "StudyTime": "101309.077000",
      "TransmitCoilName": "Body",
      "VariableFlipAngleFlag": "N",
      "WindowCenterWidthExplanation": "Algo1",
      "dBdt": 0.0},
    "slices": {}
  },
  "time": {
    "samples": {
      "AcquisitionNumber": [1, 2, 3, 4, 5, 6, 7, 8, 9, 10, 11, 12, 13, 14, 15, 16, 17, 18, 19, 20, 21, 22, 23, 24, 25, 26, 27, 28, 29, 30, 31, 32, 33, 34, 35, 36, 37, 38, 39, 40, 41, 42, 43, 44, 45, 46, 47, 48, 49, 50, 51, 52, 53, 54, 55, 56, 57, 58, 59, 60, 61, 62, 63, 64, 65, 66, 67, 68, 69, 70, 71, 72, 73, 74, 75, 76, 77, 78, 79, 80, 81, 82, 83, 84, 85, 86, 87, 88, 89, 90, 91, 92, 93, 94, 95, 96, 97, 98, 99, 100, 101, 102, 103, 104, 105, 106, 107, 108, 109, 110, 111, 112, 113, 114, 115, 116, 117, 118, 119, 120, 121, 122, 123, 124, 125, 126, 127, 128, 129, 130, 131, 132, 133, 134, 135, 136, 137, 138, 139, 140, 141, 142, 143, 144, 145, 146, 147, 148, 149, 150, 151, 152, 153, 154, 155, 156, 157, 158, 159, 160, 161, 162, 163, 164, 165, 166, 167, 168, 169, 170, 171, 172, 173, 174, 175, 176, 177, 178, 179, 180, 181, 182, 183, 184, 185, 186, 187, 188, 189, 190, 191, 192, 193, 194, 195, 196, 197, 198, 199, 200, 201, 202, 203, 204, 205, 206, 207, 208, 209, 210, 211, 212, 213, 214, 215, 216, 217, 218, 219, 220, 221, 222, 223, 224, 225, 226, 227, 228, 229, 230, 231, 232, 233, 234, 235, 236, 237, 238, 239, 240, 241, 242, 243, 244, 245, 246, 247, 248, 249, 250, 251, 252, 253, 254, 255, 256, 257, 258, 259, 260, 261, 262, 263, 264, 265, 266, 267, 268, 269, 270, 271, 272, 273, 274, 275, 276, 277, 278, 279, 280, 281, 282, 283, 284, 285, 286, 287, 288, 289, 290, 291, 292, 293, 294, 295, 296, 297, 298, 299, 300, 301, 302, 303, 304, 305, 306, 307, 308, 309, 310, 311, 312, 313, 314, 315, 316, 317, 318, 319, 320, 321, 322, 323, 324, 325, 326, 327, 328, 329, 330, 331, 332, 333, 334, 335, 336, 337, 338, 339, 340, 341, 342, 343, 344, 345, 346, 347, 348, 349, 350, 351, 352, 353, 354, 355, 356, 357, 358, 359, 360, 361, 362, 363, 364, 365, 366, 367, 368, 369, 370, 371, 372, 373, 374, 375, 376, 377, 378, 379, 380, 381, 382, 383, 384, 385, 386, 387, 388, 389, 390, 391, 392, 393, 394, 395, 396, 397, 398, 399, 400, 401, 402, 403, 404, 405, 406, 407, 408, 409, 410, 411, 412, 413, 414, 415, 416, 417, 418, 419, 420, 421, 422, 423, 424, 425, 426, 427, 428, 429, 430, 431, 432, 433, 434, 435, 436, 437, 438, 439, 440, 441, 442, 443, 444, 445, 446, 447, 448, 449, 450, 451, 452, 453, 454, 455, 456, 457, 458, 459, 460, 461, 462, 463, 464, 465, 466, 467, 468, 469, 470, 471, 472, 473, 474, 475, 476, 477, 478, 479, 480, 481, 482, 483, 484, 485, 486, 487, 488, 489, 490, 491, 492, 493, 494, 495, 496, 497, 498, 499, 500, 501, 502, 503, 504, 505, 506, 507, 508, 509, 510, 511, 512, 513, 514, 515, 516, 517, 518, 519, 520, 521, 522, 523, 524, 525, 526, 527, 528, 529, 530, 531, 532, 533, 534, 535, 536, 537, 538, 539, 540, 541, 542, 543, 544, 545, 546, 547, 548, 549, 550, 551, 552, 553, 554, 555, 556, 557, 558, 559, 560, 561, 562, 563, 564, 565, 566, 567, 568, 569, 570, 571, 572, 573, 574, 575, 576, 577, 578, 579, 580, 581, 582, 583, 584, 585, 586, 587, 588, 589, 590, 591, 592, 593, 594, 595, 596, 597, 598, 599, 600, 601, 602, 603, 604, 605, 606, 607, 608, 609, 610, 611, 612, 613, 614, 615, 616, 617, 618, 619, 620, 621, 622, 623, 624, 625, 626, 627, 628, 629, 630, 631, 632, 633, 634, 635, 636, 637, 638, 639, 640, 641, 642, 643, 644, 645, 646, 647, 648, 649, 650, 651, 652, 653, 654, 655, 656, 657, 658, 659, 660, 661, 662, 663, 664, 665, 666, 667, 668, 669, 670, 671, 672, 673, 674, 675, 676, 677, 678, 679, 680, 681, 682, 683, 684, 685, 686, 687, 688, 689, 690, 691, 692, 693, 694, 695, 696, 697, 698, 699, 700, 701, 702, 703, 704, 705, 706, 707, 708, 709, 710, 711, 712, 713, 714, 715, 716, 717, 718, 719, 720, 721, 722, 723, 724, 725, 726, 727, 728, 729, 730, 731, 732, 733, 734, 735, 736, 737, 738, 739, 740, 741, 742, 743, 744, 745, 746, 747, 748, 749, 750, 751, 752, 753, 754, 755, 756, 757, 758, 759, 760, 761, 762, 763, 764, 765, 766, 767, 768, 769, 770, 771, 772, 773, 774, 775, 776, 777, 778, 779, 780, 781, 782, 783, 784, 785, 786, 787, 788, 789, 790, 791, 792, 793, 794, 795, 796, 797, 798, 799, 800, 801, 802, 803, 804, 805, 806, 807, 808, 809, 810, 811, 812, 813, 814, 815, 816, 817, 818, 819, 820, 821, 822, 823, 824, 825, 826, 827, 828, 829, 830, 831, 832, 833, 834, 835, 836, 837, 838, 839, 840, 841, 842, 843, 844, 845, 846, 847, 848, 849, 850, 851, 852, 853, 854, 855, 856, 857, 858, 859, 860, 861, 862, 863, 864, 865, 866, 867, 868, 869, 870, 871, 872, 873, 874, 875, 876, 877, 878, 879, 880, 881, 882, 883, 884, 885, 886, 887, 888, 889, 890, 891, 892, 893, 894, 895, 896, 897, 898, 899, 900, 901, 902, 903, 904, 905, 906, 907, 908, 909, 910, 911, 912, 913, 914, 915, 916, 917, 918, 919, 920, 921, 922, 923, 924, 925, 926, 927, 928, 929, 930, 931, 932, 933, 934, 935, 936, 937, 938, 939, 940, 941, 942, 943, 944, 945, 946, 947, 948, 949, 950, 951, 952, 953, 954, 955, 956, 957, 958, 959, 960, 961, 962, 963, 964, 965, 966, 967, 968, 969, 970, 971, 972, 973, 974, 975, 976, 977, 978, 979, 980, 981, 982, 983, 984, 985, 986, 987, 988, 989, 990, 991, 992, 993, 994, 995, 996, 997, 998, 999, 1000, 1001, 1002, 1003, 1004, 1005, 1006, 1007, 1008, 1009, 1010, 1011, 1012, 1013, 1014, 1015, 1016, 1017, 1018, 1019, 1020, 1021, 1022, 1023, 1024, 1025, 1026, 1027, 1028, 1029, 1030, 1031, 1032, 1033, 1034, 1035, 1036, 1037, 1038, 1039, 1040, 1041, 1042, 1043, 1044, 1045, 1046, 1047, 1048, 1049, 1050, 1051, 1052, 1053, 1054, 1055, 1056, 1057, 1058, 1059, 1060, 1061, 1062, 1063, 1064, 1065, 1066, 1067, 1068, 1069, 1070, 1071, 1072, 1073, 1074, 1075, 1076, 1077, 1078, 1079, 1080, 1081, 1082, 1083, 1084, 1085, 1086, 1087, 1088, 1089, 1090, 1091, 1092, 1093, 1094, 1095, 1096, 1097, 1098, 1099, 1100, 1101, 1102, 1103, 1104, 1105, 1106, 1107, 1108, 1109, 1110, 1111, 1112, 1113, 1114, 1115, 1116, 1117, 1118, 1119, 1120, 1121, 1122, 1123, 1124, 1125, 1126, 1127, 1128, 1129, 1130, 1131, 1132, 1133, 1134, 1135, 1136, 1137, 1138, 1139, 1140, 1141, 1142, 1143, 1144, 1145, 1146, 1147, 1148, 1149, 1150, 1151, 1152, 1153, 1154, 1155, 1156, 1157, 1158, 1159, 1160, 1161, 1162, 1163, 1164, 1165, 1166, 1167, 1168, 1169, 1170, 1171, 1172, 1173, 1174, 1175, 1176, 1177, 1178, 1179, 1180, 1181, 1182, 1183, 1184, 1185, 1186, 1187, 1188, 1189, 1190, 1191, 1192, 1193, 1194, 1195, 1196, 1197, 1198, 1199, 1200, 1201, 1202, 1203, 1204, 1205, 1206, 1207, 1208, 1209, 1210, 1211, 1212, 1213, 1214, 1215, 1216, 1217, 1218, 1219, 1220, 1221, 1222, 1223, 1224, 1225, 1226, 1227, 1228, 1229, 1230, 1231, 1232, 1233, 1234, 1235, 1236, 1237, 1238, 1239, 1240, 1241, 1242, 1243, 1244, 1245, 1246, 1247, 1248, 1249, 1250, 1251, 1252, 1253, 1254, 1255, 1256, 1257, 1258, 1259, 1260, 1261, 1262, 1263, 1264, 1265, 1266, 1267, 1268, 1269, 1270, 1271, 1272, 1273, 1274, 1275, 1276, 1277, 1278, 1279, 1280, 1281, 1282, 1283, 1284, 1285, 1286, 1287, 1288, 1289, 1290, 1291, 1292, 1293, 1294, 1295, 1296, 1297, 1298, 1299, 1300, 1301, 1302, 1303, 1304, 1305, 1306, 1307, 1308, 1309, 1310, 1311, 1312, 1313, 1314, 1315, 1316, 1317, 1318, 1319, 1320, 1321, 1322, 1323, 1324, 1325, 1326, 1327, 1328, 1329, 1330, 1331, 1332, 1333, 1334, 1335, 1336, 1337, 1338, 1339, 1340, 1341, 1342, 1343, 1344, 1345, 1346, 1347, 1348, 1349, 1350, 1351, 1352, 1353, 1354, 1355, 1356, 1357, 1358, 1359, 1360, 1361, 1362, 1363, 1364, 1365, 1366, 1367, 1368, 1369, 1370, 1371, 1372, 1373, 1374, 1375, 1376, 1377, 1378, 1379, 1380, 1381, 1382, 1383, 1384, 1385, 1386, 1387, 1388, 1389, 1390, 1391, 1392, 1393, 1394, 1395, 1396, 1397, 1398, 1399, 1400, 1401, 1402, 1403, 1404, 1405, 1406, 1407, 1408, 1409, 1410, 1411, 1412, 1413, 1414, 1415, 1416, 1417, 1418, 1419, 1420, 1421, 1422, 1423, 1424, 1425, 1426, 1427, 1428, 1429, 1430, 1431, 1432, 1433, 1434, 1435, 1436, 1437, 1438, 1439, 1440, 1441, 1442, 1443, 1444, 1445, 1446, 1447, 1448, 1449, 1450, 1451, 1452, 1453, 1454, 1455, 1456, 1457, 1458, 1459, 1460, 1461, 1462, 1463, 1464, 1465, 1466, 1467, 1468, 1469, 1470, 1471, 1472, 1473, 1474, 1475, 1476, 1477, 1478, 1479, 1480, 1481, 1482, 1483, 1484, 1485, 1486, 1487, 1488, 1489, 1490, 1491, 1492, 1493, 1494, 1495, 1496, 1497, 1498, 1499, 1500, 1501, 1502, 1503, 1504, 1505, 1506, 1507, 1508, 1509, 1510, 1511, 1512, 1513, 1514, 1515, 1516, 1517, 1518, 1519, 1520, 1521, 1522, 1523, 1524, 1525, 1526, 1527, 1528, 1529, 1530, 1531, 1532, 1533, 1534, 1535, 1536, 1537, 1538, 1539, 1540, 1541, 1542, 1543, 1544, 1545, 1546, 1547, 1548, 1549, 1550, 1551, 1552, 1553, 1554, 1555, 1556, 1557, 1558, 1559, 1560, 1561, 1562, 1563, 1564, 1565, 1566, 1567, 1568, 1569, 1570, 1571, 1572, 1573, 1574, 1575, 1576, 1577, 1578, 1579, 1580, 1581, 1582, 1583, 1584, 1585, 1586, 1587, 1588, 1589, 1590, 1591, 1592, 1593, 1594, 1595, 1596, 1597, 1598, 1599, 1600, 1601, 1602, 1603, 1604, 1605, 1606, 1607, 1608],
      "AcquisitionTime": ["121139.630000", "121141.130000", "121142.630000", "121144.130000", "121145.630000", "121147.130000", "121148.630000", "121150.130000", "121151.630000", "121153.130000", "121154.630000", "121156.130000", "121157.630000", "121159.130000", "121200.630000", "121202.130000", "121203.630000", "121205.130000", "121206.630000", "121208.130000", "121209.630000", "121211.130000", "121212.630000", "121214.130000", "121215.630000", "121217.130000", "121218.630000", "121220.130000", "121221.630000", "121223.130000", "121224.630000", "121226.130000", "121227.630000", "121229.130000", "121230.630000", "121232.130000", "121233.630000", "121235.130000", "121236.630000", "121238.130000", "121239.630000", "121241.130000", "121242.630000", "121244.130000", "121245.630000", "121247.130000", "121248.630000", "121250.130000", "121251.630000", "121253.130000", "121254.630000", "121256.130000", "121257.630000", "121259.130000", "121300.630000", "121302.130000", "121303.630000", "121305.130000", "121306.630000", "121308.130000", "121309.630000", "121311.130000", "121312.630000", "121314.130000", "121315.630000", "121317.130000", "121318.630000", "121320.130000", "121321.630000", "121323.130000", "121324.630000", "121326.130000", "121327.630000", "121329.130000", "121330.630000", "121332.130000", "121333.630000", "121335.130000", "121336.630000", "121338.130000", "121339.630000", "121341.130000", "121342.630000", "121344.130000", "121345.630000", "121347.130000", "121348.630000", "121350.130000", "121351.630000", "121353.130000", "121354.630000", "121356.130000", "121357.630000", "121359.130000", "121400.630000", "121402.130000", "121403.630000", "121405.130000", "121406.630000", "121408.130000", "121409.630000", "121411.130000", "121412.630000", "121414.130000", "121415.630000", "121417.130000", "121418.630000", "121420.130000", "121421.630000", "121423.130000", "121424.630000", "121426.130000", "121427.630000", "121429.130000", "121430.630000", "121432.130000", "121433.630000", "121435.130000", "121436.630000", "121438.130000", "121439.630000", "121441.130000", "121442.630000", "121444.130000", "121445.630000", "121447.130000", "121448.630000", "121450.130000", "121451.630000", "121453.130000", "121454.630000", "121456.130000", "121457.630000", "121459.130000", "121500.630000", "121502.130000", "121503.630000", "121505.130000", "121506.630000", "121508.130000", "121509.630000", "121511.130000", "121512.630000", "121514.130000", "121515.630000", "121517.130000", "121518.630000", "121520.130000", "121521.630000", "121523.130000", "121524.630000", "121526.130000", "121527.630000", "121529.130000", "121530.630000", "121532.130000", "121533.630000", "121535.130000", "121536.630000", "121538.130000", "121539.630000", "121541.130000", "121542.630000", "121544.130000", "121545.630000", "121547.130000", "121548.630000", "121550.130000", "121551.630000", "121553.130000", "121554.630000", "121556.130000", "121557.630000", "121559.130000", "121600.630000", "121602.130000", "121603.630000", "121605.130000", "121606.630000", "121608.130000", "121609.630000", "121611.130000", "121612.630000", "121614.130000", "121615.630000", "121617.130000", "121618.630000", "121620.130000", "121621.630000", "121623.130000", "121624.630000", "121626.130000", "121627.630000", "121629.130000", "121630.630000", "121632.130000", "121633.630000", "121635.130000", "121636.630000", "121638.130000", "121639.630000", "121641.130000", "121642.630000", "121644.130000", "121645.630000", "121647.130000", "121648.630000", "121650.130000", "121651.630000", "121653.130000", "121654.630000", "121656.130000", "121657.630000", "121659.130000", "121700.630000", "121702.130000", "121703.630000", "121705.130000", "121706.630000", "121708.130000", "121709.630000", "121711.130000", "121712.630000", "121714.130000", "121715.630000", "121717.130000", "121718.630000", "121720.130000", "121721.630000", "121723.130000", "121724.630000", "121726.130000", "121727.630000", "121729.130000", "121730.630000", "121732.130000", "121733.630000", "121735.130000", "121736.630000", "121738.130000", "121739.630000", "121741.130000", "121742.630000", "121744.130000", "121745.630000", "121747.130000", "121748.630000", "121750.130000", "121751.630000", "121753.130000", "121754.630000", "121756.130000", "121757.630000", "121759.130000", "121800.630000", "121802.130000", "121803.630000", "121805.130000", "121806.630000", "121808.130000", "121809.630000", "121811.130000", "121812.630000", "121814.130000", "121815.630000", "121817.130000", "121818.630000", "121820.130000", "121821.630000", "121823.130000", "121824.630000", "121826.130000", "121827.630000", "121829.130000", "121830.630000", "121832.130000", "121833.630000", "121835.130000", "121836.630000", "121838.130000", "121839.630000", "121841.130000", "121842.630000", "121844.130000", "121845.630000", "121847.130000", "121848.630000", "121850.130000", "121851.630000", "121853.130000", "121854.630000", "121856.130000", "121857.630000", "121859.130000", "121900.630000", "121902.130000", "121903.630000", "121905.130000", "121906.630000", "121908.130000", "121909.630000", "121911.130000", "121912.630000", "121914.130000", "121915.630000", "121917.130000", "121918.630000", "121920.130000", "121921.630000", "121923.130000", "121924.630000", "121926.130000", "121927.630000", "121929.130000", "121930.630000", "121932.130000", "121933.630000", "121935.130000", "121936.630000", "121938.130000", "121939.630000", "121941.130000", "121942.630000", "121944.130000", "121945.630000", "121947.130000", "121948.630000", "121950.130000", "121951.630000", "121953.130000", "121954.630000", "121956.130000", "121957.630000", "121959.130000", "122000.630000", "122002.130000", "122003.630000", "122005.130000", "122006.630000", "122008.130000", "122009.630000", "122011.130000", "122012.630000", "122014.130000", "122015.630000", "122017.130000", "122018.630000", "122020.130000", "122021.630000", "122023.130000", "122024.630000", "122026.130000", "122027.630000", "122029.130000", "122030.630000", "122032.130000", "122033.630000", "122035.130000", "122036.630000", "122038.130000", "122039.630000", "122041.130000", "122042.630000", "122044.130000", "122045.630000", "122047.130000", "122048.630000", "122050.130000", "122051.630000", "122053.130000", "122054.630000", "122056.130000", "122057.630000", "122059.130000", "122100.630000", "122102.130000", "122103.630000", "122105.130000", "122106.630000", "122108.130000", "122109.630000", "122111.130000", "122112.630000", "122114.130000", "122115.630000", "122117.130000", "122118.630000", "122120.130000", "122121.630000", "122123.130000", "122124.630000", "122126.130000", "122127.630000", "122129.130000", "122130.630000", "122132.130000", "122133.630000", "122135.130000", "122136.630000", "122138.130000", "122139.630000", "122141.130000", "122142.630000", "122144.130000", "122145.630000", "122147.130000", "122148.630000", "122150.130000", "122151.630000", "122153.130000", "122154.630000", "122156.130000", "122157.630000", "122159.130000", "122200.630000", "122202.130000", "122203.630000", "122205.130000", "122206.630000", "122208.130000", "122209.630000", "122211.130000", "122212.630000", "122214.130000", "122215.630000", "122217.130000", "122218.630000", "122220.130000", "122221.630000", "122223.130000", "122224.630000", "122226.130000", "122227.630000", "122229.130000", "122230.630000", "122232.130000", "122233.630000", "122235.130000", "122236.630000", "122238.130000", "122239.630000", "122241.130000", "122242.630000", "122244.130000", "122245.630000", "122247.130000", "122248.630000", "122250.130000", "122251.630000", "122253.130000", "122254.630000", "122256.130000", "122257.630000", "122259.130000", "122300.630000", "122302.130000", "122303.630000", "122305.130000", "122306.630000", "122308.130000", "122309.630000", "122311.130000", "122312.630000", "122314.130000", "122315.630000", "122317.130000", "122318.630000", "122320.130000", "122321.630000", "122323.130000", "122324.630000", "122326.130000", "122327.630000", "122329.130000", "122330.630000", "122332.130000", "122333.630000", "122335.130000", "122336.630000", "122338.130000", "122339.630000", "122341.130000", "122342.630000", "122344.130000", "122345.630000", "122347.130000", "122348.630000", "122350.130000", "122351.630000", "122353.130000", "122354.630000", "122356.130000", "122357.630000", "122359.130000", "122400.630000", "122402.130000", "122403.630000", "122405.130000", "122406.630000", "122408.130000", "122409.630000", "122411.130000", "122412.630000", "122414.130000", "122415.630000", "122417.130000", "122418.630000", "122420.130000", "122421.630000", "122423.130000", "122424.630000", "122426.130000", "122427.630000", "122429.130000", "122430.630000", "122432.130000", "122433.630000", "122435.130000", "122436.630000", "122438.130000", "122439.630000", "122441.130000", "122442.630000", "122444.130000", "122445.630000", "122447.130000", "122448.630000", "122450.130000", "122451.630000", "122453.130000", "122454.630000", "122456.130000", "122457.630000", "122459.130000", "122500.630000", "122502.130000", "122503.630000", "122505.130000", "122506.630000", "122508.130000", "122509.630000", "122511.130000", "122512.630000", "122514.130000", "122515.630000", "122517.130000", "122518.630000", "122520.130000", "122521.630000", "122523.130000", "122524.630000", "122526.130000", "122527.630000", "122529.130000", "122530.630000", "122532.130000", "122533.630000", "122535.130000", "122536.630000", "122538.130000", "122539.630000", "122541.130000", "122542.630000", "122544.130000", "122545.630000", "122547.130000", "122548.630000", "122550.130000", "122551.630000", "122553.130000", "122554.630000", "122556.130000", "122557.630000", "122559.130000", "122600.630000", "122602.130000", "122603.630000", "122605.130000", "122606.630000", "122608.130000", "122609.630000", "122611.130000", "122612.630000", "122614.130000", "122615.630000", "122617.130000", "122618.630000", "122620.130000", "122621.630000", "122623.130000", "122624.630000", "122626.130000", "122627.630000", "122629.130000", "122630.630000", "122632.130000", "122633.630000", "122635.130000", "122636.630000", "122638.130000", "122639.630000", "122641.130000", "122642.630000", "122644.130000", "122645.630000", "122647.130000", "122648.630000", "122650.130000", "122651.630000", "122653.130000", "122654.630000", "122656.130000", "122657.630000", "122659.130000", "122700.630000", "122702.130000", "122703.630000", "122705.130000", "122706.630000", "122708.130000", "122709.630000", "122711.130000", "122712.630000", "122714.130000", "122715.630000", "122717.130000", "122718.630000", "122720.130000", "122721.630000", "122723.130000", "122724.630000", "122726.130000", "122727.630000", "122729.130000", "122730.630000", "122732.130000", "122733.630000", "122735.130000", "122736.630000", "122738.130000", "122739.630000", "122741.130000", "122742.630000", "122744.130000", "122745.630000", "122747.130000", "122748.630000", "122750.130000", "122751.630000", "122753.130000", "122754.630000", "122756.130000", "122757.630000", "122759.130000", "122800.630000", "122802.130000", "122803.630000", "122805.130000", "122806.630000", "122808.130000", "122809.630000", "122811.130000", "122812.630000", "122814.130000", "122815.630000", "122817.130000", "122818.630000", "122820.130000", "122821.630000", "122823.130000", "122824.630000", "122826.130000", "122827.630000", "122829.130000", "122830.630000", "122832.130000", "122833.630000", "122835.130000", "122836.630000", "122838.130000", "122839.630000", "122841.130000", "122842.630000", "122844.130000", "122845.630000", "122847.130000", "122848.630000", "122850.130000", "122851.630000", "122853.130000", "122854.630000", "122856.130000", "122857.630000", "122859.130000", "122900.630000", "122902.130000", "122903.630000", "122905.130000", "122906.630000", "122908.130000", "122909.630000", "122911.130000", "122912.630000", "122914.130000", "122915.630000", "122917.130000", "122918.630000", "122920.130000", "122921.630000", "122923.130000", "122924.630000", "122926.130000", "122927.630000", "122929.130000", "122930.630000", "122932.130000", "122933.630000", "122935.130000", "122936.630000", "122938.130000", "122939.630000", "122941.130000", "122942.630000", "122944.130000", "122945.630000", "122947.130000", "122948.630000", "122950.130000", "122951.630000", "122953.130000", "122954.630000", "122956.130000", "122957.630000", "122959.130000", "123000.630000", "123002.130000", "123003.630000", "123005.130000", "123006.630000", "123008.130000", "123009.630000", "123011.130000", "123012.630000", "123014.130000", "123015.630000", "123017.130000", "123018.630000", "123020.130000", "123021.630000", "123023.130000", "123024.630000", "123026.130000", "123027.630000", "123029.130000", "123030.630000", "123032.130000", "123033.630000", "123035.130000", "123036.630000", "123038.130000", "123039.630000", "123041.130000", "123042.630000", "123044.130000", "123045.630000", "123047.130000", "123048.630000", "123050.130000", "123051.630000", "123053.130000", "123054.630000", "123056.130000", "123057.630000", "123059.130000", "123100.630000", "123102.130000", "123103.630000", "123105.130000", "123106.630000", "123108.130000", "123109.630000", "123111.130000", "123112.630000", "123114.130000", "123115.630000", "123117.130000", "123118.630000", "123120.130000", "123121.630000", "123123.130000", "123124.630000", "123126.130000", "123127.630000", "123129.130000", "123130.630000", "123132.130000", "123133.630000", "123135.130000", "123136.630000", "123138.130000", "123139.630000", "123141.130000", "123142.630000", "123144.130000", "123145.630000", "123147.130000", "123148.630000", "123150.130000", "123151.630000", "123153.130000", "123154.630000", "123156.130000", "123157.630000", "123159.130000", "123200.630000", "123202.130000", "123203.630000", "123205.130000", "123206.630000", "123208.130000", "123209.630000", "123211.130000", "123212.630000", "123214.130000", "123215.630000", "123217.130000", "123218.630000", "123220.130000", "123221.630000", "123223.130000", "123224.630000", "123226.130000", "123227.630000", "123229.130000", "123230.630000", "123232.130000", "123233.630000", "123235.130000", "123236.630000", "123238.130000", "123239.630000", "123241.130000", "123242.630000", "123244.130000", "123245.630000", "123247.130000", "123248.630000", "123250.130000", "123251.630000", "123253.130000", "123254.630000", "123256.130000", "123257.630000", "123259.130000", "123300.630000", "123302.130000", "123303.630000", "123305.130000", "123306.630000", "123308.130000", "123309.630000", "123311.130000", "123312.630000", "123314.130000", "123315.630000", "123317.130000", "123318.630000", "123320.130000", "123321.630000", "123323.130000", "123324.630000", "123326.130000", "123327.630000", "123329.130000", "123330.630000", "123332.130000", "123333.630000", "123335.130000", "123336.630000", "123338.130000", "123339.630000", "123341.130000", "123342.630000", "123344.130000", "123345.630000", "123347.130000", "123348.630000", "123350.130000", "123351.630000", "123353.130000", "123354.630000", "123356.130000", "123357.630000", "123359.130000", "123400.630000", "123402.130000", "123403.630000", "123405.130000", "123406.630000", "123408.130000", "123409.630000", "123411.130000", "123412.630000", "123414.130000", "123415.630000", "123417.130000", "123418.630000", "123420.130000", "123421.630000", "123423.130000", "123424.630000", "123426.130000", "123427.630000", "123429.130000", "123430.630000", "123432.130000", "123433.630000", "123435.130000", "123436.630000", "123438.130000", "123439.630000", "123441.130000", "123442.630000", "123444.130000", "123445.630000", "123447.130000", "123448.630000", "123450.130000", "123451.630000", "12345