{
  "AcquisitionMatrixPE": 106,
  "AcquisitionNumber": 1,
  "AcquisitionTime": "18:47:5.222500",
  "BandwidthPerPixelPhaseEncode": 13.477,
  "BaseResolution": 106,
  "BodyPartExamined": "BRAIN",
  "CoilCombinationMethod": "Sum of Squares",
  "ConsistencyInfo": "N4_VE11C_LATEST_20160120",
  "ConversionSoftware": "dcm2niix",
  "ConversionSoftwareVersion": "v1.0.20220720",
  "DerivedVendorReportedEchoSpacing": 0.000700005,
  "DeviceSerialNumber": "166108",
  "DwellTime": 2.6e-06,
  "EchoTime": 0.03,
  "EchoTrainLength": 80,
  "EffectiveEchoSpacing": 0.000700005,
  "FlipAngle": 62,
  "HeudiconvVersion": "1.3.0",
  "ImageComments": "Unaliased MB4/PE3/LB",
  "ImageOrientationPatientDICOM": [1, 0, 0, 0, 0.944376, -0.328867],
  "ImageOrientationText": "Tra>Cor(-19.2)",
  "ImageType": [
    "ORIGINAL",
    "PRIMARY",
    "M",
    "MB",
    "ND",
    "MOSAIC"
],
  "ImagingFrequency": 123.244,
  "InPlanePhaseEncodingDirectionDICOM": "COL",
  "InstitutionAddress": "Bedford Way 26,London,London,GB,WC1H 0AP",
  "InstitutionName": "University College",
  "InstitutionalDepartmentName": "Department",
  "MRAcquisitionType": "2D",
  "MagneticFieldStrength": 3,
  "Manufacturer": "Siemens",
  "ManufacturersModelName": "Prisma",
  "MatrixCoilMode": "SENSE",
  "Modality": "MR",
  "MultibandAccelerationFactor": 4,
  "NonlinearGradientCorrection": false,
  "PartialFourier": 0.75,
  "PatientPosition": "HFS",
  "PercentPhaseFOV": 100,
  "PercentSampling": 100,
  "PhaseEncodingDirection": "j-",
  "PhaseEncodingSteps": 80,
  "PhaseResolution": 1,
  "PixelBandwidth": 1815,
  "ProcedureStepDescription": "Egor^MovieProject2",
  "ProtocolName": "func-bold_task-tono_run-01",
  "PulseSequenceDetails": "%CustomerSeq%\\cmrr_mbep2d_bold",
  "ReceiveCoilActiveElements": "HEA;HEP",
  "ReceiveCoilName": "Head_32",
  "ReconMatrixPE": 106,
  "RepetitionTime": 1,
  "SAR": 0.0353261,
  "ScanOptions": "PFP\\FS\\EXT",
  "ScanningSequence": "EP",
  "SequenceName": "epfid2d1_106",
  "SequenceVariant": "SK\\SS",
  "SeriesDescription": "func-bold_task-tono_run-01",
  "SeriesNumber": 18,
  "ShimSetting": [-1600, 614, 7418, 277, -102, 180, -10, 26],
  "SliceThickness": 2,
  "SliceTiming": [0, 0.535, 0.0875, 0.6225, 0.1775, 0.7125, 0.2675, 0.8, 0.355, 0.89, 0.445, 0, 0.535, 0.0875, 0.6225, 0.1775, 0.7125, 0.2675, 0.8, 0.355, 0.89, 0.445, 0, 0.535, 0.0875, 0.6225, 0.1775, 0.7125, 0.2675, 0.8, 0.355, 0.89, 0.445, 0, 0.535, 0.0875, 0.6225, 0.1775, 0.7125, 0.2675, 0.8, 0.355, 0.89, 0.445],
  "SoftwareVersions": "syngo MR E11",
  "SpacingBetweenSlices": 2,
  "StationName": "AWP166108",
  "TaskName": "tonotopy",
  "TotalReadoutTime": 0.0735005,
  "TxRefAmp": 217.941,
  "WipMemBlock": "671a7fb0-b5d7-479e-a2fb-84591fa71ed8||Sequence: R016 ve11c/master r/e634e98; Dec 19 2017 11:00:25 by eja",
  "dcmmeta_affine": [
    [-2.0, 0.0, 0.0, 106.0],
    [0.0, 1.8887526988983154, -0.6577333211898804, -82.2861328125],
    [0.0, 0.6577333211898804, 1.8887526988983154, -56.594032287597656],
    [0.0, 0.0, 0.0, 1.0]
],
  "dcmmeta_reorient_transform": [
    [0.0, -1.0, 0.0, 105.0],
    [1.0, 0.0, 0.0, 0.0],
    [0.0, 0.0, 1.0, 0.0],
    [0.0, 0.0, 0.0, 1.0]
],
  "dcmmeta_shape": [106, 106, 44, 264],
  "dcmmeta_slice_dim": 2,
  "dcmmeta_version": 0.6,
  "global": {
    "const": {
      "AcquisitionMatrix": [106, 0, 0, 106],
      "AngioFlag": "N",
      "BitsAllocated": 16,
      "BitsStored": 16,
      "BodyPartExamined": "BRAIN",
      "CardiacNumberOfImages": 1,
      "Columns": 742,
      "EchoNumbers": 1,
      "EchoTime": 30.0,
      "EchoTrainLength": 80,
      "FlipAngle": 62.0,
      "HighBit": 15,
      "ImageOrientationPatient": [1.0, 0.0, 0.0, 0.0, 0.94437636797866, -0.328866653225],
      "ImagePositionPatient": [-742.0, -716.65627257038, 221.62715758409],
      "ImageType": [
        "ORIGINAL",
        "PRIMARY",
        "M",
        "MB",
        "ND",
        "MOSAIC"
],
      "ImagedNucleus": "1H",
      "ImagingFrequency": 123.243691,
      "InPlanePhaseEncodingDirection": "COL",
      "MRAcquisitionType": "2D",
      "MagneticFieldStrength": 3.0,
      "Manufacturer": "SIEMENS",
      "ManufacturerModelName": "Prisma",
      "Modality": "MR",
      "NominalInterval": 0,
      "NumberOfAverages": 1.0,
      "NumberOfPhaseEncodingSteps": 80,
      "PercentPhaseFieldOfView": 100.0,
      "PercentSampling": 100.0,
      "PerformedProcedureStepStartTime": "172905.661000",
      "PhotometricInterpretation": "MONOCHROME2",
      "PixelBandwidth": 1815.0,
      "PixelRepresentation": 0,
      "PixelSpacing": [2.0, 2.0],
      "ProtocolName": "func-bold_task-tono_run-01",
      "RepetitionTime": 1000.0,
      "Rows": 742,
      "SAR": 0.03532606842324,
      "SamplesPerPixel": 1,
      "ScanOptions": [
        "PFP",
        "FS",
        "EXT"
],
      "ScanningSequence": "EP",
      "SequenceName": "epfid2d1_106",
      "SequenceVariant": [
        "SK",
        "SS"
],
      "SeriesDescription": "func-bold_task-tono_run-01",
      "SeriesNumber": 18,
      "SeriesTime": "184743.982000",
      "SliceLocation": -26.384899748252,
      "SliceThickness": 2.0,
      "SmallestImagePixelValue": 0,
      "SoftwareVersions": "syngo MR E11",
      "SpacingBetweenSlices": 1.9999999564081,
      "SpecificCharacterSet": "ISO_IR 100",
      "StudyID": "1",
      "StudyTime": "172905.550000",
      "TransmitCoilName": "Body",
      "VariableFlipAngleFlag": "N",
      "WindowCenterWidthExplanation": "Algo1",
      "dBdt": 0.0},
    "slices": {}
  },
  "time": {
    "samples": {
      "AcquisitionNumber": [1, 2, 3, 4, 5, 6, 7, 8, 9, 10, 11, 12, 13, 14, 15, 16, 17, 18, 19, 20, 21, 22, 23, 24, 25, 26, 27, 28, 29, 30, 31, 32, 33, 34, 35, 36, 37, 38, 39, 40, 41, 42, 43, 44, 45, 46, 47, 48, 49, 50, 51, 52, 53, 54, 55, 56, 57, 58, 59, 60, 61, 62, 63, 64, 65, 66, 67, 68, 69, 70, 71, 72, 73, 74, 75, 76, 77, 78, 79, 80, 81, 82, 83, 84, 85, 86, 87, 88, 89, 90, 91, 92, 93, 94, 95, 96, 97, 98, 99, 100, 101, 102, 103, 104, 105, 106, 107, 108, 109, 110, 111, 112, 113, 114, 115, 116, 117, 118, 119, 120, 121, 122, 123, 124, 125, 126, 127, 128, 129, 130, 131, 132, 133, 134, 135, 136, 137, 138, 139, 140, 141, 142, 143, 144, 145, 146, 147, 148, 149, 150, 151, 152, 153, 154, 155, 156, 157, 158, 159, 160, 161, 162, 163, 164, 165, 166, 167, 168, 169, 170, 171, 172, 173, 174, 175, 176, 177, 178, 179, 180, 181, 182, 183, 184, 185, 186, 187, 188, 189, 190, 191, 192, 193, 194, 195, 196, 197, 198, 199, 200, 201, 202, 203, 204, 205, 206, 207, 208, 209, 210, 211, 212, 213, 214, 215, 216, 217, 218, 219, 220, 221, 222, 223, 224, 225, 226, 227, 228, 229, 230, 231, 232, 233, 234, 235, 236, 237, 238, 239, 240, 241, 242, 243, 244, 245, 246, 247, 248, 249, 250, 251, 252, 253, 254, 255, 256, 257, 258, 259, 260, 261, 262, 263, 264],
      "AcquisitionTime": ["184705.222500", "184706.222500", "184707.222500", "184708.222500", "184709.222500", "184710.222500", "184711.222500", "184712.222500", "184713.222500", "184714.222500", "184715.222500", "184716.222500", "184717.222500", "184718.222500", "184719.222500", "184720.222500", "184721.222500", "184722.222500", "184723.222500", "184724.222500", "184725.222500", "184726.222500", "184727.222500", "184728.222500", "184729.222500", "184730.222500", "184731.222500", "184732.222500", "184733.222500", "184734.222500", "184735.222500", "184736.222500", "184737.222500", "184738.222500", "184739.222500", "184740.222500", "184741.222500", "184742.222500", "184743.222500", "184744.222500", "184745.222500", "184746.222500", "184747.222500", "184748.222500", "184749.222500", "184750.222500", "184751.222500", "184752.222500", "184753.222500", "184754.222500", "184755.222500", "184756.222500", "184757.222500", "184758.222500", "184759.222500", "184800.222500", "184801.222500", "184802.222500", "184803.222500", "184804.222500", "184805.222500", "184806.222500", "184807.222500", "184808.222500", "184809.222500", "184810.222500", "184811.222500", "184812.222500", "184813.222500", "184814.222500", "184815.222500", "184816.222500", "184817.222500", "184818.222500", "184819.222500", "184820.222500", "184821.222500", "184822.222500", "184823.222500", "184824.222500", "184825.222500", "184826.222500", "184827.222500", "184828.222500", "184829.222500", "184830.222500", "184831.222500", "184832.222500", "184833.222500", "184834.222500", "184835.222500", "184836.222500", "184837.222500", "184838.222500", "184839.222500", "184840.222500", "184841.222500", "184842.222500", "184843.222500", "184844.222500", "184845.222500", "184846.222500", "184847.222500", "184848.222500", "184849.222500", "184850.222500", "184851.222500", "184852.222500", "184853.222500", "184854.222500", "184855.222500", "184856.222500", "184857.222500", "184858.222500", "184859.222500", "184900.222500", "184901.222500", "184902.222500", "184903.222500", "184904.222500", "184905.222500", "184906.222500", "184907.222500", "184908.222500", "184909.222500", "184910.222500", "184911.222500", "184912.222500", "184913.222500", "184914.222500", "184915.222500", "184916.222500", "184917.222500", "184918.222500", "184919.222500", "184920.222500", "184921.222500", "184922.222500", "184923.222500", "184924.222500", "184925.222500", "184926.222500", "184927.222500", "184928.222500", "184929.222500", "184930.222500", "184931.222500", "184932.222500", "184933.222500", "184934.222500", "184935.222500", "184936.222500", "184937.222500", "184938.222500", "184939.222500", "184940.222500", "184941.222500", "184942.222500", "184943.222500", "184944.222500", "184945.222500", "184946.222500", "184947.222500", "184948.222500", "184949.222500", "184950.222500", "184951.222500", "184952.222500", "184953.222500", "184954.222500", "184955.222500", "184956.222500", "184957.222500", "184958.222500", "184959.222500", "185000.222500", "185001.222500", "185002.222500", "185003.222500", "185004.222500", "185005.222500", "185006.222500", "185007.222500", "185008.222500", "185009.222500", "185010.222500", "185011.222500", "185012.222500", "185013.222500", "185014.222500", "185015.222500", "185016.222500", "185017.222500", "185018.222500", "185019.222500", "185020.222500", "185021.222500", "185022.222500", "185023.222500", "185024.222500", "185025.222500", "185026.222500", "185027.222500", "185028.222500", "185029.222500", "185030.222500", "185031.222500", "185032.222500", "185033.222500", "185034.222500", "185035.222500", "185036.222500", "185037.222500", "185038.222500", "185039.222500", "185040.222500", "185041.222500", "185042.222500", "185043.222500", "185044.222500", "185045.222500", "185046.222500", "185047.222500", "185048.222500", "185049.222500", "185050.222500", "185051.222500", "185052.222500", "185053.222500", "185054.222500", "185055.222500", "185056.222500", "185057.222500", "185058.222500", "185059.222500", "185100.222500", "185101.222500", "185102.222500", "185103.222500", "185104.222500", "185105.222500", "185106.222500", "185107.222500", "185108.222500", "185109.222500", "185110.222500", "185111.222500", "185112.222500", "185113.222500", "185114.222500", "185115.222500", "185116.222500", "185117.222500", "185118.222500", "185119.222500", "185120.222500", "185121.222500", "185122.222500", "185123.222500", "185124.222500", "185125.222500", "185126.222500", "185127.222500", "185128.222500"],
      "ContentTime": ["184743.984000", "184743.987000", "184743.990000", "184743.992000", "184743.995000", "184743.997000", "184744.001000", "184744.003000", "184744.005000", "184744.008000", "184744.010000", "184744.013000", "184744.015000", "184744.024000", "184744.026000", "184744.029000", "184744.031000", "184744.033000", "184744.036000", "184744.038000", "184744.048000", "184744.050000", "184744.053000", "184744.055000", "184744.057000", "184744.060000", "184744.062000", "184744.065000", "184744.067000", "184744.070000", "184744.072000", "184744.075000", "184744.077000", "184744.080000", "184744.082000", "184744.085000", "184744.087000", "184744.090000", "184803.954000", "184803.957000", "184803.960000", "184803.962000", "184803.964000", "184803.967000", "184803.969000", "184803.972000", "184803.974000", "184803.977000", "184803.979000", "184803.982000", "184803.984000", "184803.986000", "184803.989000", "184803.991000", "184804.000000", "184804.003000", "184804.005000", "184804.007000", "184823.954000", "184823.957000", "184823.960000", "184823.962000", "184823.964000", "184823.967000", "184823.969000", "184823.972000", "184823.974000", "184823.977000", "184823.979000", "184823.982000", "184823.984000", "184823.987000", "184823.989000", "184823.992000", "184823.994000", "184823.997000", "184824.000000", "184824.002000", "184843.954000", "184843.957000", "184843.959000", "184843.962000", "184843.964000", "184843.967000", "184843.969000", "184843.972000", "184843.974000", "184843.977000", "184843.979000", "184843.982000", "184843.984000", "184843.987000", "184843.989000", "184843.991000", "184843.994000", "184843.996000", "184844.000000", "184844.002000", "184903.955000", "184903.957000", "184903.960000", "184903.962000", "184903.965000", "184903.967000", "184903.970000", "184903.972000", "184903.974000", "184903.977000", "184903.979000", "184903.982000", "184903.984000", "184903.987000", "184903.989000", "184903.992000", "184903.994000", "184903.997000", "184904.000000", "184904.003000", "184923.956000", "184923.958000", "184923.961000", "184923.963000", "184923.966000", "184923.968000", "184923.970000", "184923.973000", "184923.975000", "184923.978000", "184923.980000", "184923.983000", "184923.985000", "184923.988000", "184923.998000", "184924.001000", "184924.004000", "184924.006000", "184924.009000", "184924.011000", "184943.955000", "184943.957000", "184943.960000", "184943.962000", "184943.965000", "184943.967000", "184943.970000", "184943.972000", "184943.975000", "184943.977000", "184943.980000", "184943.982000", "184943.985000", "184943.987000", "184943.989000", "184943.992000", "184943.994000", "184943.997000", "184944.000000", "184944.003000", "185003.954000", "185003.957000", "185003.960000", "185003.962000", "185003.964000", "185003.967000", "185003.969000", "185003.972000", "185003.974000", "185003.977000", "185003.979000", "185003.982000", "185003.984000", "185003.987000", "185003.989000", "185003.992000", "185003.994000", "185003.996000", "185004.000000", "185004.002000", "185023.954000", "185023.966000", "185023.969000", "185023.971000", "185023.974000", "185023.976000", "185023.979000", "185023.981000", "185023.984000", "185023.986000", "185023.989000", "185023.991000", "185023.994000", "185023.996000", "185024.000000", "185024.002000", "185024.005000", "185024.007000", "185024.010000", "185024.012000", "185043.954000", "185043.957000", "185043.960000", "185043.962000", "185043.965000", "185043.967000", "185043.969000", "185043.972000", "185043.974000", "185043.977000", "185043.979000", "185043.982000", "185043.984000", "185043.987000", "185043.989000", "185043.992000", "185043.994000", "185043.997000", "185044.000000", "185044.002000", "185103.954000", "185103.957000", "185103.959000", "185103.962000", "185103.964000", "185103.967000", "185103.969000", "185103.972000", "185103.974000", "185103.977000", "185103.979000", "185103.981000", "185103.984000", "185103.986000", "185103.989000", "185103.991000", "185103.994000", "185103.996000", "185104.000000", "185104.002000", "185123.955000", "185123.957000", "185123.960000", "185123.962000", "185123.965000", "185123.967000", "185123.969000", "185123.972000", "185123.974000", "185123.977000", "185123.979000", "185123.982000", "185123.984000", "185123.986000", "185123.989000", "185123.991000", "185123.994000", "185123.996000", "185124.000000", "185124.002000", "185129.934000", "185129.937000", "185129.940000", "185129.942000", "185129.945000", "185129.947000"],
      "InstanceCreationTime": ["184743.984000", "184743.987000", "184743.990000", "184743.992000", "184743.995000", "184743.997000", "184744.001000", "184744.003000", "184744.005000", "184744.008000", "184744.010000", "184744.013000", "184744.015000", "184744.024000", "184744.026000", "184744.029000", "184744.031000", "184744.033000", "184744.036000", "184744.038000", "184744.048000", "184744.050000", "184744.053000", "184744.055000", "184744.057000", "184744.060000", "184744.062000", "184744.065000", "184744.067000", "184744.070000", "184744.072000", "184744.075000", "184744.077000", "184744.080000", "184744.082000", "184744.085000", "184744.087000", "184744.090000", "184803.954000", "184803.957000", "184803.960000", "184803.962000", "184803.964000", "184803.967000", "184803.969000", "184803.972000", "184803.974000", "184803.977000", "184803.979000", "184803.982000", "184803.984000", "184803.986000", "184803.989000", "184803.991000", "184804.000000", "184804.003000", "184804.005000", "184804.007000", "184823.954000", "184823.957000", "184823.960000", "184823.962000", "184823.964000", "184823.967000", "184823.969000", "184823.972000", "184823.974000", "184823.977000", "184823.979000", "184823.982000", "184823.984000", "184823.987000", "184823.989000", "184823.992000", "184823.994000", "184823.997000", "184824.000000", "184824.002000", "184843.954000", "184843.957000", "184843.959000", "184843.962000", "184843.964000", "184843.967000", "184843.969000", "184843.972000", "184843.974000", "184843.977000", "184843.979000", "184843.982000", "184843.984000", "184843.987000", "184843.989000", "184843.991000", "184843.994000", "184843.996000", "184844.000000", "184844.002000", "184903.955000", "184903.957000", "184903.960000", "184903.962000", "184903.965000", "184903.967000", "184903.970000", "184903.972000", "184903.974000", "184903.977000", "184903.979000", "184903.982000", "184903.984000", "184903.987000", "184903.989000", "184903.992000", "184903.994000", "184903.997000", "184904.000000", "184904.003000", "184923.956000", "184923.958000", "184923.961000", "184923.963000", "184923.966000", "184923.968000", "184923.970000", "184923.973000", "184923.975000", "184923.978000", "184923.980000", "184923.983000", "184923.985000", "184923.988000", "184923.998000", "184924.001000", "184924.004000", "184924.006000", "184924.009000", "184924.011000", "184943.955000", "184943.957000", "184943.960000", "184943.962000", "184943.965000", "184943.967000", "184943.970000", "184943.972000", "184943.975000", "184943.977000", "184943.980000", "184943.982000", "184943.985000", "184943.987000", "184943.989000", "184943.992000", "184943.994000", "184943.997000", "184944.000000", "184944.003000", "185003.954000", "185003.957000", "185003.960000", "185003.962000", "185003.964000", "185003.967000", "185003.969000", "185003.972000", "185003.974000", "185003.977000", "185003.979000", "185003.982000", "185003.984000", "185003.987000", "185003.989000", "185003.992000", "185003.994000", "185003.996000", "185004.000000", "185004.002000", "185023.954000", "185023.966000", "185023.969000", "185023.971000", "185023.974000", "185023.976000", "185023.979000", "185023.981000", "185023.984000", "185023.986000", "185023.989000", "185023.991000", "185023.994000", "185023.996000", "185024.000000", "185024.002000", "185024.005000", "185024.007000", "185024.010000", "185024.012000", "185043.954000", "185043.957000", "185043.960000", "185043.962000", "185043.965000", "185043.967000", "185043.969000", "185043.972000", "185043.974000", "185043.977000", "185043.979000", "185043.982000", "185043.984000", "185043.987000", "185043.989000", "185043.992000", "185043.994000", "185043.997000", "185044.000000", "185044.002000", "185103.954000", "185103.957000", "185103.959000", "185103.962000", "185103.964000", "185103.967000", "185103.969000", "185103.972000", "185103.974000", "185103.977000", "185103.979000", "185103.981000", "185103.984000", "185103.986000", "185103.989000", "185103.991000", "185103.994000", "185103.996000", "185104.000000", "185104.002000", "185123.955000", "185123.957000", "185123.960000", "185123.962000", "185123.965000", "185123.967000", "185123.969000", "185123.972000", "185123.974000", "185123.977000", "185123.979000", "185123.982000", "185123.984000", "185123.986000", "185123.989000", "185123.991000", "185123.994000", "185123.996000", "185124.000000", "185124.002000", "185129.934000", "185129.937000", "185129.940000", "185129.942000", "185129.945000", "185129.947000"],
      "InstanceNumber": [1, 2, 3, 4, 5, 6, 7, 8, 9, 10, 11, 12, 13, 14, 15, 16, 17, 18, 19, 20, 21, 22, 23, 24, 25, 26, 27, 28, 29, 30, 31, 32, 33, 34, 35, 36, 37, 38, 39, 40, 41, 42, 43, 44, 45, 46, 47, 48, 49, 50, 51, 52, 53, 54, 55, 56, 57, 58, 59, 60, 61, 62, 63, 64, 65, 66, 67, 68, 69, 70, 71, 72, 73, 74, 75, 76, 77, 78, 79, 80, 81, 82, 83, 84, 85, 86, 87, 88, 89, 90, 91, 92, 93, 94, 95, 96, 97, 98, 99, 100, 101, 102, 103, 104, 105, 106, 107, 108, 109, 110, 111, 112, 113, 114, 115, 116, 117, 118, 119, 120, 121, 122, 123, 124, 125, 126, 127, 128, 129, 130, 131, 132, 133, 134, 135, 136, 137, 138, 139, 140, 141, 142, 143, 144, 145, 146, 147, 148, 149, 150, 151, 152, 153, 154, 155, 156, 157, 158, 159, 160, 161, 162, 163, 164, 165, 166, 167, 168, 169, 170, 171, 172, 173, 174, 175, 176, 177, 178, 179, 180, 181, 182, 183, 184, 185, 186, 187, 188, 189, 190, 191, 192, 193, 194, 195, 196, 197, 198, 199, 200, 201, 202, 203, 204, 205, 206, 207, 208, 209, 210, 211, 212, 213, 214, 215, 216, 217, 218, 219, 220, 221, 222, 223, 224, 225, 226, 227, 228, 229, 230, 231, 232, 233, 234, 235, 236, 237, 238, 239, 240, 241, 242, 243, 244, 245, 246, 247, 248, 249, 250, 251, 252, 253, 254, 255, 256, 257, 258, 259, 260, 261, 262, 263, 264],
      "LargestImagePixelValue": [11258, 10969, 10789, 10694, 10448, 10578, 10326, 10271, 10324, 10277, 10199, 10252, 10216, 10215, 10467, 10431, 10484, 10457, 10470, 10383, 10410, 10461, 10330, 10401, 10311, 10340, 10389, 10363, 10420, 10396, 10335, 10585, 10542, 10549, 10620, 10482, 10623, 10605, 10610, 10644, 10558, 10554, 10642, 10508, 10561, 10643, 10451, 10482, 10536, 10420, 10427, 10333, 10459, 10487, 10485, 10401, 10610, 10440, 10330, 10532, 10474, 10320, 10480, 10418, 10520, 10368, 10471, 10447, 10348, 10322, 10300, 10273, 10314, 10266, 10421, 10316, 10489, 10476, 10454, 10497, 10424, 10353, 10464, 10442, 10450, 10353, 10327, 10394, 10323, 10383, 10349, 10339, 10213, 10431, 10467, 10525, 10620, 10509, 10587, 10516, 10432, 10416, 10432, 10398, 10530, 10569, 10590, 10734, 10555, 10552, 10650, 10573, 10559, 10591, 10519, 10559, 10555, 10452, 10490, 10331, 10374, 10374, 10422, 10437, 10557, 10507, 10544, 10543, 10636, 10537, 10530, 10612, 10595, 10603, 10540, 10449, 10444, 10337, 10349, 10341, 10256, 10538, 10434, 10449, 10592, 10576, 10570, 10551, 10506, 10562, 10565, 10485, 10544, 10561, 10553, 10587, 10489, 10661, 10597, 10467, 10436, 10418, 10419, 10398, 10377, 10356, 10471, 10378, 10369, 10507, 10498, 10389, 10461, 10465, 10567, 10449, 10403, 10356, 10458, 10447, 10448, 10570, 10464, 10448, 10464, 10452, 10425, 10382, 10376, 10383, 10338, 10345, 10371, 10370, 10370, 10432, 10370, 10400, 10491, 10454, 10458, 10504, 10500, 10347, 10555, 10375, 10475, 10503, 10400, 16889, 13834, 10566, 10406, 10331, 10199, 10288, 10284, 10153, 10395, 10355, 10232, 10461, 10398, 10248, 10383, 10354, 10319, 10439, 10341, 10308, 10427, 10440, 10378, 10423, 10565, 10290, 10298, 10531, 10273, 10317, 10474, 10357, 10275, 10472, 10358, 10354, 10574, 10504, 10532, 10583, 10535, 10580, 10661, 10512, 10494, 10407, 10594, 10607, 10678, 10454, 10748, 10692, 10586, 10649],
      "TriggerTime": [8100.0, 9100.0, 10100.0, 11100.0, 12100.0, 13100.0, 14100.0, 15100.0, 16100.0, 17100.0, 18100.0, 19100.0, 20100.0, 21100.0, 22100.0, 23100.0, 24100.0, 25100.0, 26100.0, 27100.0, 28100.0, 29100.0, 30100.0, 31100.0, 32100.0, 33100.0, 34100.0, 35100.0, 36100.0, 37100.0, 38100.0, 39100.0, 40100.0, 41100.0, 42100.0, 43100.0, 44100.0, 45100.0, 46100.0, 47100.0, 48100.0, 49100.0, 50100.0, 51100.0, 52100.0, 53100.0, 54100.0, 55100.0, 56100.0, 57100.0, 58100.0, 59100.0, 60100.0, 61100.0, 62100.0, 63100.0, 64100.0, 65100.0, 66100.0, 67100.0, 68100.0, 69100.0, 70100.0, 71100.0, 72100.0, 73100.0, 74100.0, 75100.0, 76100.0, 77100.0, 78100.0, 79100.0, 80100.0, 81100.0, 82100.0, 83100.0, 84100.0, 85100.0, 86100.0, 87100.0, 88100.0, 89100.0, 90100.0, 91100.0, 92100.0, 93100.0, 94100.0, 95100.0, 96100.0, 97100.0, 98100.0, 99100.0, 100100.0, 101100.0, 102100.0, 103100.0, 104100.0, 105100.0, 106100.0, 107100.0, 108100.0, 109100.0, 110100.0, 111100.0, 112100.0, 113100.0, 114100.0, 115100.0, 116100.0, 117100.0, 118100.0, 119100.0, 120100.0, 121100.0, 122100.0, 123100.0, 124100.0, 125100.0, 126100.0, 127100.0, 128100.0, 129100.0, 130100.0, 131100.0, 132100.0, 133100.0, 134100.0, 135100.0, 136100.0, 137100.0, 138100.0, 139100.0, 140100.0, 141100.0, 142100.0, 143100.0, 144100.0, 145100.0, 146100.0, 147100.0, 148100.0, 149100.0, 150100.0, 151100.0, 152100.0, 153100.0, 154100.0, 155100.0, 156100.0, 157100.0, 158100.0, 159100.0, 160100.0, 161100.0, 162100.0, 163100.0, 164100.0, 165100.0, 166100.0, 167100.0, 168100.0, 169100.0, 170100.0, 171100.0, 172100.0, 173100.0, 174100.0, 175100.0, 176100.0, 177100.0, 178100.0, 179100.0, 180100.0, 181100.0, 182100.0, 183100.0, 184100.0, 185100.0, 186100.0, 187100.0, 188100.0, 189100.0, 190100.0, 191100.0, 192100.0, 193100.0, 194100.0, 195100.0, 196100.0, 197100.0, 198100.0, 199100.0, 200100.0, 201100.0, 202100.0, 203100.0, 204100.0, 205100.0, 206100.0, 207100.0, 208100.0, 209100.0, 210100.0, 211100.0, 212100.0, 213100.0, 214100.0, 215100.0, 216100.0, 217100.0, 218100.0, 219100.0, 220100.0, 221100.0, 222100.0, 223100.0, 224100.0, 225100.0, 226100.0, 227100.0, 228100.0, 229100.0, 230100.0, 231100.0, 232100.0, 233100.0, 234100.0, 235100.0, 236100.0, 237100.0, 238100.0, 239100.0, 240100.0, 241100.0, 242100.0, 243100.0, 244100.0, 245100.0, 246100.0, 247100.0, 248100.0, 249100.0, 250100.0, 251100.0, 252100.0, 253100.0, 254100.0, 255100.0, 256100.0, 257100.0, 258100.0, 259100.0, 260100.0, 261100.0, 262100.0, 263100.0, 264100.0, 265100.0, 266100.0, 267100.0, 268100.0, 269100.0, 270100.0, 271100.0],
      "WindowCenter": [4465.0, 4453.0, 4454.0, 4433.0, 4430.0, 4430.0, 4425.0, 4414.0, 4414.0, 4417.0, 4419.0, 4418.0, 4418.0, 4416.0, 4425.0, 4428.0, 4425.0, 4430.0, 4433.0, 4433.0, 4446.0, 4441.0, 4425.0, 4444.0, 4433.0, 4434.0, 4425.0, 4426.0, 4440.0, 4425.0, 4431.0, 4444.0, 4445.0, 4447.0, 4441.0, 4447.0, 4447.0, 4447.0, 4439.0, 4440.0, 4437.0, 4438.0, 4456.0, 4459.0, 4455.0, 4452.0, 4458.0, 4460.0, 4460.0, 4449.0, 4440.0, 4443.0, 4447.0, 4453.0, 4455.0, 4458.0, 4452.0, 4456.0, 4445.0, 4451.0, 4449.0, 4444.0, 4447.0, 4438.0, 4441.0, 4426.0, 4444.0, 4437.0, 4434.0, 4428.0, 4433.0, 4427.0, 4434.0, 4446.0, 4439.0, 4426.0, 4439.0, 4444.0, 4442.0, 4437.0, 4443.0, 4428.0, 4445.0, 4443.0, 4441.0, 4427.0, 4435.0, 4436.0, 4432.0, 4430.0, 4428.0, 4432.0, 4432.0, 4434.0, 4446.0, 4444.0, 4447.0, 4440.0, 4445.0, 4445.0, 4443.0, 4441.0, 4440.0, 4431.0, 4447.0, 4443.0, 4457.0, 4454.0, 4442.0, 4445.0, 4457.0, 4446.0, 4449.0, 4447.0, 4437.0, 4444.0, 4440.0, 4448.0, 4448.0, 4440.0, 4441.0, 4445.0, 4454.0, 4439.0, 4457.0, 4446.0, 4446.0, 4448.0, 4450.0, 4443.0, 4445.0, 4442.0, 4440.0, 4439.0, 4439.0, 4449.0, 4437.0, 4437.0, 4428.0, 4426.0, 4432.0, 4441.0, 4438.0, 4452.0, 4451.0, 4458.0, 4457.0, 4449.0, 4443.0, 4449.0, 4444.0, 4445.0, 4445.0, 4432.0, 4439.0, 4436.0, 4435.0, 4439.0, 4444.0, 4436.0, 4441.0, 4436.0, 4423.0, 4429.0, 4430.0, 4428.0, 4438.0, 4428.0, 4429.0, 4442.0, 4444.0, 4425.0, 4439.0, 4439.0, 4444.0, 4448.0, 4436.0, 4432.0, 4439.0, 4435.0, 4441.0, 4443.0, 4443.0, 4437.0, 4440.0, 4440.0, 4445.0, 4427.0, 4425.0, 4426.0, 4437.0, 4425.0, 4427.0, 4435.0, 4426.0, 4448.0, 4428.0, 4445.0, 4440.0, 4440.0, 4444.0, 4457.0, 4438.0, 4442.0, 4458.0, 4448.0, 4441.0, 4453.0, 4435.0, 4425.0, 4515.0, 4434.0, 4425.0, 4422.0, 4423.0, 4415.0, 4410.0, 4409.0, 4415.0, 4409.0, 4409.0, 4411.0, 4414.0, 4408.0, 4411.0, 4412.0, 4396.0, 4407.0, 4410.0, 4397.0, 4409.0, 4410.0, 4399.0, 4409.0, 4422.0, 4410.0, 4414.0, 4422.0, 4411.0, 4408.0, 4422.0, 4409.0, 4417.0, 4420.0, 4412.0, 4410.0, 4422.0, 4420.0, 4420.0, 4424.0, 4422.0, 4421.0, 4435.0, 4438.0, 4434.0, 4436.0, 4436.0, 4440.0, 4442.0, 4437.0, 4445.0, 4442.0, 4436.0, 4438.0],
