{
  "AcquisitionMatrixPE": 106,
  "AcquisitionNumber": 1,
  "AcquisitionTime": "18:52:30.660000",
  "BandwidthPerPixelPhaseEncode": 13.477,
  "BaseResolution": 106,
  "BodyPartExamined": "BRAIN",
  "CoilCombinationMethod": "Sum of Squares",
  "ConsistencyInfo": "N4_VE11C_LATEST_20160120",
  "ConversionSoftware": "dcm2niix",
  "ConversionSoftwareVersion": "v1.0.20220720",
  "DerivedVendorReportedEchoSpacing": 0.000700005,
  "DeviceSerialNumber": "166108",
  "DwellTime": 2.6e-06,
  "EchoTime": 0.03,
  "EchoTrainLength": 80,
  "EffectiveEchoSpacing": 0.000700005,
  "FlipAngle": 62,
  "HeudiconvVersion": "1.3.0",
  "ImageComments": "Unaliased MB4/PE3/LB",
  "ImageOrientationPatientDICOM": [1, 0, 0, 0, 0.944376, -0.328867],
  "ImageOrientationText": "Tra>Cor(-19.2)",
  "ImageType": [
    "ORIGINAL",
    "PRIMARY",
    "M",
    "MB",
    "ND",
    "MOSAIC"
],
  "ImagingFrequency": 123.244,
  "InPlanePhaseEncodingDirectionDICOM": "COL",
  "InstitutionAddress": "Bedford Way 26,London,London,GB,WC1H 0AP",
  "InstitutionName": "University College",
  "InstitutionalDepartmentName": "Department",
  "MRAcquisitionType": "2D",
  "MagneticFieldStrength": 3,
  "Manufacturer": "Siemens",
  "ManufacturersModelName": "Prisma",
  "MatrixCoilMode": "SENSE",
  "Modality": "MR",
  "MultibandAccelerationFactor": 4,
  "NonlinearGradientCorrection": false,
  "PartialFourier": 0.75,
  "PatientPosition": "HFS",
  "PercentPhaseFOV": 100,
  "PercentSampling": 100,
  "PhaseEncodingDirection": "j-",
  "PhaseEncodingSteps": 80,
  "PhaseResolution": 1,
  "PixelBandwidth": 1815,
  "ProcedureStepDescription": "Egor^MovieProject2",
  "ProtocolName": "func-bold_task-tono_run-02",
  "PulseSequenceDetails": "%CustomerSeq%\\cmrr_mbep2d_bold",
  "ReceiveCoilActiveElements": "HEA;HEP",
  "ReceiveCoilName": "Head_32",
  "ReconMatrixPE": 106,
  "RepetitionTime": 1,
  "SAR": 0.0353261,
  "ScanOptions": "PFP\\FS\\EXT",
  "ScanningSequence": "EP",
  "SequenceName": "epfid2d1_106",
  "SequenceVariant": "SK\\SS",
  "SeriesDescription": "func-bold_task-tono_run-02",
  "SeriesNumber": 20,
  "ShimSetting": [-1600, 614, 7418, 277, -102, 180, -10, 26],
  "SliceThickness": 2,
  "SliceTiming": [0, 0.5325, 0.0875, 0.6225, 0.1775, 0.7125, 0.265, 0.8, 0.355, 0.89, 0.445, 0, 0.5325, 0.0875, 0.6225, 0.1775, 0.7125, 0.265, 0.8, 0.355, 0.89, 0.445, 0, 0.5325, 0.0875, 0.6225, 0.1775, 0.7125, 0.265, 0.8, 0.355, 0.89, 0.445, 0, 0.5325, 0.0875, 0.6225, 0.1775, 0.7125, 0.265, 0.8, 0.355, 0.89, 0.445],
  "SoftwareVersions": "syngo MR E11",
  "SpacingBetweenSlices": 2,
  "StationName": "AWP166108",
  "TaskName": "tonotopy",
  "TotalReadoutTime": 0.0735005,
  "TxRefAmp": 217.941,
  "WipMemBlock": "4e0a84bf-ed95-4cec-85a1-4db7e7a5bfc4||Sequence: R016 ve11c/master r/e634e98; Dec 19 2017 11:00:25 by eja",
  "dcmmeta_affine": [
    [-2.0, 0.0, 0.0, 106.0],
    [0.0, 1.8887526988983154, -0.6577333211898804, -82.2861328125],
    [0.0, 0.6577333211898804, 1.8887526988983154, -56.594032287597656],
    [0.0, 0.0, 0.0, 1.0]
],
  "dcmmeta_reorient_transform": [
    [0.0, -1.0, 0.0, 105.0],
    [1.0, 0.0, 0.0, 0.0],
    [0.0, 0.0, 1.0, 0.0],
    [0.0, 0.0, 0.0, 1.0]
],
  "dcmmeta_shape": [106, 106, 44, 264],
  "dcmmeta_slice_dim": 2,
  "dcmmeta_version": 0.6,
  "global": {
    "const": {
      "AcquisitionMatrix": [106, 0, 0, 106],
      "AngioFlag": "N",
      "BitsAllocated": 16,
      "BitsStored": 16,
      "BodyPartExamined": "BRAIN",
      "CardiacNumberOfImages": 1,
      "Columns": 742,
      "EchoNumbers": 1,
      "EchoTime": 30.0,
      "EchoTrainLength": 80,
      "FlipAngle": 62.0,
      "HighBit": 15,
      "ImageOrientationPatient": [1.0, 0.0, 0.0, 0.0, 0.94437636797866, -0.328866653225],
      "ImagePositionPatient": [-742.0, -716.65627257038, 221.62715758409],
      "ImageType": [
        "ORIGINAL",
        "PRIMARY",
        "M",
        "MB",
        "ND",
        "MOSAIC"
],
      "ImagedNucleus": "1H",
      "ImagingFrequency": 123.243692,
      "InPlanePhaseEncodingDirection": "COL",
      "MRAcquisitionType": "2D",
      "MagneticFieldStrength": 3.0,
      "Manufacturer": "SIEMENS",
      "ManufacturerModelName": "Prisma",
      "Modality": "MR",
      "NominalInterval": 0,
      "NumberOfAverages": 1.0,
      "NumberOfPhaseEncodingSteps": 80,
      "PercentPhaseFieldOfView": 100.0,
      "PercentSampling": 100.0,
      "PerformedProcedureStepStartTime": "172905.661000",
      "PhotometricInterpretation": "MONOCHROME2",
      "PixelBandwidth": 1815.0,
      "PixelRepresentation": 0,
      "PixelSpacing": [2.0, 2.0],
      "ProtocolName": "func-bold_task-tono_run-02",
      "RepetitionTime": 1000.0,
      "Rows": 742,
      "SAR": 0.03532606842324,
      "SamplesPerPixel": 1,
      "ScanOptions": [
        "PFP",
        "FS",
        "EXT"
],
      "ScanningSequence": "EP",
      "SequenceName": "epfid2d1_106",
      "SequenceVariant": [
        "SK",
        "SS"
],
      "SeriesDescription": "func-bold_task-tono_run-02",
      "SeriesNumber": 20,
      "SeriesTime": "185304.045000",
      "SliceLocation": -26.384899748252,
      "SliceThickness": 2.0,
      "SmallestImagePixelValue": 0,
      "SoftwareVersions": "syngo MR E11",
      "SpacingBetweenSlices": 1.9999999564081,
      "SpecificCharacterSet": "ISO_IR 100",
      "StudyID": "1",
      "StudyTime": "172905.550000",
      "TransmitCoilName": "Body",
      "VariableFlipAngleFlag": "N",
      "WindowCenterWidthExplanation": "Algo1",
      "dBdt": 0.0},
    "slices": {}
  },
  "time": {
    "samples": {
      "AcquisitionNumber": [1, 2, 3, 4, 5, 6, 7, 8, 9, 10, 11, 12, 13, 14, 15, 16, 17, 18, 19, 20, 21, 22, 23, 24, 25, 26, 27, 28, 29, 30, 31, 32, 33, 34, 35, 36, 37, 38, 39, 40, 41, 42, 43, 44, 45, 46, 47, 48, 49, 50, 51, 52, 53, 54, 55, 56, 57, 58, 59, 60, 61, 62, 63, 64, 65, 66, 67, 68, 69, 70, 71, 72, 73, 74, 75, 76, 77, 78, 79, 80, 81, 82, 83, 84, 85, 86, 87, 88, 89, 90, 91, 92, 93, 94, 95, 96, 97, 98, 99, 100, 101, 102, 103, 104, 105, 106, 107, 108, 109, 110, 111, 112, 113, 114, 115, 116, 117, 118, 119, 120, 121, 122, 123, 124, 125, 126, 127, 128, 129, 130, 131, 132, 133, 134, 135, 136, 137, 138, 139, 140, 141, 142, 143, 144, 145, 146, 147, 148, 149, 150, 151, 152, 153, 154, 155, 156, 157, 158, 159, 160, 161, 162, 163, 164, 165, 166, 167, 168, 169, 170, 171, 172, 173, 174, 175, 176, 177, 178, 179, 180, 181, 182, 183, 184, 185, 186, 187, 188, 189, 190, 191, 192, 193, 194, 195, 196, 197, 198, 199, 200, 201, 202, 203, 204, 205, 206, 207, 208, 209, 210, 211, 212, 213, 214, 215, 216, 217, 218, 219, 220, 221, 222, 223, 224, 225, 226, 227, 228, 229, 230, 231, 232, 233, 234, 235, 236, 237, 238, 239, 240, 241, 242, 243, 244, 245, 246, 247, 248, 249, 250, 251, 252, 253, 254, 255, 256, 257, 258, 259, 260, 261, 262, 263, 264],
      "AcquisitionTime": ["185230.660000", "185231.660000", "185232.660000", "185233.660000", "185234.660000", "185235.660000", "185236.660000", "185237.660000", "185238.660000", "185239.660000", "185240.660000", "185241.660000", "185242.660000", "185243.660000", "185244.660000", "185245.660000", "185246.660000", "185247.660000", "185248.660000", "185249.660000", "185250.660000", "185251.660000", "185252.660000", "185253.660000", "185254.660000", "185255.660000", "185256.660000", "185257.660000", "185258.660000", "185259.660000", "185300.660000", "185301.660000", "185302.660000", "185303.660000", "185304.660000", "185305.660000", "185306.660000", "185307.660000", "185308.660000", "185309.660000", "185310.660000", "185311.660000", "185312.660000", "185313.660000", "185314.660000", "185315.660000", "185316.660000", "185317.660000", "185318.660000", "185319.660000", "185320.660000", "185321.660000", "185322.660000", "185323.660000", "185324.660000", "185325.660000", "185326.660000", "185327.660000", "185328.660000", "185329.660000", "185330.660000", "185331.660000", "185332.660000", "185333.660000", "185334.660000", "185335.660000", "185336.660000", "185337.660000", "185338.660000", "185339.660000", "185340.660000", "185341.660000", "185342.660000", "185343.660000", "185344.660000", "185345.660000", "185346.660000", "185347.660000", "185348.660000", "185349.660000", "185350.660000", "185351.660000", "185352.660000", "185353.660000", "185354.660000", "185355.660000", "185356.660000", "185357.660000", "185358.660000", "185359.660000", "185400.660000", "185401.660000", "185402.660000", "185403.660000", "185404.660000", "185405.660000", "185406.660000", "185407.660000", "185408.660000", "185409.660000", "185410.660000", "185411.660000", "185412.660000", "185413.660000", "185414.660000", "185415.660000", "185416.660000", "185417.660000", "185418.660000", "185419.660000", "185420.660000", "185421.660000", "185422.660000", "185423.660000", "185424.660000", "185425.660000", "185426.660000", "185427.660000", "185428.660000", "185429.660000", "185430.660000", "185431.660000", "185432.660000", "185433.660000", "185434.660000", "185435.660000", "185436.660000", "185437.660000", "185438.660000", "185439.660000", "185440.660000", "185441.660000", "185442.660000", "185443.660000", "185444.660000", "185445.660000", "185446.660000", "185447.660000", "185448.660000", "185449.660000", "185450.660000", "185451.660000", "185452.660000", "185453.660000", "185454.660000", "185455.660000", "185456.660000", "185457.660000", "185458.660000", "185459.660000", "185500.660000", "185501.660000", "185502.660000", "185503.660000", "185504.660000", "185505.660000", "185506.660000", "185507.660000", "185508.660000", "185509.660000", "185510.660000", "185511.660000", "185512.660000", "185513.660000", "185514.660000", "185515.660000", "185516.660000", "185517.660000", "185518.660000", "185519.660000", "185520.660000", "185521.660000", "185522.660000", "185523.660000", "185524.660000", "185525.660000", "185526.660000", "185527.660000", "185528.660000", "185529.660000", "185530.660000", "185531.660000", "185532.660000", "185533.660000", "185534.660000", "185535.660000", "185536.660000", "185537.660000", "185538.660000", "185539.660000", "185540.660000", "185541.660000", "185542.660000", "185543.660000", "185544.660000", "185545.660000", "185546.660000", "185547.660000", "185548.660000", "185549.660000", "185550.660000", "185551.660000", "185552.660000", "185553.660000", "185554.660000", "185555.660000", "185556.660000", "185557.660000", "185558.660000", "185559.660000", "185600.660000", "185601.660000", "185602.660000", "185603.660000", "185604.660000", "185605.660000", "185606.660000", "185607.660000", "185608.660000", "185609.660000", "185610.660000", "185611.660000", "185612.660000", "185613.660000", "185614.660000", "185615.660000", "185616.660000", "185617.660000", "185618.660000", "185619.660000", "185620.660000", "185621.660000", "185622.660000", "185623.660000", "185624.660000", "185625.660000", "185626.660000", "185627.660000", "185628.660000", "185629.660000", "185630.660000", "185631.660000", "185632.660000", "185633.660000", "185634.660000", "185635.660000", "185636.660000", "185637.660000", "185638.660000", "185639.660000", "185640.660000", "185641.660000", "185642.660000", "185643.660000", "185644.660000", "185645.660000", "185646.660000", "185647.660000", "185648.660000", "185649.660000", "185650.660000", "185651.660000", "185652.660000", "185653.660000"],
      "ContentTime": ["185304.047000", "185304.050000", "185304.055000", "185304.057000", "185304.060000", "185304.062000", "185304.065000", "185304.067000", "185304.070000", "185304.072000", "185304.075000", "185304.082000", "185304.085000", "185304.087000", "185304.090000", "185304.093000", "185304.095000", "185304.097000", "185304.100000", "185304.102000", "185304.105000", "185304.107000", "185304.110000", "185304.112000", "185304.114000", "185304.117000", "185304.119000", "185304.122000", "185304.124000", "185304.127000", "185304.129000", "185304.132000", "185304.134000", "185324.018000", "185324.021000", "185324.024000", "185324.026000", "185324.028000", "185324.031000", "185324.033000", "185324.036000", "185324.038000", "185324.041000", "185324.043000", "185324.046000", "185324.048000", "185324.050000", "185324.053000", "185324.055000", "185324.058000", "185324.060000", "185324.063000", "185324.065000", "185344.018000", "185344.021000", "185344.023000", "185344.026000", "185344.028000", "185344.031000", "185344.033000", "185344.036000", "185344.038000", "185344.041000", "185344.043000", "185344.045000", "185344.048000", "185344.050000", "185344.053000", "185344.055000", "185344.058000", "185344.060000", "185344.063000", "185344.065000", "185404.019000", "185404.021000", "185404.024000", "185404.026000", "185404.029000", "185404.031000", "185404.033000", "185404.036000", "185404.038000", "185404.061000", "185404.064000", "185404.066000", "185404.068000", "185404.081000", "185404.084000", "185404.086000", "185404.088000", "185404.091000", "185404.093000", "185404.096000", "185424.018000", "185424.021000", "185424.024000", "185424.026000", "185424.029000", "185424.031000", "185424.033000", "185424.036000", "185424.038000", "185424.041000", "185424.043000", "185424.046000", "185424.048000", "185424.060000", "185424.062000", "185424.065000", "185424.067000", "185424.070000", "185424.072000", "185424.074000", "185444.018000", "185444.021000", "185444.023000", "185444.026000", "185444.028000", "185444.031000", "185444.033000", "185444.036000", "185444.038000", "185444.041000", "185444.043000", "185444.046000", "185444.048000", "185444.051000", "185444.053000", "185444.055000", "185444.058000", "185444.060000", "185444.063000", "185444.065000", "185504.018000", "185504.021000", "185504.023000", "185504.026000", "185504.028000", "185504.031000", "185504.033000", "185504.035000", "185504.038000", "185504.040000", "185504.043000", "185504.045000", "185504.048000", "185504.050000", "185504.053000", "185504.055000", "185504.058000", "185504.060000", "185504.063000", "185504.065000", "185524.018000", "185524.021000", "185524.023000", "185524.026000", "185524.028000", "185524.031000", "185524.033000", "185524.036000", "185524.038000", "185524.041000", "185524.043000", "185524.046000", "185524.048000", "185524.051000", "185524.053000", "185524.055000", "185524.058000", "185524.060000", "185524.063000", "185524.065000", "185544.019000", "185544.021000", "185544.024000", "185544.026000", "185544.029000", "185544.031000", "185544.034000", "185544.039000", "185544.041000", "185544.044000", "185544.046000", "185544.049000", "185544.051000", "185544.054000", "185544.056000", "185544.059000", "185544.061000", "185544.063000", "185544.066000", "185544.068000", "185604.018000", "185604.021000", "185604.023000", "185604.026000", "185604.028000", "185604.031000", "185604.033000", "185604.036000", "185604.038000", "185604.041000", "185604.043000", "185604.046000", "185604.048000", "185604.051000", "185604.053000", "185604.056000", "185604.058000", "185604.060000", "185604.063000", "185604.065000", "185624.018000", "185624.021000", "185624.024000", "185624.026000", "185624.029000", "185624.031000", "185624.034000", "185624.036000", "185624.038000", "185624.041000", "185624.043000", "185624.046000", "185624.048000", "185624.051000", "185624.053000", "185624.056000", "185624.058000", "185624.061000", "185624.063000", "185624.066000", "185644.018000", "185644.021000", "185644.023000", "185644.026000", "185644.028000", "185644.031000", "185644.033000", "185644.036000", "185644.038000", "185644.041000", "185644.043000", "185644.045000", "185644.048000", "185644.050000", "185644.053000", "185644.055000", "185644.058000", "185644.060000", "185644.063000", "185644.065000", "185654.918000", "185654.922000", "185654.924000", "185654.927000", "185654.929000", "185654.932000", "185654.935000", "185654.937000", "185654.940000", "185654.943000", "185654.946000"],
      "InstanceCreationTime": ["185304.047000", "185304.050000", "185304.055000", "185304.057000", "185304.060000", "185304.062000", "185304.065000", "185304.067000", "185304.070000", "185304.072000", "185304.075000", "185304.082000", "185304.085000", "185304.087000", "185304.090000", "185304.093000", "185304.095000", "185304.097000", "185304.100000", "185304.102000", "185304.105000", "185304.107000", "185304.110000", "185304.112000", "185304.114000", "185304.117000", "185304.119000", "185304.122000", "185304.124000", "185304.127000", "185304.129000", "185304.132000", "185304.134000", "185324.018000", "185324.021000", "185324.024000", "185324.026000", "185324.028000", "185324.031000", "185324.033000", "185324.036000", "185324.038000", "185324.041000", "185324.043000", "185324.046000", "185324.048000", "185324.050000", "185324.053000", "185324.055000", "185324.058000", "185324.060000", "185324.063000", "185324.065000", "185344.018000", "185344.021000", "185344.023000", "185344.026000", "185344.028000", "185344.031000", "185344.033000", "185344.036000", "185344.038000", "185344.041000", "185344.043000", "185344.045000", "185344.048000", "185344.050000", "185344.053000", "185344.055000", "185344.058000", "185344.060000", "185344.063000", "185344.065000", "185404.019000", "185404.021000", "185404.024000", "185404.026000", "185404.029000", "185404.031000", "185404.033000", "185404.036000", "185404.038000", "185404.061000", "185404.064000", "185404.066000", "185404.068000", "185404.081000", "185404.084000", "185404.086000", "185404.088000", "185404.091000", "185404.093000", "185404.096000", "185424.018000", "185424.021000", "185424.024000", "185424.026000", "185424.029000", "185424.031000", "185424.033000", "185424.036000", "185424.038000", "185424.041000", "185424.043000", "185424.046000", "185424.048000", "185424.060000", "185424.062000", "185424.065000", "185424.067000", "185424.070000", "185424.072000", "185424.074000", "185444.018000", "185444.021000", "185444.023000", "185444.026000", "185444.028000", "185444.031000", "185444.033000", "185444.036000", "185444.038000", "185444.041000", "185444.043000", "185444.046000", "185444.048000", "185444.051000", "185444.053000", "185444.055000", "185444.058000", "185444.060000", "185444.063000", "185444.065000", "185504.018000", "185504.021000", "185504.023000", "185504.026000", "185504.028000", "185504.031000", "185504.033000", "185504.035000", "185504.038000", "185504.040000", "185504.043000", "185504.045000", "185504.048000", "185504.050000", "185504.053000", "185504.055000", "185504.058000", "185504.060000", "185504.063000", "185504.065000", "185524.018000", "185524.021000", "185524.023000", "185524.026000", "185524.028000", "185524.031000", "185524.033000", "185524.036000", "185524.038000", "185524.041000", "185524.043000", "185524.046000", "185524.048000", "185524.051000", "185524.053000", "185524.055000", "185524.058000", "185524.060000", "185524.063000", "185524.065000", "185544.019000", "185544.021000", "185544.024000", "185544.026000", "185544.029000", "185544.031000", "185544.034000", "185544.039000", "185544.041000", "185544.044000", "185544.046000", "185544.049000", "185544.051000", "185544.054000", "185544.056000", "185544.059000", "185544.061000", "185544.063000", "185544.066000", "185544.068000", "185604.018000", "185604.021000", "185604.023000", "185604.026000", "185604.028000", "185604.031000", "185604.033000", "185604.036000", "185604.038000", "185604.041000", "185604.043000", "185604.046000", "185604.048000", "185604.051000", "185604.053000", "185604.056000", "185604.058000", "185604.060000", "185604.063000", "185604.065000", "185624.018000", "185624.021000", "185624.024000", "185624.026000", "185624.029000", "185624.031000", "185624.034000", "185624.036000", "185624.038000", "185624.041000", "185624.043000", "185624.046000", "185624.048000", "185624.051000", "185624.053000", "185624.056000", "185624.058000", "185624.061000", "185624.063000", "185624.066000", "185644.018000", "185644.021000", "185644.023000", "185644.026000", "185644.028000", "185644.031000", "185644.033000", "185644.036000", "185644.038000", "185644.041000", "185644.043000", "185644.045000", "185644.048000", "185644.050000", "185644.053000", "185644.055000", "185644.058000", "185644.060000", "185644.063000", "185644.065000", "185654.918000", "185654.922000", "185654.924000", "185654.927000", "185654.929000", "185654.932000", "185654.935000", "185654.937000", "185654.940000", "185654.943000", "185654.946000"],
      "InstanceNumber": [1, 2, 3, 4, 5, 6, 7, 8, 9, 10, 11, 12, 13, 14, 15, 16, 17, 18, 19, 20, 21, 22, 23, 24, 25, 26, 27, 28, 29, 30, 31, 32, 33, 34, 35, 36, 37, 38, 39, 40, 41, 42, 43, 44, 45, 46, 47, 48, 49, 50, 51, 52, 53, 54, 55, 56, 57, 58, 59, 60, 61, 62, 63, 64, 65, 66, 67, 68, 69, 70, 71, 72, 73, 74, 75, 76, 77, 78, 79, 80, 81, 82, 83, 84, 85, 86, 87, 88, 89, 90, 91, 92, 93, 94, 95, 96, 97, 98, 99, 100, 101, 102, 103, 104, 105, 106, 107, 108, 109, 110, 111, 112, 113, 114, 115, 116, 117, 118, 119, 120, 121, 122, 123, 124, 125, 126, 127, 128, 129, 130, 131, 132, 133, 134, 135, 136, 137, 138, 139, 140, 141, 142, 143, 144, 145, 146, 147, 148, 149, 150, 151, 152, 153, 154, 155, 156, 157, 158, 159, 160, 161, 162, 163, 164, 165, 166, 167, 168, 169, 170, 171, 172, 173, 174, 175, 176, 177, 178, 179, 180, 181, 182, 183, 184, 185, 186, 187, 188, 189, 190, 191, 192, 193, 194, 195, 196, 197, 198, 199, 200, 201, 202, 203, 204, 205, 206, 207, 208, 209, 210, 211, 212, 213, 214, 215, 216, 217, 218, 219, 220, 221, 222, 223, 224, 225, 226, 227, 228, 229, 230, 231, 232, 233, 234, 235, 236, 237, 238, 239, 240, 241, 242, 243, 244, 245, 246, 247, 248, 249, 250, 251, 252, 253, 254, 255, 256, 257, 258, 259, 260, 261, 262, 263, 264],
      "LargestImagePixelValue": [11197, 10925, 10841, 10587, 10544, 10592, 10586, 10518, 10550, 10520, 10512, 10491, 10552, 10566, 10532, 10420, 10591, 10460, 10436, 10617, 10463, 10445, 10565, 10463, 10526, 10487, 10487, 10727, 10536, 10442, 10643, 10524, 10414, 10465, 10465, 10400, 10454, 10409, 10474, 10469, 10422, 10490, 10392, 10375, 10553, 10482, 10352, 10556, 10412, 10334, 10515, 10373, 10361, 10542, 10431, 10430, 10322, 10241, 10492, 10354, 10337, 10504, 10369, 10447, 10426, 10324, 10384, 10343, 10246, 10380, 10253, 10275, 10501, 10343, 10273, 10530, 10331, 10346, 10425, 10305, 10444, 10343, 10282, 10517, 10320, 10276, 10486, 10228, 10328, 10426, 10233, 10281, 10242, 10144, 10396, 10287, 10231, 10343, 10292, 10195, 10362, 10186, 10275, 10327, 10342, 10330, 10293, 10135, 10364, 10174, 10111, 10286, 10177, 10270, 10262, 10188, 10309, 10223, 10207, 10375, 10237, 10389, 10358, 10214, 10234, 10274, 10233, 10263, 10229, 10311, 10256, 10196, 10252, 10253, 10266, 10319, 10229, 10266, 10333, 10409, 10307, 10248, 10239, 10364, 10208, 10150, 10212, 10222, 10220, 10264, 10287, 10228, 10398, 10262, 10224, 10401, 10194, 10180, 10317, 10309, 10227, 10361, 10196, 10317, 10321, 10189, 10164, 10250, 10310, 10187, 10381, 10476, 10316, 10315, 10253, 10194, 10180, 10229, 10230, 10199, 10275, 10272, 10244, 10222, 10247, 10360, 10233, 10351, 10362, 10326, 10286, 10240, 10256, 10314, 10302, 10363, 10339, 10338, 10244, 10288, 10354, 10189, 10385, 10298, 10252, 10371, 10269, 10255, 10263, 10363, 10140, 10397, 10260, 10338, 10399, 10377, 10459, 10295, 10306, 10498, 10395, 10387, 10460, 10420, 10497, 10389, 10428, 10355, 10620, 10416, 10477, 10548, 10406, 10426, 10420, 10278, 10358, 10342, 10361, 10350, 10402, 10448, 10457, 10419, 10298, 10337, 10392, 10282, 10457, 10647, 10642, 10311, 10250, 10256, 10237, 10416, 10363, 10376, 10544, 10440, 10421, 10515, 10416, 10279],
      "TriggerTime": [8102.5, 9102.5, 10102.5, 11102.5, 12102.5, 13102.5, 14102.5, 15102.5, 16102.5, 17102.5, 18102.5, 19102.5, 20102.5, 21102.5, 22102.5, 23102.5, 24102.5, 25102.5, 26102.5, 27102.5, 28102.5, 29102.5, 30102.5, 31102.5, 32102.5, 33102.5, 34102.5, 35102.5, 36102.5, 37102.5, 38102.5, 39102.5, 40102.5, 41102.5, 42102.5, 43102.5, 44102.5, 45102.5, 46102.5, 47102.5, 48102.5, 49102.5, 50102.5, 51102.5, 52102.5, 53102.5, 54102.5, 55102.5, 56102.5, 57102.5, 58102.5, 59102.5, 60102.5, 61102.5, 62102.5, 63102.5, 64102.5, 65102.5, 66102.5, 67102.5, 68102.5, 69102.5, 70102.5, 71102.5, 72102.5, 73102.5, 74102.5, 75102.5, 76102.5, 77102.5, 78102.5, 79102.5, 80102.5, 81102.5, 82102.5, 83102.5, 84102.5, 85102.5, 86102.5, 87102.5, 88102.5, 89102.5, 90102.5, 91102.5, 92102.5, 93102.5, 94102.5, 95102.5, 96102.5, 97102.5, 98102.5, 99102.5, 100102.5, 101102.5, 102102.5, 103102.5, 104102.5, 105102.5, 106102.5, 107102.5, 108102.5, 109102.5, 110102.5, 111102.5, 112102.5, 113102.5, 114102.5, 115102.5, 116102.5, 117102.5, 118102.5, 119102.5, 120102.5, 121102.5, 122102.5, 123102.5, 124102.5, 125102.5, 126102.5, 127102.5, 128102.5, 129102.5, 130102.5, 131102.5, 132102.5, 133102.5, 134102.5, 135102.5, 136102.5, 137102.5, 138102.5, 139102.5, 140102.5, 141102.5, 142102.5, 143102.5, 144102.5, 145102.5, 146102.5, 147102.5, 148102.5, 149102.5, 150102.5, 151102.5, 152102.5, 153102.5, 154102.5, 155102.5, 156102.5, 157102.5, 158102.5, 159102.5, 160102.5, 161102.5, 162102.5, 163102.5, 164102.5, 165102.5, 166102.5, 167102.5, 168102.5, 169102.5, 170102.5, 171102.5, 172102.5, 173102.5, 174102.5, 175102.5, 176102.5, 177102.5, 178102.5, 179102.5, 180102.5, 181102.5, 182102.5, 183102.5, 184102.5, 185102.5, 186102.5, 187102.5, 188102.5, 189102.5, 190102.5, 191102.5, 192102.5, 193102.5, 194102.5, 195102.5, 196102.5, 197102.5, 198102.5, 199102.5, 200102.5, 201102.5, 202102.5, 203102.5, 204102.5, 205102.5, 206102.5, 207102.5, 208102.5, 209102.5, 210102.5, 211102.5, 212102.5, 213102.5, 214102.5, 215102.5, 216102.5, 217102.5, 218102.5, 219102.5, 220102.5, 221102.5, 222102.5, 223102.5, 224102.5, 225102.5, 226102.5, 227102.5, 228102.5, 229102.5, 230102.5, 231102.5, 232102.5, 233102.5, 234102.5, 235102.5, 236102.5, 237102.5, 238102.5, 239102.5, 240102.5, 241102.5, 242102.5, 243102.5, 244102.5, 245102.5, 246102.5, 247102.5, 248102.5, 249102.5, 250102.5, 251102.5, 252102.5, 253102.5, 254102.5, 255102.5, 256102.5, 257102.5, 258102.5, 259102.5, 260102.5, 261102.5, 262102.5, 263102.5, 264102.5, 265102.5, 266102.5, 267102.5, 268102.5, 269102.5, 270102.5, 271102.5],
      "WindowCenter": [4449.0, 4435.0, 4430.0, 4419.0, 4414.0, 4409.0, 4409.0, 4433.0, 4418.0, 4422.0, 4422.0, 4424.0, 4423.0, 4424.0, 4412.0, 4408.0, 4409.0, 4408.0, 4418.0, 4409.0, 4415.0, 4419.0, 4421.0, 4412.0, 4413.0, 4421.0, 4419.0, 4431.0, 4410.0, 4417.0, 4422.0, 4426.0, 4430.0, 4435.0, 4445.0, 4435.0, 4435.0, 4434.0, 4436.0, 4424.0, 4423.0, 4435.0, 4436.0, 4426.0, 4442.0, 4447.0, 4428.0, 4452.0, 4447.0, 4448.0, 4445.0, 4439.0, 4448.0, 4451.0, 4454.0, 4457.0, 4460.0, 4453.0, 4462.0, 4441.0, 4441.0, 4438.0, 4435.0, 4445.0, 4444.0, 4426.0, 4425.0, 4432.0, 4428.0, 4426.0, 4427.0, 4425.0, 4435.0, 4423.0, 4424.0, 4434.0, 4433.0, 4424.0, 4424.0, 4413.0, 4421.0, 4412.0, 4411.0, 4421.0, 4411.0, 4410.0, 4422.0, 4412.0, 4412.0, 4427.0, 4423.0, 4423.0, 4423.0, 4423.0, 4424.0, 4425.0, 4424.0, 4433.0, 4425.0, 4437.0, 4425.0, 4435.0, 4426.0, 4435.0, 4425.0, 4425.0, 4427.0, 4432.0, 4440.0, 4439.0, 4439.0, 4438.0, 4438.0, 4448.0, 4430.0, 4426.0, 4427.0, 4427.0, 4427.0, 4437.0, 4439.0, 4451.0, 4444.0, 4439.0, 4439.0, 4439.0, 4438.0, 4438.0, 4428.0, 4426.0, 4428.0, 4426.0, 4426.0, 4434.0, 4425.0, 4426.0, 4427.0, 4425.0, 4427.0, 4435.0, 4426.0, 4425.0, 4429.0, 4424.0, 4427.0, 4413.0, 4412.0, 4411.0, 4411.0, 4411.0, 4419.0, 4418.0, 4420.0, 4428.0, 4413.0, 4423.0, 4427.0, 4412.0, 4425.0, 4424.0, 4424.0, 4432.0, 4425.0, 4426.0, 4425.0, 4426.0, 4436.0, 4426.0, 4428.0, 4425.0, 4425.0, 4443.0, 4427.0, 4437.0, 4449.0, 4441.0, 4441.0, 4440.0, 4429.0, 4427.0, 4428.0, 4426.0, 4425.0, 4425.0, 4412.0, 4418.0, 4413.0, 4413.0, 4432.0, 4424.0, 4415.0, 4434.0, 4425.0, 4425.0, 4426.0, 4415.0, 4413.0, 4414.0, 4412.0, 4414.0, 4426.0, 4425.0, 4428.0, 4426.0, 4429.0, 4426.0, 4426.0, 4425.0, 4423.0, 4414.0, 4413.0, 4423.0, 4424.0, 4424.0, 4427.0, 4428.0, 4436.0, 4426.0, 4426.0, 4436.0, 4427.0, 4427.0, 4436.0, 4438.0, 4448.0, 4438.0, 4439.0, 4427.0, 4437.0, 4438.0, 4436.0, 4436.0, 4436.0, 4436.0, 4437.0, 4439.0, 4429.0, 4440.0, 4440.0, 4441.0, 4439.0, 4440.0, 4445.0, 4440.0, 4426.0, 4425.0, 4425.0, 4427.0, 4443.0, 4435.0, 4437.0, 4428.0, 4439.0, 4440.0, 4439.0, 4438.0, 4426.0, 4413.0, 4429.0, 4411.0, 4420.0, 4421.0, 4421.0, 4412.0],
