{
  "AcquisitionMatrixPE": 106,
  "AcquisitionNumber": 1,
  "AcquisitionTime": "18:29:30.760000",
  "BandwidthPerPixelPhaseEncode": 16.846,
  "BaseResolution": 106,
  "BodyPartExamined": "BRAIN",
  "CoilCombinationMethod": "Sum of Squares",
  "ConsistencyInfo": "N4_VE11C_LATEST_20160120",
  "ConversionSoftware": "dcm2niix",
  "ConversionSoftwareVersion": "v1.0.20220720",
  "DerivedVendorReportedEchoSpacing": 0.000560012,
  "DeviceSerialNumber": "166108",
  "DwellTime": 1.8e-06,
  "EchoTime": 0.0352,
  "EchoTrainLength": 106,
  "EffectiveEchoSpacing": 0.000560012,
  "FlipAngle": 60,
  "HeudiconvVersion": "1.3.0",
  "ImageComments": "Unaliased MB4/PE3/LB",
  "ImageOrientationPatientDICOM": [1, 0, 0, 0, 0.927836, -0.372988],
  "ImageOrientationText": "Tra>Cor(-21.9)",
  "ImageType": [
    "ORIGINAL",
    "PRIMARY",
    "M",
    "MB",
    "ND",
    "MOSAIC"
],
  "ImagingFrequency": 123.244,
  "InPlanePhaseEncodingDirectionDICOM": "COL",
  "InstitutionAddress": "Bedford Way 26,London,London,GB,WC1H 0AP",
  "InstitutionName": "University College",
  "InstitutionalDepartmentName": "Department",
  "MRAcquisitionType": "2D",
  "MagneticFieldStrength": 3,
  "Manufacturer": "Siemens",
  "ManufacturersModelName": "Prisma",
  "MatrixCoilMode": "SENSE",
  "Modality": "MR",
  "MultibandAccelerationFactor": 4,
  "NonlinearGradientCorrection": false,
  "PartialFourier": 1,
  "PatientPosition": "HFS",
  "PercentPhaseFOV": 100,
  "PercentSampling": 100,
  "PhaseEncodingDirection": "j-",
  "PhaseEncodingSteps": 106,
  "PhaseResolution": 1,
  "PixelBandwidth": 2620,
  "ProcedureStepDescription": "Egor^MovieProject2",
  "ProtocolName": "func-bold_task-pRF_run-02",
  "PulseSequenceDetails": "%CustomerSeq%\\cmrr_mbep2d_bold",
  "ReceiveCoilActiveElements": "HEA;HEP",
  "ReceiveCoilName": "Head_32",
  "ReconMatrixPE": 106,
  "RepetitionTime": 1,
  "SAR": 0.0634914,
  "ScanOptions": "FS\\EXT",
  "ScanningSequence": "EP",
  "SequenceName": "epfid2d1_106",
  "SequenceVariant": "SK\\SS",
  "SeriesDescription": "func-bold_task-pRF_run-02",
  "SeriesNumber": 12,
  "ShimSetting": [-1602, 640, 7422, 278, -135, 245, -28, 54],
  "SliceThickness": 2,
  "SliceTiming": [0, 0.41, 0.8175, 0.245, 0.655, 0.0825, 0.49, 0.9, 0.3275, 0.735, 0.165, 0.5725, 0, 0.41, 0.8175, 0.245, 0.655, 0.0825, 0.49, 0.9, 0.3275, 0.735, 0.165, 0.5725, 0, 0.41, 0.8175, 0.245, 0.655, 0.0825, 0.49, 0.9, 0.3275, 0.735, 0.165, 0.5725, 0, 0.41, 0.8175, 0.245, 0.655, 0.0825, 0.49, 0.9, 0.3275, 0.735, 0.165, 0.5725],
  "SoftwareVersions": "syngo MR E11",
  "SpacingBetweenSlices": 2,
  "StationName": "AWP166108",
  "TaskName": "retinotopy",
  "TotalReadoutTime": 0.0588013,
  "TxRefAmp": 217.941,
  "WipMemBlock": "bb81b37b-174b-4aff-8581-5796ca5bd9cf||Sequence: R016 ve11c/master r/e634e98; Dec 19 2017 11:00:25 by eja",
  "dcmmeta_affine": [
    [-2.0, 0.0, 0.0, 106.0],
    [0.0, 1.8556724786758423, -0.7459755539894104, -77.7308120727539],
    [0.0, 0.7459755539894104, 1.8556725978851318, -56.4906005859375],
    [0.0, 0.0, 0.0, 1.0]
],
  "dcmmeta_reorient_transform": [
    [0.0, -1.0, 0.0, 105.0],
    [1.0, 0.0, 0.0, 0.0],
    [0.0, 0.0, 1.0, 0.0],
    [0.0, 0.0, 0.0, 1.0]
],
  "dcmmeta_shape": [106, 106, 48, 356],
  "dcmmeta_slice_dim": 2,
  "dcmmeta_version": 0.6,
  "global": {
    "const": {
      "AcquisitionMatrix": [106, 0, 0, 106],
      "AngioFlag": "N",
      "BitsAllocated": 16,
      "BitsStored": 16,
      "BodyPartExamined": "BRAIN",
      "CardiacNumberOfImages": 1,
      "Columns": 742,
      "EchoNumbers": 1,
      "EchoTime": 35.2,
      "EchoTrainLength": 106,
      "FlipAngle": 60.0,
      "HighBit": 15,
      "ImageOrientationPatient": [1.0, 0.0, 0.0, 0.0, 0.92783625610898, -0.3729877770781],
      "ImagePositionPatient": [-742.0, -707.21866218911, 259.05705952873],
      "ImageType": [
        "ORIGINAL",
        "PRIMARY",
        "M",
        "MB",
        "ND",
        "MOSAIC"
],
      "ImagedNucleus": "1H",
      "ImagingFrequency": 123.243679,
      "InPlanePhaseEncodingDirection": "COL",
      "MRAcquisitionType": "2D",
      "MagneticFieldStrength": 3.0,
      "Manufacturer": "SIEMENS",
      "ManufacturerModelName": "Prisma",
      "Modality": "MR",
      "NominalInterval": 0,
      "NumberOfAverages": 1.0,
      "NumberOfPhaseEncodingSteps": 106,
      "PercentPhaseFieldOfView": 100.0,
      "PercentSampling": 100.0,
      "PerformedProcedureStepStartTime": "172905.661000",
      "PhotometricInterpretation": "MONOCHROME2",
      "PixelBandwidth": 2620.0,
      "PixelRepresentation": 0,
      "PixelSpacing": [2.0, 2.0],
      "ProtocolName": "func-bold_task-pRF_run-02",
      "RepetitionTime": 1000.0,
      "Rows": 742,
      "SAR": 0.0634914402386,
      "SamplesPerPixel": 1,
      "ScanOptions": [
        "FS",
        "EXT"
],
      "ScanningSequence": "EP",
      "SequenceName": "epfid2d1_106",
      "SequenceVariant": [
        "SK",
        "SS"
],
      "SeriesDescription": "func-bold_task-pRF_run-02",
      "SeriesNumber": 12,
      "SeriesTime": "183003.983000",
      "SliceLocation": -23.421384486339,
      "SliceThickness": 2.0,
      "SmallestImagePixelValue": 0,
      "SoftwareVersions": "syngo MR E11",
      "SpacingBetweenSlices": 2.0000000299676,
      "SpecificCharacterSet": "ISO_IR 100",
      "StudyID": "1",
      "StudyTime": "172905.550000",
      "TransmitCoilName": "Body",
      "VariableFlipAngleFlag": "N",
      "WindowCenterWidthExplanation": "Algo1",
      "dBdt": 0.0},
    "slices": {}
  },
  "time": {
    "samples": {
      "AcquisitionNumber": [1, 2, 3, 4, 5, 6, 7, 8, 9, 10, 11, 12, 13, 14, 15, 16, 17, 18, 19, 20, 21, 22, 23, 24, 25, 26, 27, 28, 29, 30, 31, 32, 33, 34, 35, 36, 37, 38, 39, 40, 41, 42, 43, 44, 45, 46, 47, 48, 49, 50, 51, 52, 53, 54, 55, 56, 57, 58, 59, 60, 61, 62, 63, 64, 65, 66, 67, 68, 69, 70, 71, 72, 73, 74, 75, 76, 77, 78, 79, 80, 81, 82, 83, 84, 85, 86, 87, 88, 89, 90, 91, 92, 93, 94, 95, 96, 97, 98, 99, 100, 101, 102, 103, 104, 105, 106, 107, 108, 109, 110, 111, 112, 113, 114, 115, 116, 117, 118, 119, 120, 121, 122, 123, 124, 125, 126, 127, 128, 129, 130, 131, 132, 133, 134, 135, 136, 137, 138, 139, 140, 141, 142, 143, 144, 145, 146, 147, 148, 149, 150, 151, 152, 153, 154, 155, 156, 157, 158, 159, 160, 161, 162, 163, 164, 165, 166, 167, 168, 169, 170, 171, 172, 173, 174, 175, 176, 177, 178, 179, 180, 181, 182, 183, 184, 185, 186, 187, 188, 189, 190, 191, 192, 193, 194, 195, 196, 197, 198, 199, 200, 201, 202, 203, 204, 205, 206, 207, 208, 209, 210, 211, 212, 213, 214, 215, 216, 217, 218, 219, 220, 221, 222, 223, 224, 225, 226, 227, 228, 229, 230, 231, 232, 233, 234, 235, 236, 237, 238, 239, 240, 241, 242, 243, 244, 245, 246, 247, 248, 249, 250, 251, 252, 253, 254, 255, 256, 257, 258, 259, 260, 261, 262, 263, 264, 265, 266, 267, 268, 269, 270, 271, 272, 273, 274, 275, 276, 277, 278, 279, 280, 281, 282, 283, 284, 285, 286, 287, 288, 289, 290, 291, 292, 293, 294, 295, 296, 297, 298, 299, 300, 301, 302, 303, 304, 305, 306, 307, 308, 309, 310, 311, 312, 313, 314, 315, 316, 317, 318, 319, 320, 321, 322, 323, 324, 325, 326, 327, 328, 329, 330, 331, 332, 333, 334, 335, 336, 337, 338, 339, 340, 341, 342, 343, 344, 345, 346, 347, 348, 349, 350, 351, 352, 353, 354, 355, 356],
      "AcquisitionTime": ["182930.760000", "182931.760000", "182932.760000", "182933.760000", "182934.760000", "182935.760000", "182936.760000", "182937.760000", "182938.760000", "182939.760000", "182940.760000", "182941.760000", "182942.760000", "182943.760000", "182944.760000", "182945.760000", "182946.760000", "182947.760000", "182948.760000", "182949.760000", "182950.760000", "182951.760000", "182952.760000", "182953.760000", "182954.760000", "182955.760000", "182956.760000", "182957.760000", "182958.760000", "182959.760000", "183000.760000", "183001.760000", "183002.760000", "183003.760000", "183004.760000", "183005.760000", "183006.760000", "183007.760000", "183008.760000", "183009.760000", "183010.760000", "183011.760000", "183012.760000", "183013.760000", "183014.760000", "183015.760000", "183016.760000", "183017.760000", "183018.760000", "183019.760000", "183020.760000", "183021.760000", "183022.760000", "183023.760000", "183024.760000", "183025.760000", "183026.760000", "183027.760000", "183028.760000", "183029.760000", "183030.760000", "183031.760000", "183032.760000", "183033.760000", "183034.760000", "183035.760000", "183036.760000", "183037.760000", "183038.760000", "183039.760000", "183040.760000", "183041.760000", "183042.760000", "183043.760000", "183044.760000", "183045.760000", "183046.760000", "183047.760000", "183048.760000", "183049.760000", "183050.760000", "183051.760000", "183052.760000", "183053.760000", "183054.760000", "183055.760000", "183056.760000", "183057.760000", "183058.760000", "183059.760000", "183100.760000", "183101.760000", "183102.760000", "183103.760000", "183104.760000", "183105.760000", "183106.760000", "183107.760000", "183108.760000", "183109.760000", "183110.760000", "183111.760000", "183112.760000", "183113.760000", "183114.760000", "183115.760000", "183116.760000", "183117.760000", "183118.760000", "183119.760000", "183120.760000", "183121.760000", "183122.760000", "183123.760000", "183124.760000", "183125.760000", "183126.760000", "183127.760000", "183128.760000", "183129.760000", "183130.760000", "183131.760000", "183132.760000", "183133.760000", "183134.760000", "183135.760000", "183136.760000", "183137.760000", "183138.760000", "183139.760000", "183140.760000", "183141.760000", "183142.760000", "183143.760000", "183144.760000", "183145.760000", "183146.760000", "183147.760000", "183148.760000", "183149.760000", "183150.760000", "183151.760000", "183152.760000", "183153.760000", "183154.760000", "183155.760000", "183156.760000", "183157.760000", "183158.760000", "183159.760000", "183200.760000", "183201.760000", "183202.760000", "183203.760000", "183204.760000", "183205.760000", "183206.760000", "183207.760000", "183208.760000", "183209.760000", "183210.760000", "183211.760000", "183212.760000", "183213.760000", "183214.760000", "183215.760000", "183216.760000", "183217.760000", "183218.760000", "183219.760000", "183220.760000", "183221.760000", "183222.760000", "183223.760000", "183224.760000", "183225.760000", "183226.760000", "183227.760000", "183228.760000", "183229.760000", "183230.760000", "183231.760000", "183232.760000", "183233.760000", "183234.760000", "183235.760000", "183236.760000", "183237.760000", "183238.760000", "183239.760000", "183240.760000", "183241.760000", "183242.760000", "183243.760000", "183244.760000", "183245.760000", "183246.760000", "183247.760000", "183248.760000", "183249.760000", "183250.760000", "183251.760000", "183252.760000", "183253.760000", "183254.760000", "183255.760000", "183256.760000", "183257.760000", "183258.760000", "183259.760000", "183300.760000", "183301.760000", "183302.760000", "183303.760000", "183304.760000", "183305.760000", "183306.760000", "183307.760000", "183308.760000", "183309.760000", "183310.760000", "183311.760000", "183312.760000", "183313.760000", "183314.760000", "183315.760000", "183316.760000", "183317.760000", "183318.760000", "183319.760000", "183320.760000", "183321.760000", "183322.760000", "183323.760000", "183324.760000", "183325.760000", "183326.760000", "183327.760000", "183328.760000", "183329.760000", "183330.760000", "183331.760000", "183332.760000", "183333.760000", "183334.760000", "183335.760000", "183336.760000", "183337.760000", "183338.760000", "183339.760000", "183340.760000", "183341.760000", "183342.760000", "183343.760000", "183344.760000", "183345.760000", "183346.760000", "183347.760000", "183348.760000", "183349.760000", "183350.760000", "183351.760000", "183352.760000", "183353.760000", "183354.760000", "183355.760000", "183356.760000", "183357.760000", "183358.760000", "183359.760000", "183400.760000", "183401.760000", "183402.760000", "183403.760000", "183404.760000", "183405.760000", "183406.760000", "183407.760000", "183408.760000", "183409.760000", "183410.760000", "183411.760000", "183412.760000", "183413.760000", "183414.760000", "183415.760000", "183416.760000", "183417.760000", "183418.760000", "183419.760000", "183420.760000", "183421.760000", "183422.760000", "183423.760000", "183424.760000", "183425.760000", "183426.760000", "183427.760000", "183428.760000", "183429.760000", "183430.760000", "183431.760000", "183432.760000", "183433.760000", "183434.760000", "183435.760000", "183436.760000", "183437.760000", "183438.760000", "183439.760000", "183440.760000", "183441.760000", "183442.760000", "183443.760000", "183444.760000", "183445.760000", "183446.760000", "183447.760000", "183448.760000", "183449.760000", "183450.760000", "183451.760000", "183452.760000", "183453.760000", "183454.760000", "183455.760000", "183456.760000", "183457.760000", "183458.760000", "183459.760000", "183500.760000", "183501.760000", "183502.760000", "183503.760000", "183504.760000", "183505.760000", "183506.760000", "183507.760000", "183508.760000", "183509.760000", "183510.760000", "183511.760000", "183512.760000", "183513.760000", "183514.760000", "183515.760000", "183516.760000", "183517.760000", "183518.760000", "183519.760000", "183520.760000", "183521.760000", "183522.760000", "183523.760000", "183524.760000", "183525.760000"],
      "ContentTime": ["183003.986000", "183003.988000", "183003.991000", "183003.993000", "183003.996000", "183003.998000", "183004.007000", "183004.009000", "183004.012000", "183004.014000", "183004.017000", "183004.020000", "183004.022000", "183004.024000", "183004.027000", "183004.030000", "183004.041000", "183004.043000", "183004.046000", "183004.048000", "183004.051000", "183004.053000", "183004.056000", "183004.058000", "183004.061000", "183004.063000", "183004.066000", "183004.068000", "183004.070000", "183004.073000", "183004.076000", "183004.078000", "183023.954000", "183023.957000", "183023.960000", "183023.962000", "183023.964000", "183023.967000", "183023.969000", "183023.972000", "183023.974000", "183023.977000", "183023.979000", "183023.982000", "183023.984000", "183023.998000", "183024.002000", "183024.004000", "183024.007000", "183024.009000", "183024.012000", "183024.014000", "183043.955000", "183043.958000", "183043.961000", "183043.963000", "183043.966000", "183043.968000", "183043.971000", "183043.973000", "183043.976000", "183043.978000", "183043.981000", "183043.983000", "183043.986000", "183043.988000", "183043.991000", "183043.993000", "183043.996000", "183043.998000", "183044.001000", "183044.003000", "183103.954000", "183103.957000", "183103.960000", "183103.962000", "183103.965000", "183103.967000", "183103.970000", "183103.972000", "183103.975000", "183103.977000", "183103.980000", "183103.982000", "183103.985000", "183103.987000", "183103.990000", "183103.992000", "183103.995000", "183103.997000", "183104.001000", "183104.003000", "183123.955000", "183123.957000", "183123.960000", "183123.962000", "183123.965000", "183123.967000", "183123.970000", "183123.972000", "183123.975000", "183123.977000", "183123.980000", "183123.982000", "183123.985000", "183123.987000", "183123.990000", "183123.992000", "183123.995000", "183123.997000", "183124.001000", "183124.003000", "183143.955000", "183143.957000", "183143.960000", "183143.962000", "183143.965000", "183143.967000", "183143.970000", "183143.972000", "183143.975000", "183143.977000", "183143.980000", "183143.982000", "183143.985000", "183143.987000", "183143.990000", "183143.992000", "183143.995000", "183143.997000", "183144.001000", "183144.003000", "183203.954000", "183203.957000", "183203.960000", "183203.962000", "183203.965000", "183203.967000", "183203.970000", "183203.972000", "183203.975000", "183203.977000", "183203.980000", "183203.982000", "183203.985000", "183203.987000", "183203.990000", "183203.992000", "183203.995000", "183203.997000", "183204.001000", "183204.003000", "183223.954000", "183223.957000", "183223.960000", "183223.962000", "183223.965000", "183223.967000", "183223.970000", "183223.972000", "183223.975000", "183223.977000", "183223.980000", "183223.982000", "183223.985000", "183223.987000", "183223.990000", "183223.992000", "183223.995000", "183223.997000", "183224.001000", "183224.003000", "183243.954000", "183243.957000", "183243.960000", "183243.962000", "183243.965000", "183243.967000", "183243.970000", "183243.972000", "183243.975000", "183243.977000", "183243.980000", "183243.982000", "183243.985000", "183243.987000", "183243.990000", "183243.992000", "183243.995000", "183243.997000", "183244.001000", "183244.003000", "183303.955000", "183303.958000", "183303.961000", "183303.963000", "183303.966000", "183303.968000", "183303.971000", "183303.973000", "183303.976000", "183303.978000", "183303.981000", "183303.983000", "183303.986000", "183303.988000", "183303.991000", "183303.993000", "183303.996000", "183303.998000", "183304.001000", "183304.003000", "183323.955000", "183323.957000", "183323.960000", "183323.962000", "183323.965000", "183323.967000", "183323.970000", "183323.972000", "183323.975000", "183323.977000", "183323.979000", "183323.982000", "183323.984000", "183323.987000", "183323.989000", "183323.992000", "183323.994000", "183323.997000", "183324.000000", "183324.003000", "183343.954000", "183343.957000", "183343.960000", "183343.962000", "183343.965000", "183343.967000", "183343.970000", "183343.972000", "183343.975000", "183343.977000", "183343.980000", "183343.982000", "183343.985000", "183343.987000", "183343.990000", "183343.992000", "183343.995000", "183343.997000", "183344.001000", "183344.003000", "183403.955000", "183403.957000", "183403.960000", "183403.962000", "183403.965000", "183403.967000", "183403.970000", "183403.972000", "183403.975000", "183403.977000", "183403.980000", "183403.982000", "183403.985000", "183403.987000", "183403.990000", "183403.992000", "183403.995000", "183403.997000", "183404.001000", "183404.003000", "183423.955000", "183423.957000", "183423.960000", "183423.962000", "183423.965000", "183423.967000", "183423.970000", "183423.972000", "183423.975000", "183423.977000", "183423.980000", "183423.982000", "183423.985000", "183423.987000", "183423.990000", "183423.992000", "183423.995000", "183423.997000", "183424.001000", "183424.003000", "183443.955000", "183443.957000", "183443.960000", "183443.963000", "183443.965000", "183443.968000", "183443.970000", "183443.973000", "183443.975000", "183443.978000", "183443.980000", "183443.983000", "183443.985000", "183443.988000", "183443.990000", "183443.993000", "183443.995000", "183443.998000", "183444.001000", "183444.004000", "183503.955000", "183503.957000", "183503.960000", "183503.962000", "183503.965000", "183503.967000", "183503.970000", "183503.972000", "183503.975000", "183503.977000", "183503.980000", "183503.983000", "183503.985000", "183503.987000", "183503.990000", "183503.992000", "183503.995000", "183503.997000", "183504.001000", "183504.003000", "183523.955000", "183523.958000", "183523.961000", "183523.963000", "183523.966000", "183523.968000", "183523.971000", "183523.973000", "183523.976000", "183523.978000", "183523.981000", "183523.983000", "183523.986000", "183523.988000", "183523.991000", "183523.993000", "183523.996000", "183523.998000", "183524.002000", "183524.004000", "183527.706000", "183527.709000", "183527.712000", "183527.714000"],
      "InstanceCreationTime": ["183003.986000", "183003.988000", "183003.991000", "183003.993000", "183003.996000", "183003.998000", "183004.007000", "183004.009000", "183004.012000", "183004.014000", "183004.017000", "183004.020000", "183004.022000", "183004.024000", "183004.027000", "183004.030000", "183004.041000", "183004.043000", "183004.046000", "183004.048000", "183004.051000", "183004.053000", "183004.056000", "183004.058000", "183004.061000", "183004.063000", "183004.066000", "183004.068000", "183004.070000", "183004.073000", "183004.076000", "183004.078000", "183023.954000", "183023.957000", "183023.960000", "183023.962000", "183023.964000", "183023.967000", "183023.969000", "183023.972000", "183023.974000", "183023.977000", "183023.979000", "183023.982000", "183023.984000", "183023.998000", "183024.002000", "183024.004000", "183024.007000", "183024.009000", "183024.012000", "183024.014000", "183043.955000", "183043.958000", "183043.961000", "183043.963000", "183043.966000", "183043.968000", "183043.971000", "183043.973000", "183043.976000", "183043.978000", "183043.981000", "183043.983000", "183043.986000", "183043.988000", "183043.991000", "183043.993000", "183043.996000", "183043.998000", "183044.001000", "183044.003000", "183103.954000", "183103.957000", "183103.960000", "183103.962000", "183103.965000", "183103.967000", "183103.970000", "183103.972000", "183103.975000", "183103.977000", "183103.980000", "183103.982000", "183103.985000", "183103.987000", "183103.990000", "183103.992000", "183103.995000", "183103.997000", "183104.001000", "183104.003000", "183123.955000", "183123.957000", "183123.960000", "183123.962000", "183123.965000", "183123.967000", "183123.970000", "183123.972000", "183123.975000", "183123.977000", "183123.980000", "183123.982000", "183123.985000", "183123.987000", "183123.990000", "183123.992000", "183123.995000", "183123.997000", "183124.001000", "183124.003000", "183143.955000", "183143.957000", "183143.960000", "183143.962000", "183143.965000", "183143.967000", "183143.970000", "183143.972000", "183143.975000", "183143.977000", "183143.980000", "183143.982000", "183143.985000", "183143.987000", "183143.990000", "183143.992000", "183143.995000", "183143.997000", "183144.001000", "183144.003000", "183203.954000", "183203.957000", "183203.960000", "183203.962000", "183203.965000", "183203.967000", "183203.970000", "183203.972000", "183203.975000", "183203.977000", "183203.980000", "183203.982000", "183203.985000", "183203.987000", "183203.990000", "183203.992000", "183203.995000", "183203.997000", "183204.001000", "183204.003000", "183223.954000", "183223.957000", "183223.960000", "183223.962000", "183223.965000", "183223.967000", "183223.970000", "183223.972000", "183223.975000", "183223.977000", "183223.980000", "183223.982000", "183223.985000", "183223.987000", "183223.990000", "183223.992000", "183223.995000", "183223.997000", "183224.001000", "183224.003000", "183243.954000", "183243.957000", "183243.960000", "183243.962000", "183243.965000", "183243.967000", "183243.970000", "183243.972000", "183243.975000", "183243.977000", "183243.980000", "183243.982000", "183243.985000", "183243.987000", "183243.990000", "183243.992000", "183243.995000", "183243.997000", "183244.001000", "183244.003000", "183303.955000", "183303.958000", "183303.961000", "183303.963000", "183303.966000", "183303.968000", "183303.971000", "183303.973000", "183303.976000", "183303.978000", "183303.981000", "183303.983000", "183303.986000", "183303.988000", "183303.991000", "183303.993000", "183303.996000", "183303.998000", "183304.001000", "183304.003000", "183323.955000", "183323.957000", "183323.960000", "183323.962000", "183323.965000", "183323.967000", "183323.970000", "183323.972000", "183323.975000", "183323.977000", "183323.979000", "183323.982000", "183323.984000", "183323.987000", "183323.989000", "183323.992000", "183323.994000", "183323.997000", "183324.000000", "183324.003000", "183343.954000", "183343.957000", "183343.960000", "183343.962000", "183343.965000", "183343.967000", "183343.970000", "183343.972000", "183343.975000", "183343.977000", "183343.980000", "183343.982000", "183343.985000", "183343.987000", "183343.990000", "183343.992000", "183343.995000", "183343.997000", "183344.001000", "183344.003000", "183403.955000", "183403.957000", "183403.960000", "183403.962000", "183403.965000", "183403.967000", "183403.970000", "183403.972000", "183403.975000", "183403.977000", "183403.980000", "183403.982000", "183403.985000", "183403.987000", "183403.990000", "183403.992000", "183403.995000", "183403.997000", "183404.001000", "183404.003000", "183423.955000", "183423.957000", "183423.960000", "183423.962000", "183423.965000", "183423.967000", "183423.970000", "183423.972000", "183423.975000", "183423.977000", "183423.980000", "183423.982000", "183423.985000", "183423.987000", "183423.990000", "183423.992000", "183423.995000", "183423.997000", "183424.001000", "183424.003000", "183443.955000", "183443.957000", "183443.960000", "183443.963000", "183443.965000", "183443.968000", "183443.970000", "183443.973000", "183443.975000", "183443.978000", "183443.980000", "183443.983000", "183443.985000", "183443.988000", "183443.990000", "183443.993000", "183443.995000", "183443.998000", "183444.001000", "183444.004000", "183503.955000", "183503.957000", "183503.960000", "183503.962000", "183503.965000", "183503.967000", "183503.970000", "183503.972000", "183503.975000", "183503.977000", "183503.980000", "183503.983000", "183503.985000", "183503.987000", "183503.990000", "183503.992000", "183503.995000", "183503.997000", "183504.001000", "183504.003000", "183523.955000", "183523.958000", "183523.961000", "183523.963000", "183523.966000", "183523.968000", "183523.971000", "183523.973000", "183523.976000", "183523.978000", "183523.981000", "183523.983000", "183523.986000", "183523.988000", "183523.991000", "183523.993000", "183523.996000", "183523.998000", "183524.002000", "183524.004000", "183527.706000", "183527.709000", "183527.712000", "183527.714000"],
      "InstanceNumber": [1, 2, 3, 4, 5, 6, 7, 8, 9, 10, 11, 12, 13, 14, 15, 16, 17, 18, 19, 20, 21, 22, 23, 24, 25, 26, 27, 28, 29, 30, 31, 32, 33, 34, 35, 36, 37, 38, 39, 40, 41, 42, 43, 44, 45, 46, 47, 48, 49, 50, 51, 52, 53, 54, 55, 56, 57, 58, 59, 60, 61, 62, 63, 64, 65, 66, 67, 68, 69, 70, 71, 72, 73, 74, 75, 76, 77, 78, 79, 80, 81, 82, 83, 84, 85, 86, 87, 88, 89, 90, 91, 92, 93, 94, 95, 96, 97, 98, 99, 100, 101, 102, 103, 104, 105, 106, 107, 108, 109, 110, 111, 112, 113, 114, 115, 116, 117, 118, 119, 120, 121, 122, 123, 124, 125, 126, 127, 128, 129, 130, 131, 132, 133, 134, 135, 136, 137, 138, 139, 140, 141, 142, 143, 144, 145, 146, 147, 148, 149, 150, 151, 152, 153, 154, 155, 156, 157, 158, 159, 160, 161, 162, 163, 164, 165, 166, 167, 168, 169, 170, 171, 172, 173, 174, 175, 176, 177, 178, 179, 180, 181, 182, 183, 184, 185, 186, 187, 188, 189, 190, 191, 192, 193, 194, 195, 196, 197, 198, 199, 200, 201, 202, 203, 204, 205, 206, 207, 208, 209, 210, 211, 212, 213, 214, 215, 216, 217, 218, 219, 220, 221, 222, 223, 224, 225, 226, 227, 228, 229, 230, 231, 232, 233, 234, 235, 236, 237, 238, 239, 240, 241, 242, 243, 244, 245, 246, 247, 248, 249, 250, 251, 252, 253, 254, 255, 256, 257, 258, 259, 260, 261, 262, 263, 264, 265, 266, 267, 268, 269, 270, 271, 272, 273, 274, 275, 276, 277, 278, 279, 280, 281, 282, 283, 284, 285, 286, 287, 288, 289, 290, 291, 292, 293, 294, 295, 296, 297, 298, 299, 300, 301, 302, 303, 304, 305, 306, 307, 308, 309, 310, 311, 312, 313, 314, 315, 316, 317, 318, 319, 320, 321, 322, 323, 324, 325, 326, 327, 328, 329, 330, 331, 332, 333, 334, 335, 336, 337, 338, 339, 340, 341, 342, 343, 344, 345, 346, 347, 348, 349, 350, 351, 352, 353, 354, 355, 356],
      "LargestImagePixelValue": [11154, 11150, 10870, 10856, 10906, 10680, 10614, 10760, 10761, 10702, 10590, 10607, 10483, 10667, 10726, 10626, 10579, 10713, 10602, 10607, 10815, 10570, 10569, 10570, 10501, 10605, 10608, 10481, 10536, 10630, 10539, 10531, 10656, 10537, 10514, 10658, 10564, 10488, 10533, 10519, 10378, 10327, 10460, 10312, 10553, 10472, 10349, 10511, 10439, 10316, 10553, 10377, 10340, 10539, 10598, 10515, 10723, 10647, 10662, 10731, 10783, 10661, 10631, 10754, 10558, 10627, 10609, 10473, 10775, 10578, 10587, 10712, 10524, 10678, 10627, 10562, 10701, 10694, 10700, 10787, 10524, 10896, 10583, 10557, 10653, 10541, 10624, 10701, 10712, 10646, 10714, 10634, 10663, 10696, 10683, 10606, 10682, 10755, 10569, 10615, 10778, 10497, 10578, 10742, 10534, 10637, 10928, 10681, 10604, 10727, 10696, 10562, 10808, 10649, 10558, 10773, 10750, 10650, 10712, 10816, 10736, 10708, 10876, 10655, 10493, 10807, 10532, 10520, 10835, 10630, 10537, 10727, 10818, 10533, 10821, 10618, 10460, 10836, 10638, 10521, 10672, 10577, 10562, 10836, 10728, 10526, 10773, 10818, 10582, 10508, 10927, 10718, 10698, 10875, 10684, 10558, 10669, 10766, 10460, 10640, 10609, 10635, 10724, 10559, 10398, 10565, 10476, 10334, 10523, 10605, 10385, 10545, 10487, 10328, 10541, 10475, 10393, 10591, 10493, 10240, 10618, 10741, 10429, 10480, 10773, 10641, 10476, 10455, 10330, 10691, 10416, 10411, 10602, 10478, 10326, 10436, 10481, 10257, 10625, 10517, 10369, 10360, 10792, 10517, 10348, 10391, 10407, 10264, 10419, 10453, 10182, 10511, 10388, 10153, 10226, 10245, 10107, 10213, 10387, 10122, 10213, 10488, 10211, 10252, 10439, 10334, 10150, 10290, 10274, 10144, 10231, 10265, 10129, 10348, 10293, 10149, 10378, 10439, 10331, 10441, 10401, 10482, 10266, 10241, 10456, 10345, 10266, 10448, 10326, 10353, 10238, 10211, 10234, 10350, 10403, 10353, 10435, 10369, 10472, 10447, 10330, 10341, 10360, 10410, 10117, 10316, 10365, 10246, 10273, 10206, 10124, 10292, 10141, 10069, 10335, 10453, 10533, 10397, 10533, 10366, 10137, 10195, 10185, 10259, 10440, 10303, 10368, 10340, 10299, 10417, 10492, 10353, 10171, 10317, 10192, 10364, 10324, 10153, 10224, 10179, 10200, 10166, 10244, 10225, 10230, 10363, 10311, 10385, 10246, 10408, 10333, 10304, 10375, 10266, 10400, 10489, 10369, 10532, 10455, 10453, 10473, 10486, 10467, 10520, 10535, 10626, 10324, 10573, 10418, 10470, 10619, 10568, 10685, 10622, 10504, 10491, 10401, 10205, 10326, 10247, 10227, 10282, 10273, 10082, 10192, 10220, 10131, 10199, 10381, 10367, 10406, 10419, 10541, 10555, 10326, 10238],
