{
  "AcquisitionMatrixPE": 106,
  "AcquisitionNumber": 1,
  "AcquisitionTime": "18:18:4.952500",
  "BandwidthPerPixelPhaseEncode": 16.846,
  "BaseResolution": 106,
  "BodyPartExamined": "BRAIN",
  "CoilCombinationMethod": "Sum of Squares",
  "ConsistencyInfo": "N4_VE11C_LATEST_20160120",
  "ConversionSoftware": "dcm2niix",
  "ConversionSoftwareVersion": "v1.0.20220720",
  "DerivedVendorReportedEchoSpacing": 0.000560012,
  "DeviceSerialNumber": "166108",
  "DwellTime": 1.8e-06,
  "EchoTime": 0.0352,
  "EchoTrainLength": 106,
  "EffectiveEchoSpacing": 0.000560012,
  "FlipAngle": 60,
  "HeudiconvVersion": "1.3.0",
  "ImageComments": "Unaliased MB4/PE3/LB",
  "ImageOrientationPatientDICOM": [1, 0, 0, 0, 0.927836, -0.372988],
  "ImageOrientationText": "Tra>Cor(-21.9)",
  "ImageType": [
    "ORIGINAL",
    "PRIMARY",
    "M",
    "MB",
    "ND",
    "MOSAIC"
],
  "ImagingFrequency": 123.244,
  "InPlanePhaseEncodingDirectionDICOM": "COL",
  "InstitutionAddress": "Bedford Way 26,London,London,GB,WC1H 0AP",
  "InstitutionName": "University College",
  "InstitutionalDepartmentName": "Department",
  "MRAcquisitionType": "2D",
  "MagneticFieldStrength": 3,
  "Manufacturer": "Siemens",
  "ManufacturersModelName": "Prisma",
  "MatrixCoilMode": "SENSE",
  "Modality": "MR",
  "MultibandAccelerationFactor": 4,
  "NonlinearGradientCorrection": false,
  "PartialFourier": 1,
  "PatientPosition": "HFS",
  "PercentPhaseFOV": 100,
  "PercentSampling": 100,
  "PhaseEncodingDirection": "j-",
  "PhaseEncodingSteps": 106,
  "PhaseResolution": 1,
  "PixelBandwidth": 2620,
  "ProcedureStepDescription": "Egor^MovieProject2",
  "ProtocolName": "func-bold_task-pRF_run-01",
  "PulseSequenceDetails": "%CustomerSeq%\\cmrr_mbep2d_bold",
  "ReceiveCoilActiveElements": "HEA;HEP",
  "ReceiveCoilName": "Head_32",
  "ReconMatrixPE": 106,
  "RepetitionTime": 1,
  "SAR": 0.0634914,
  "ScanOptions": "FS\\EXT",
  "ScanningSequence": "EP",
  "SequenceName": "epfid2d1_106",
  "SequenceVariant": "SK\\SS",
  "SeriesDescription": "func-bold_task-pRF_run-01",
  "SeriesNumber": 10,
  "ShimSetting": [-1602, 640, 7422, 278, -135, 245, -28, 54],
  "SliceThickness": 2,
  "SliceTiming": [0, 0.4075, 0.815, 0.245, 0.6525, 0.08, 0.49, 0.8975, 0.325, 0.735, 0.1625, 0.57, 0, 0.4075, 0.815, 0.245, 0.6525, 0.08, 0.49, 0.8975, 0.325, 0.735, 0.1625, 0.57, 0, 0.4075, 0.815, 0.245, 0.6525, 0.08, 0.49, 0.8975, 0.325, 0.735, 0.1625, 0.57, 0, 0.4075, 0.815, 0.245, 0.6525, 0.08, 0.49, 0.8975, 0.325, 0.735, 0.1625, 0.57],
  "SoftwareVersions": "syngo MR E11",
  "SpacingBetweenSlices": 2,
  "StationName": "AWP166108",
  "TaskName": "retinotopy",
  "TotalReadoutTime": 0.0588013,
  "TxRefAmp": 217.941,
  "WipMemBlock": "8c64e5db-f4e2-444a-9fdc-ae939011a0aa||Sequence: R016 ve11c/master r/e634e98; Dec 19 2017 11:00:25 by eja",
  "dcmmeta_affine": [
    [-2.0, 0.0, 0.0, 106.0],
    [0.0, 1.8556724786758423, -0.7459755539894104, -77.7308120727539],
    [0.0, 0.7459755539894104, 1.8556725978851318, -56.4906005859375],
    [0.0, 0.0, 0.0, 1.0]
],
  "dcmmeta_reorient_transform": [
    [0.0, -1.0, 0.0, 105.0],
    [1.0, 0.0, 0.0, 0.0],
    [0.0, 0.0, 1.0, 0.0],
    [0.0, 0.0, 0.0, 1.0]
],
  "dcmmeta_shape": [106, 106, 48, 356],
  "dcmmeta_slice_dim": 2,
  "dcmmeta_version": 0.6,
  "global": {
    "const": {
      "AcquisitionMatrix": [106, 0, 0, 106],
      "AngioFlag": "N",
      "BitsAllocated": 16,
      "BitsStored": 16,
      "BodyPartExamined": "BRAIN",
      "CardiacNumberOfImages": 1,
      "Columns": 742,
      "EchoNumbers": 1,
      "EchoTime": 35.2,
      "EchoTrainLength": 106,
      "FlipAngle": 60.0,
      "HighBit": 15,
      "ImageOrientationPatient": [1.0, 0.0, 0.0, 0.0, 0.92783625610898, -0.3729877770781],
      "ImagePositionPatient": [-742.0, -707.21866218911, 259.05705952873],
      "ImageType": [
        "ORIGINAL",
        "PRIMARY",
        "M",
        "MB",
        "ND",
        "MOSAIC"
],
      "ImagedNucleus": "1H",
      "ImagingFrequency": 123.243684,
      "InPlanePhaseEncodingDirection": "COL",
      "MRAcquisitionType": "2D",
      "MagneticFieldStrength": 3.0,
      "Manufacturer": "SIEMENS",
      "ManufacturerModelName": "Prisma",
      "Modality": "MR",
      "NominalInterval": 0,
      "NumberOfAverages": 1.0,
      "NumberOfPhaseEncodingSteps": 106,
      "PercentPhaseFieldOfView": 100.0,
      "PercentSampling": 100.0,
      "PerformedProcedureStepStartTime": "172905.661000",
      "PhotometricInterpretation": "MONOCHROME2",
      "PixelBandwidth": 2620.0,
      "PixelRepresentation": 0,
      "PixelSpacing": [2.0, 2.0],
      "ProtocolName": "func-bold_task-pRF_run-01",
      "RepetitionTime": 1000.0,
      "Rows": 742,
      "SAR": 0.0634914402386,
      "SamplesPerPixel": 1,
      "ScanOptions": [
        "FS",
        "EXT"
],
      "ScanningSequence": "EP",
      "SequenceName": "epfid2d1_106",
      "SequenceVariant": [
        "SK",
        "SS"
],
      "SeriesDescription": "func-bold_task-pRF_run-01",
      "SeriesNumber": 10,
      "SeriesTime": "181848.495000",
      "SliceLocation": -23.421384486339,
      "SliceThickness": 2.0,
      "SmallestImagePixelValue": 0,
      "SoftwareVersions": "syngo MR E11",
      "SpacingBetweenSlices": 2.0000000299676,
      "SpecificCharacterSet": "ISO_IR 100",
      "StudyID": "1",
      "StudyTime": "172905.550000",
      "TransmitCoilName": "Body",
      "VariableFlipAngleFlag": "N",
      "WindowCenterWidthExplanation": "Algo1",
      "dBdt": 0.0},
    "slices": {}
  },
  "time": {
    "samples": {
      "AcquisitionNumber": [1, 2, 3, 4, 5, 6, 7, 8, 9, 10, 11, 12, 13, 14, 15, 16, 17, 18, 19, 20, 21, 22, 23, 24, 25, 26, 27, 28, 29, 30, 31, 32, 33, 34, 35, 36, 37, 38, 39, 40, 41, 42, 43, 44, 45, 46, 47, 48, 49, 50, 51, 52, 53, 54, 55, 56, 57, 58, 59, 60, 61, 62, 63, 64, 65, 66, 67, 68, 69, 70, 71, 72, 73, 74, 75, 76, 77, 78, 79, 80, 81, 82, 83, 84, 85, 86, 87, 88, 89, 90, 91, 92, 93, 94, 95, 96, 97, 98, 99, 100, 101, 102, 103, 104, 105, 106, 107, 108, 109, 110, 111, 112, 113, 114, 115, 116, 117, 118, 119, 120, 121, 122, 123, 124, 125, 126, 127, 128, 129, 130, 131, 132, 133, 134, 135, 136, 137, 138, 139, 140, 141, 142, 143, 144, 145, 146, 147, 148, 149, 150, 151, 152, 153, 154, 155, 156, 157, 158, 159, 160, 161, 162, 163, 164, 165, 166, 167, 168, 169, 170, 171, 172, 173, 174, 175, 176, 177, 178, 179, 180, 181, 182, 183, 184, 185, 186, 187, 188, 189, 190, 191, 192, 193, 194, 195, 196, 197, 198, 199, 200, 201, 202, 203, 204, 205, 206, 207, 208, 209, 210, 211, 212, 213, 214, 215, 216, 217, 218, 219, 220, 221, 222, 223, 224, 225, 226, 227, 228, 229, 230, 231, 232, 233, 234, 235, 236, 237, 238, 239, 240, 241, 242, 243, 244, 245, 246, 247, 248, 249, 250, 251, 252, 253, 254, 255, 256, 257, 258, 259, 260, 261, 262, 263, 264, 265, 266, 267, 268, 269, 270, 271, 272, 273, 274, 275, 276, 277, 278, 279, 280, 281, 282, 283, 284, 285, 286, 287, 288, 289, 290, 291, 292, 293, 294, 295, 296, 297, 298, 299, 300, 301, 302, 303, 304, 305, 306, 307, 308, 309, 310, 311, 312, 313, 314, 315, 316, 317, 318, 319, 320, 321, 322, 323, 324, 325, 326, 327, 328, 329, 330, 331, 332, 333, 334, 335, 336, 337, 338, 339, 340, 341, 342, 343, 344, 345, 346, 347, 348, 349, 350, 351, 352, 353, 354, 355, 356],
      "AcquisitionTime": ["181804.952500", "181805.952500", "181806.952500", "181807.952500", "181808.952500", "181809.952500", "181810.952500", "181811.952500", "181812.952500", "181813.952500", "181814.952500", "181815.952500", "181816.952500", "181817.952500", "181818.952500", "181819.952500", "181820.952500", "181821.952500", "181822.952500", "181823.952500", "181824.952500", "181825.952500", "181826.952500", "181827.952500", "181828.952500", "181829.952500", "181830.952500", "181831.952500", "181832.952500", "181833.952500", "181834.952500", "181835.952500", "181836.952500", "181837.952500", "181838.952500", "181839.952500", "181840.952500", "181841.952500", "181842.952500", "181843.952500", "181844.952500", "181845.952500", "181846.952500", "181847.952500", "181848.952500", "181849.952500", "181850.952500", "181851.952500", "181852.952500", "181853.952500", "181854.952500", "181855.952500", "181856.952500", "181857.952500", "181858.952500", "181859.952500", "181900.952500", "181901.952500", "181902.952500", "181903.952500", "181904.952500", "181905.952500", "181906.952500", "181907.952500", "181908.952500", "181909.952500", "181910.952500", "181911.952500", "181912.952500", "181913.952500", "181914.952500", "181915.952500", "181916.952500", "181917.952500", "181918.952500", "181919.952500", "181920.952500", "181921.952500", "181922.952500", "181923.952500", "181924.952500", "181925.952500", "181926.952500", "181927.952500", "181928.952500", "181929.952500", "181930.952500", "181931.952500", "181932.952500", "181933.952500", "181934.952500", "181935.952500", "181936.952500", "181937.952500", "181938.952500", "181939.952500", "181940.952500", "181941.952500", "181942.952500", "181943.952500", "181944.952500", "181945.952500", "181946.952500", "181947.952500", "181948.952500", "181949.952500", "181950.952500", "181951.952500", "181952.952500", "181953.952500", "181954.952500", "181955.952500", "181956.952500", "181957.952500", "181958.952500", "181959.952500", "182000.952500", "182001.952500", "182002.952500", "182003.952500", "182004.952500", "182005.952500", "182006.952500", "182007.952500", "182008.952500", "182009.952500", "182010.952500", "182011.952500", "182012.952500", "182013.952500", "182014.952500", "182015.952500", "182016.952500", "182017.952500", "182018.952500", "182019.952500", "182020.952500", "182021.952500", "182022.952500", "182023.952500", "182024.952500", "182025.952500", "182026.952500", "182027.952500", "182028.952500", "182029.952500", "182030.952500", "182031.952500", "182032.952500", "182033.952500", "182034.952500", "182035.952500", "182036.952500", "182037.952500", "182038.952500", "182039.952500", "182040.952500", "182041.952500", "182042.952500", "182043.952500", "182044.952500", "182045.952500", "182046.952500", "182047.952500", "182048.952500", "182049.952500", "182050.952500", "182051.952500", "182052.952500", "182053.952500", "182054.952500", "182055.952500", "182056.952500", "182057.952500", "182058.952500", "182059.952500", "182100.952500", "182101.952500", "182102.952500", "182103.952500", "182104.952500", "182105.952500", "182106.952500", "182107.952500", "182108.952500", "182109.952500", "182110.952500", "182111.952500", "182112.952500", "182113.952500", "182114.952500", "182115.952500", "182116.952500", "182117.952500", "182118.952500", "182119.952500", "182120.952500", "182121.952500", "182122.952500", "182123.952500", "182124.952500", "182125.952500", "182126.952500", "182127.952500", "182128.952500", "182129.952500", "182130.952500", "182131.952500", "182132.952500", "182133.952500", "182134.952500", "182135.952500", "182136.952500", "182137.952500", "182138.952500", "182139.952500", "182140.952500", "182141.952500", "182142.952500", "182143.952500", "182144.952500", "182145.952500", "182146.952500", "182147.952500", "182148.952500", "182149.952500", "182150.952500", "182151.952500", "182152.952500", "182153.952500", "182154.952500", "182155.952500", "182156.952500", "182157.952500", "182158.952500", "182159.952500", "182200.952500", "182201.952500", "182202.952500", "182203.952500", "182204.952500", "182205.952500", "182206.952500", "182207.952500", "182208.952500", "182209.952500", "182210.952500", "182211.952500", "182212.952500", "182213.952500", "182214.952500", "182215.952500", "182216.952500", "182217.952500", "182218.952500", "182219.952500", "182220.952500", "182221.952500", "182222.952500", "182223.952500", "182224.952500", "182225.952500", "182226.952500", "182227.952500", "182228.952500", "182229.952500", "182230.952500", "182231.952500", "182232.952500", "182233.952500", "182234.952500", "182235.952500", "182236.952500", "182237.952500", "182238.952500", "182239.952500", "182240.952500", "182241.952500", "182242.952500", "182243.952500", "182244.952500", "182245.952500", "182246.952500", "182247.952500", "182248.952500", "182249.952500", "182250.952500", "182251.952500", "182252.952500", "182253.952500", "182254.952500", "182255.952500", "182256.952500", "182257.952500", "182258.952500", "182259.952500", "182300.952500", "182301.952500", "182302.952500", "182303.952500", "182304.952500", "182305.952500", "182306.952500", "182307.952500", "182308.952500", "182309.952500", "182310.952500", "182311.952500", "182312.952500", "182313.952500", "182314.952500", "182315.952500", "182316.952500", "182317.952500", "182318.952500", "182319.952500", "182320.952500", "182321.952500", "182322.952500", "182323.952500", "182324.952500", "182325.952500", "182326.952500", "182327.952500", "182328.952500", "182329.952500", "182330.952500", "182331.952500", "182332.952500", "182333.952500", "182334.952500", "182335.952500", "182336.952500", "182337.952500", "182338.952500", "182339.952500", "182340.952500", "182341.952500", "182342.952500", "182343.952500", "182344.952500", "182345.952500", "182346.952500", "182347.952500", "182348.952500", "182349.952500", "182350.952500", "182351.952500", "182352.952500", "182353.952500", "182354.952500", "182355.952500", "182356.952500", "182357.952500", "182358.952500", "182359.952500"],
      "ContentTime": ["181848.498000", "181848.500000", "181848.503000", "181848.506000", "181848.508000", "181848.511000", "181848.513000", "181848.516000", "181848.518000", "181848.521000", "181848.523000", "181848.526000", "181848.528000", "181848.531000", "181848.533000", "181848.536000", "181848.538000", "181848.541000", "181848.543000", "181848.546000", "181848.548000", "181848.551000", "181848.553000", "181848.555000", "181848.558000", "181848.560000", "181848.563000", "181848.574000", "181848.576000", "181848.579000", "181848.582000", "181848.584000", "181848.587000", "181848.589000", "181848.592000", "181848.594000", "181848.597000", "181848.599000", "181848.602000", "181848.604000", "181848.607000", "181848.609000", "181908.459000", "181908.461000", "181908.465000", "181908.468000", "181908.470000", "181908.473000", "181908.475000", "181908.478000", "181908.480000", "181908.483000", "181908.485000", "181908.488000", "181908.490000", "181908.493000", "181908.495000", "181908.498000", "181908.500000", "181908.503000", "181908.505000", "181908.508000", "181928.459000", "181928.461000", "181928.464000", "181928.466000", "181928.469000", "181928.471000", "181928.474000", "181928.476000", "181928.479000", "181928.481000", "181928.484000", "181928.486000", "181928.489000", "181928.491000", "181928.494000", "181928.496000", "181928.499000", "181928.501000", "181928.504000", "181928.506000", "181948.458000", "181948.461000", "181948.464000", "181948.466000", "181948.469000", "181948.471000", "181948.474000", "181948.476000", "181948.479000", "181948.481000", "181948.484000", "181948.486000", "181948.489000", "181948.491000", "181948.494000", "181948.496000", "181948.499000", "181948.501000", "181948.504000", "181948.506000", "182008.458000", "182008.461000", "182008.463000", "182008.466000", "182008.468000", "182008.471000", "182008.474000", "182008.476000", "182008.479000", "182008.481000", "182008.484000", "182008.486000", "182008.489000", "182008.491000", "182008.493000", "182008.496000", "182008.498000", "182008.501000", "182008.503000", "182008.507000", "182028.457000", "182028.460000", "182028.462000", "182028.465000", "182028.467000", "182028.470000", "182028.472000", "182028.475000", "182028.477000", "182028.480000", "182028.482000", "182028.485000", "182028.487000", "182028.490000", "182028.492000", "182028.495000", "182028.498000", "182028.500000", "182028.503000", "182028.505000", "182048.458000", "182048.460000", "182048.463000", "182048.465000", "182048.468000", "182048.470000", "182048.473000", "182048.475000", "182048.478000", "182048.480000", "182048.483000", "182048.485000", "182048.488000", "182048.490000", "182048.493000", "182048.495000", "182048.498000", "182048.500000", "182048.503000", "182048.506000", "182108.458000", "182108.461000", "182108.464000", "182108.466000", "182108.469000", "182108.471000", "182108.474000", "182108.476000", "182108.479000", "182108.481000", "182108.484000", "182108.486000", "182108.489000", "182108.491000", "182108.494000", "182108.496000", "182108.499000", "182108.501000", "182108.504000", "182108.506000", "182128.458000", "182128.461000", "182128.464000", "182128.466000", "182128.469000", "182128.471000", "182128.474000", "182128.476000", "182128.479000", "182128.481000", "182128.484000", "182128.486000", "182128.489000", "182128.491000", "182128.494000", "182128.496000", "182128.499000", "182128.501000", "182128.504000", "182128.506000", "182148.459000", "182148.461000", "182148.464000", "182148.467000", "182148.469000", "182148.472000", "182148.474000", "182148.476000", "182148.479000", "182148.481000", "182148.484000", "182148.486000", "182148.489000", "182148.500000", "182148.503000", "182148.505000", "182148.508000", "182148.510000", "182148.513000", "182148.515000", "182208.458000", "182208.461000", "182208.463000", "182208.466000", "182208.468000", "182208.471000", "182208.473000", "182208.476000", "182208.479000", "182208.481000", "182208.483000", "182208.486000", "182208.488000", "182208.491000", "182208.493000", "182208.496000", "182208.498000", "182208.501000", "182208.503000", "182208.506000", "182228.458000", "182228.461000", "182228.464000", "182228.466000", "182228.469000", "182228.471000", "182228.474000", "182228.476000", "182228.479000", "182228.481000", "182228.484000", "182228.486000", "182228.489000", "182228.491000", "182228.494000", "182228.496000", "182228.499000", "182228.501000", "182228.504000", "182228.506000", "182248.458000", "182248.460000", "182248.463000", "182248.465000", "182248.468000", "182248.471000", "182248.473000", "182248.475000", "182248.478000", "182248.480000", "182248.483000", "182248.485000", "182248.488000", "182248.490000", "182248.493000", "182248.495000", "182248.498000", "182248.500000", "182248.503000", "182248.505000", "182308.457000", "182308.460000", "182308.463000", "182308.465000", "182308.468000", "182308.470000", "182308.473000", "182308.475000", "182308.478000", "182308.480000", "182308.483000", "182308.485000", "182308.488000", "182308.490000", "182308.493000", "182308.495000", "182308.498000", "182308.500000", "182308.503000", "182308.505000", "182328.459000", "182328.461000", "182328.464000", "182328.466000", "182328.469000", "182328.471000", "182328.474000", "182328.476000", "182328.479000", "182328.481000", "182328.484000", "182328.487000", "182328.489000", "182328.492000", "182328.494000", "182328.497000", "182328.499000", "182328.502000", "182328.504000", "182328.508000", "182348.459000", "182348.461000", "182348.464000", "182348.466000", "182348.469000", "182348.471000", "182348.474000", "182348.476000", "182348.479000", "182348.481000", "182348.484000", "182348.486000", "182348.489000", "182348.491000", "182348.494000", "182348.496000", "182348.499000", "182348.501000", "182348.504000", "182348.507000", "182401.997000", "182402.000000", "182402.002000", "182402.005000", "182402.007000", "182402.010000", "182402.013000", "182402.015000", "182402.018000", "182402.021000", "182402.024000", "182402.026000", "182402.029000", "182402.031000"],
      "InstanceCreationTime": ["181848.498000", "181848.500000", "181848.503000", "181848.506000", "181848.508000", "181848.511000", "181848.513000", "181848.516000", "181848.518000", "181848.521000", "181848.523000", "181848.526000", "181848.528000", "181848.531000", "181848.533000", "181848.536000", "181848.538000", "181848.541000", "181848.543000", "181848.546000", "181848.548000", "181848.551000", "181848.553000", "181848.555000", "181848.558000", "181848.560000", "181848.563000", "181848.574000", "181848.576000", "181848.579000", "181848.582000", "181848.584000", "181848.587000", "181848.589000", "181848.592000", "181848.594000", "181848.597000", "181848.599000", "181848.602000", "181848.604000", "181848.607000", "181848.609000", "181908.459000", "181908.461000", "181908.465000", "181908.468000", "181908.470000", "181908.473000", "181908.475000", "181908.478000", "181908.480000", "181908.483000", "181908.485000", "181908.488000", "181908.490000", "181908.493000", "181908.495000", "181908.498000", "181908.500000", "181908.503000", "181908.505000", "181908.508000", "181928.459000", "181928.461000", "181928.464000", "181928.466000", "181928.469000", "181928.471000", "181928.474000", "181928.476000", "181928.479000", "181928.481000", "181928.484000", "181928.486000", "181928.489000", "181928.491000", "181928.494000", "181928.496000", "181928.499000", "181928.501000", "181928.504000", "181928.506000", "181948.458000", "181948.461000", "181948.464000", "181948.466000", "181948.469000", "181948.471000", "181948.474000", "181948.476000", "181948.479000", "181948.481000", "181948.484000", "181948.486000", "181948.489000", "181948.491000", "181948.494000", "181948.496000", "181948.499000", "181948.501000", "181948.504000", "181948.506000", "182008.458000", "182008.461000", "182008.463000", "182008.466000", "182008.468000", "182008.471000", "182008.474000", "182008.476000", "182008.479000", "182008.481000", "182008.484000", "182008.486000", "182008.489000", "182008.491000", "182008.493000", "182008.496000", "182008.498000", "182008.501000", "182008.503000", "182008.507000", "182028.457000", "182028.460000", "182028.462000", "182028.465000", "182028.467000", "182028.470000", "182028.472000", "182028.475000", "182028.477000", "182028.480000", "182028.482000", "182028.485000", "182028.487000", "182028.490000", "182028.492000", "182028.495000", "182028.498000", "182028.500000", "182028.503000", "182028.505000", "182048.458000", "182048.460000", "182048.463000", "182048.465000", "182048.468000", "182048.470000", "182048.473000", "182048.475000", "182048.478000", "182048.480000", "182048.483000", "182048.485000", "182048.488000", "182048.490000", "182048.493000", "182048.495000", "182048.498000", "182048.500000", "182048.503000", "182048.506000", "182108.458000", "182108.461000", "182108.464000", "182108.466000", "182108.469000", "182108.471000", "182108.474000", "182108.476000", "182108.479000", "182108.481000", "182108.484000", "182108.486000", "182108.489000", "182108.491000", "182108.494000", "182108.496000", "182108.499000", "182108.501000", "182108.504000", "182108.506000", "182128.458000", "182128.461000", "182128.464000", "182128.466000", "182128.469000", "182128.471000", "182128.474000", "182128.476000", "182128.479000", "182128.481000", "182128.484000", "182128.486000", "182128.489000", "182128.491000", "182128.494000", "182128.496000", "182128.499000", "182128.501000", "182128.504000", "182128.506000", "182148.459000", "182148.461000", "182148.464000", "182148.467000", "182148.469000", "182148.472000", "182148.474000", "182148.476000", "182148.479000", "182148.481000", "182148.484000", "182148.486000", "182148.489000", "182148.500000", "182148.503000", "182148.505000", "182148.508000", "182148.510000", "182148.513000", "182148.515000", "182208.458000", "182208.461000", "182208.463000", "182208.466000", "182208.468000", "182208.471000", "182208.473000", "182208.476000", "182208.479000", "182208.481000", "182208.483000", "182208.486000", "182208.488000", "182208.491000", "182208.493000", "182208.496000", "182208.498000", "182208.501000", "182208.503000", "182208.506000", "182228.458000", "182228.461000", "182228.464000", "182228.466000", "182228.469000", "182228.471000", "182228.474000", "182228.476000", "182228.479000", "182228.481000", "182228.484000", "182228.486000", "182228.489000", "182228.491000", "182228.494000", "182228.496000", "182228.499000", "182228.501000", "182228.504000", "182228.506000", "182248.458000", "182248.460000", "182248.463000", "182248.465000", "182248.468000", "182248.471000", "182248.473000", "182248.475000", "182248.478000", "182248.480000", "182248.483000", "182248.485000", "182248.488000", "182248.490000", "182248.493000", "182248.495000", "182248.498000", "182248.500000", "182248.503000", "182248.505000", "182308.457000", "182308.460000", "182308.463000", "182308.465000", "182308.468000", "182308.470000", "182308.473000", "182308.475000", "182308.478000", "182308.480000", "182308.483000", "182308.485000", "182308.488000", "182308.490000", "182308.493000", "182308.495000", "182308.498000", "182308.500000", "182308.503000", "182308.505000", "182328.459000", "182328.461000", "182328.464000", "182328.466000", "182328.469000", "182328.471000", "182328.474000", "182328.476000", "182328.479000", "182328.481000", "182328.484000", "182328.487000", "182328.489000", "182328.492000", "182328.494000", "182328.497000", "182328.499000", "182328.502000", "182328.504000", "182328.508000", "182348.459000", "182348.461000", "182348.464000", "182348.466000", "182348.469000", "182348.471000", "182348.474000", "182348.476000", "182348.479000", "182348.481000", "182348.484000", "182348.486000", "182348.489000", "182348.491000", "182348.494000", "182348.496000", "182348.499000", "182348.501000", "182348.504000", "182348.507000", "182401.997000", "182402.000000", "182402.002000", "182402.005000", "182402.007000", "182402.010000", "182402.013000", "182402.015000", "182402.018000", "182402.021000", "182402.024000", "182402.026000", "182402.029000", "182402.031000"],
      "InstanceNumber": [1, 2, 3, 4, 5, 6, 7, 8, 9, 10, 11, 12, 13, 14, 15, 16, 17, 18, 19, 20, 21, 22, 23, 24, 25, 26, 27, 28, 29, 30, 31, 32, 33, 34, 35, 36, 37, 38, 39, 40, 41, 42, 43, 44, 45, 46, 47, 48, 49, 50, 51, 52, 53, 54, 55, 56, 57, 58, 59, 60, 61, 62, 63, 64, 65, 66, 67, 68, 69, 70, 71, 72, 73, 74, 75, 76, 77, 78, 79, 80, 81, 82, 83, 84, 85, 86, 87, 88, 89, 90, 91, 92, 93, 94, 95, 96, 97, 98, 99, 100, 101, 102, 103, 104, 105, 106, 107, 108, 109, 110, 111, 112, 113, 114, 115, 116, 117, 118, 119, 120, 121, 122, 123, 124, 125, 126, 127, 128, 129, 130, 131, 132, 133, 134, 135, 136, 137, 138, 139, 140, 141, 142, 143, 144, 145, 146, 147, 148, 149, 150, 151, 152, 153, 154, 155, 156, 157, 158, 159, 160, 161, 162, 163, 164, 165, 166, 167, 168, 169, 170, 171, 172, 173, 174, 175, 176, 177, 178, 179, 180, 181, 182, 183, 184, 185, 186, 187, 188, 189, 190, 191, 192, 193, 194, 195, 196, 197, 198, 199, 200, 201, 202, 203, 204, 205, 206, 207, 208, 209, 210, 211, 212, 213, 214, 215, 216, 217, 218, 219, 220, 221, 222, 223, 224, 225, 226, 227, 228, 229, 230, 231, 232, 233, 234, 235, 236, 237, 238, 239, 240, 241, 242, 243, 244, 245, 246, 247, 248, 249, 250, 251, 252, 253, 254, 255, 256, 257, 258, 259, 260, 261, 262, 263, 264, 265, 266, 267, 268, 269, 270, 271, 272, 273, 274, 275, 276, 277, 278, 279, 280, 281, 282, 283, 284, 285, 286, 287, 288, 289, 290, 291, 292, 293, 294, 295, 296, 297, 298, 299, 300, 301, 302, 303, 304, 305, 306, 307, 308, 309, 310, 311, 312, 313, 314, 315, 316, 317, 318, 319, 320, 321, 322, 323, 324, 325, 326, 327, 328, 329, 330, 331, 332, 333, 334, 335, 336, 337, 338, 339, 340, 341, 342, 343, 344, 345, 346, 347, 348, 349, 350, 351, 352, 353, 354, 355, 356],
      "LargestImagePixelValue": [11177, 11088, 10820, 10812, 10770, 10556, 10606, 10519, 10450, 10425, 10287, 10409, 10468, 10471, 10597, 10658, 10462, 10666, 10616, 10606, 10640, 10675, 10574, 10522, 10542, 10549, 10596, 10601, 10592, 10648, 10769, 10571, 10605, 10696, 10573, 10571, 10713, 10663, 10724, 10545, 10630, 10545, 10662, 10724, 10718, 10564, 10532, 10617, 10463, 10431, 10518, 10436, 10557, 10441, 10443, 10581, 10556, 10585, 10608, 10539, 10473, 10533, 10515, 10608, 10423, 10403, 10410, 10511, 10509, 10416, 10538, 10501, 10559, 10574, 10633, 10525, 10667, 10633, 10573, 10561, 10575, 10747, 10604, 10595, 10452, 10486, 10459, 10360, 10498, 10557, 10525, 10515, 10454, 10376, 10473, 10535, 10572, 10531, 10456, 10515, 10658, 10508, 10601, 10462, 10567, 10542, 10548, 10453, 10532, 10503, 10463, 10598, 10624, 10570, 10521, 10609, 10598, 10469, 10478, 10451, 10638, 10496, 10549, 10715, 10624, 10547, 10712, 10504, 10506, 10610, 10616, 10468, 10598, 10515, 10471, 10431, 10639, 10500, 10465, 10466, 10520, 10632, 10584, 10558, 10526, 10736, 10534, 10483, 10565, 10511, 10532, 10522, 10546, 10534, 10570, 10494, 10487, 10517, 10665, 10459, 10589, 10626, 10434, 10625, 10549, 10596, 10510, 10609, 10623, 10562, 10597, 10557, 10520, 10637, 10378, 10440, 10618, 10516, 10391, 10458, 10471, 10556, 10531, 10538, 10703, 10517, 10451, 10535, 10515, 10487, 10508, 10329, 10445, 10422, 10496, 10566, 10527, 10586, 10592, 10645, 10595, 10617, 10513, 10592, 10589, 10470, 10504, 10449, 10549, 10517, 10570, 10598, 10643, 10562, 10529, 10575, 10603, 10571, 10618, 10480, 10720, 10665, 10579, 10595, 10466, 10579, 10589, 10457, 10467, 10483, 10517, 10646, 10592, 10472, 10449, 10702, 10664, 10587, 10612, 10430, 10639, 10514, 10561, 10655, 10647, 10478, 10479, 10430, 10613, 10657, 10615, 10526, 10497, 10605, 10575, 10469, 10586, 10502, 13438, 11578, 11332, 11241, 11112, 11209, 11208, 11146, 11090, 11208, 11132, 10892, 11183, 10992, 11067, 11025, 10850, 10770, 10887, 10574, 10507, 10585, 10819, 10702, 10927, 10904, 10796, 10876, 10643, 10607, 10349, 10515, 10383, 10589, 10683, 10593, 10533, 10692, 10760, 10685, 10464, 10390, 10357, 10342, 10457, 10343, 10377, 10604, 10432, 10483, 10698, 10637, 10611, 10524, 10431, 10510, 10409, 10403, 10413, 10376, 10700, 10586, 10613, 10607, 10606, 10356, 10498, 10497, 10517, 10634, 10710, 11071, 10823, 10736, 10564, 10631, 10725, 10651, 10702, 10658, 10754, 10768, 10713, 10714, 10858, 10750, 10771, 10813, 10821, 10672, 10610, 10648, 10728, 10773, 10683, 10756, 10759, 10757],
