{
  "AcquisitionMatrixPE": 106,
  "AcquisitionNumber": 1,
  "AcquisitionTime": "19:08:59.787500",
  "BandwidthPerPixelPhaseEncode": 16.846,
  "BaseResolution": 106,
  "BodyPartExamined": "BRAIN",
  "CoilCombinationMethod": "Sum of Squares",
  "ConsistencyInfo": "N4_VE11C_LATEST_20160120",
  "ConversionSoftware": "dcm2niix",
  "ConversionSoftwareVersion": "v1.0.20220720",
  "DerivedVendorReportedEchoSpacing": 0.000560012,
  "DeviceSerialNumber": "166108",
  "DwellTime": 1.8e-06,
  "EchoTime": 0.0352,
  "EchoTrainLength": 106,
  "EffectiveEchoSpacing": 0.000560012,
  "FlipAngle": 60,
  "HeudiconvVersion": "1.3.0",
  "ImageComments": "Unaliased MB4/PE3/LB",
  "ImageOrientationPatientDICOM": [1, 0, 0, 0, 0.941471, -0.337095],
  "ImageOrientationText": "Tra>Cor(-19.7)",
  "ImageType": [
    "ORIGINAL",
    "PRIMARY",
    "M",
    "MB",
    "ND",
    "MOSAIC"
],
  "ImagingFrequency": 123.244,
  "InPlanePhaseEncodingDirectionDICOM": "COL",
  "InstitutionAddress": "Bedford Way 26,London,London,GB,WC1H 0AP",
  "InstitutionName": "University College",
  "InstitutionalDepartmentName": "Department",
  "MRAcquisitionType": "2D",
  "MagneticFieldStrength": 3,
  "Manufacturer": "Siemens",
  "ManufacturersModelName": "Prisma",
  "MatrixCoilMode": "SENSE",
  "Modality": "MR",
  "MultibandAccelerationFactor": 4,
  "NonlinearGradientCorrection": false,
  "PartialFourier": 1,
  "PatientPosition": "HFS",
  "PercentPhaseFOV": 100,
  "PercentSampling": 100,
  "PhaseEncodingDirection": "j-",
  "PhaseEncodingSteps": 106,
  "PhaseResolution": 1,
  "PixelBandwidth": 2620,
  "ProcedureStepDescription": "Egor^MovieProject2",
  "ProtocolName": "func-bold_task-pRF_run-01",
  "PulseSequenceDetails": "%CustomerSeq%\\cmrr_mbep2d_bold",
  "ReceiveCoilActiveElements": "HEA;HEP",
  "ReceiveCoilName": "Head_32",
  "ReconMatrixPE": 106,
  "RepetitionTime": 1,
  "SAR": 0.0771436,
  "ScanOptions": "FS\\EXT",
  "ScanningSequence": "EP",
  "SequenceName": "epfid2d1_106",
  "SequenceVariant": "SK\\SS",
  "SeriesDescription": "func-bold_task-pRF_run-01",
  "SeriesNumber": 10,
  "ShimSetting": [-1568, 652, 7417, 311, 59, 169, 105, -1],
  "SliceThickness": 2,
  "SliceTiming": [0, 0.4075, 0.815, 0.245, 0.6525, 0.0825, 0.49, 0.8975, 0.325, 0.735, 0.1625, 0.57, 0, 0.4075, 0.815, 0.245, 0.6525, 0.0825, 0.49, 0.8975, 0.325, 0.735, 0.1625, 0.57, 0, 0.4075, 0.815, 0.245, 0.6525, 0.0825, 0.49, 0.8975, 0.325, 0.735, 0.1625, 0.57, 0, 0.4075, 0.815, 0.245, 0.6525, 0.0825, 0.49, 0.8975, 0.325, 0.735, 0.1625, 0.57],
  "SoftwareVersions": "syngo MR E11",
  "SpacingBetweenSlices": 2,
  "StationName": "AWP166108",
  "TaskName": "retinotopy",
  "TotalReadoutTime": 0.0588013,
  "TxRefAmp": 244.62,
  "WipMemBlock": "889ab334-a151-4222-a4c0-7e3977dd0768||Sequence: R016 ve11c/master r/e634e98; Dec 19 2017 11:00:25 by eja",
  "dcmmeta_affine": [
    [-2.0, 0.0, 0.0, 106.0],
    [0.0, 1.8829411268234253, -0.6741905808448792, -76.51765441894531],
    [0.0, 0.6741905808448792, 1.8829411268234253, -47.229915618896484],
    [0.0, 0.0, 0.0, 1.0]
],
  "dcmmeta_reorient_transform": [
    [0.0, -1.0, 0.0, 105.0],
    [1.0, 0.0, 0.0, 0.0],
    [0.0, 0.0, 1.0, 0.0],
    [0.0, 0.0, 0.0, 1.0]
],
  "dcmmeta_shape": [106, 106, 48, 356],
  "dcmmeta_slice_dim": 2,
  "dcmmeta_version": 0.6,
  "global": {
    "const": {
      "AcquisitionMatrix": [106, 0, 0, 106],
      "AngioFlag": "N",
      "BitsAllocated": 16,
      "BitsStored": 16,
      "BodyPartExamined": "BRAIN",
      "CardiacNumberOfImages": 1,
      "Columns": 742,
      "EchoNumbers": 1,
      "EchoTime": 35.2,
      "EchoTrainLength": 106,
      "FlipAngle": 60.0,
      "HighBit": 15,
      "ImageOrientationPatient": [1.0, 0.0, 0.0, 0.0, 0.94147053802673, -0.3370952773737],
      "ImagePositionPatient": [-742.0, -719.96642386854, 237.95268825056],
      "ImageType": [
        "ORIGINAL",
        "PRIMARY",
        "M",
        "MB",
        "ND",
        "MOSAIC"
],
      "ImagedNucleus": "1H",
      "ImagingFrequency": 123.243648,
      "InPlanePhaseEncodingDirection": "COL",
      "MRAcquisitionType": "2D",
      "MagneticFieldStrength": 3.0,
      "Manufacturer": "SIEMENS",
      "ManufacturerModelName": "Prisma",
      "Modality": "MR",
      "NominalInterval": 0,
      "NumberOfAverages": 1.0,
      "NumberOfPhaseEncodingSteps": 106,
      "PercentPhaseFieldOfView": 100.0,
      "PercentSampling": 100.0,
      "PerformedProcedureStepStartTime": "182138.729000",
      "PhotometricInterpretation": "MONOCHROME2",
      "PixelBandwidth": 2620.0,
      "PixelRepresentation": 0,
      "PixelSpacing": [2.0, 2.0],
      "ProtocolName": "func-bold_task-pRF_run-01",
      "RepetitionTime": 1000.0,
      "Rows": 742,
      "SAR": 0.07714363590385,
      "SamplesPerPixel": 1,
      "ScanOptions": [
        "FS",
        "EXT"
],
      "ScanningSequence": "EP",
      "SequenceName": "epfid2d1_106",
      "SequenceVariant": [
        "SK",
        "SS"
],
      "SeriesDescription": "func-bold_task-pRF_run-01",
      "SeriesNumber": 10,
      "SeriesTime": "190937.613000",
      "SliceLocation": -18.671835921561,
      "SliceThickness": 2.0,
      "SmallestImagePixelValue": 0,
      "SoftwareVersions": "syngo MR E11",
      "SpacingBetweenSlices": 2.0000000341154,
      "SpecificCharacterSet": "ISO_IR 100",
      "StudyID": "1",
      "StudyTime": "182138.589000",
      "TransmitCoilName": "Body",
      "VariableFlipAngleFlag": "N",
      "WindowCenterWidthExplanation": "Algo1",
      "dBdt": 0.0},
    "slices": {}
  },
  "time": {
    "samples": {
      "AcquisitionNumber": [1, 2, 3, 4, 5, 6, 7, 8, 9, 10, 11, 12, 13, 14, 15, 16, 17, 18, 19, 20, 21, 22, 23, 24, 25, 26, 27, 28, 29, 30, 31, 32, 33, 34, 35, 36, 37, 38, 39, 40, 41, 42, 43, 44, 45, 46, 47, 48, 49, 50, 51, 52, 53, 54, 55, 56, 57, 58, 59, 60, 61, 62, 63, 64, 65, 66, 67, 68, 69, 70, 71, 72, 73, 74, 75, 76, 77, 78, 79, 80, 81, 82, 83, 84, 85, 86, 87, 88, 89, 90, 91, 92, 93, 94, 95, 96, 97, 98, 99, 100, 101, 102, 103, 104, 105, 106, 107, 108, 109, 110, 111, 112, 113, 114, 115, 116, 117, 118, 119, 120, 121, 122, 123, 124, 125, 126, 127, 128, 129, 130, 131, 132, 133, 134, 135, 136, 137, 138, 139, 140, 141, 142, 143, 144, 145, 146, 147, 148, 149, 150, 151, 152, 153, 154, 155, 156, 157, 158, 159, 160, 161, 162, 163, 164, 165, 166, 167, 168, 169, 170, 171, 172, 173, 174, 175, 176, 177, 178, 179, 180, 181, 182, 183, 184, 185, 186, 187, 188, 189, 190, 191, 192, 193, 194, 195, 196, 197, 198, 199, 200, 201, 202, 203, 204, 205, 206, 207, 208, 209, 210, 211, 212, 213, 214, 215, 216, 217, 218, 219, 220, 221, 222, 223, 224, 225, 226, 227, 228, 229, 230, 231, 232, 233, 234, 235, 236, 237, 238, 239, 240, 241, 242, 243, 244, 245, 246, 247, 248, 249, 250, 251, 252, 253, 254, 255, 256, 257, 258, 259, 260, 261, 262, 263, 264, 265, 266, 267, 268, 269, 270, 271, 272, 273, 274, 275, 276, 277, 278, 279, 280, 281, 282, 283, 284, 285, 286, 287, 288, 289, 290, 291, 292, 293, 294, 295, 296, 297, 298, 299, 300, 301, 302, 303, 304, 305, 306, 307, 308, 309, 310, 311, 312, 313, 314, 315, 316, 317, 318, 319, 320, 321, 322, 323, 324, 325, 326, 327, 328, 329, 330, 331, 332, 333, 334, 335, 336, 337, 338, 339, 340, 341, 342, 343, 344, 345, 346, 347, 348, 349, 350, 351, 352, 353, 354, 355, 356],
      "AcquisitionTime": ["190859.787500", "190900.787500", "190901.787500", "190902.787500", "190903.787500", "190904.787500", "190905.787500", "190906.787500", "190907.787500", "190908.787500", "190909.787500", "190910.787500", "190911.787500", "190912.787500", "190913.787500", "190914.787500", "190915.787500", "190916.787500", "190917.787500", "190918.787500", "190919.787500", "190920.787500", "190921.787500", "190922.787500", "190923.787500", "190924.787500", "190925.787500", "190926.787500", "190927.787500", "190928.787500", "190929.787500", "190930.787500", "190931.787500", "190932.787500", "190933.787500", "190934.787500", "190935.787500", "190936.787500", "190937.787500", "190938.787500", "190939.787500", "190940.787500", "190941.787500", "190942.787500", "190943.787500", "190944.787500", "190945.787500", "190946.787500", "190947.787500", "190948.787500", "190949.787500", "190950.787500", "190951.787500", "190952.787500", "190953.787500", "190954.787500", "190955.787500", "190956.787500", "190957.787500", "190958.787500", "190959.787500", "191000.787500", "191001.787500", "191002.787500", "191003.787500", "191004.787500", "191005.787500", "191006.787500", "191007.787500", "191008.787500", "191009.787500", "191010.787500", "191011.787500", "191012.787500", "191013.787500", "191014.787500", "191015.787500", "191016.787500", "191017.787500", "191018.787500", "191019.787500", "191020.787500", "191021.787500", "191022.787500", "191023.787500", "191024.787500", "191025.787500", "191026.787500", "191027.787500", "191028.787500", "191029.787500", "191030.787500", "191031.787500", "191032.787500", "191033.787500", "191034.787500", "191035.787500", "191036.787500", "191037.787500", "191038.787500", "191039.787500", "191040.787500", "191041.787500", "191042.787500", "191043.787500", "191044.787500", "191045.787500", "191046.787500", "191047.787500", "191048.787500", "191049.787500", "191050.787500", "191051.787500", "191052.787500", "191053.787500", "191054.787500", "191055.787500", "191056.787500", "191057.787500", "191058.787500", "191059.787500", "191100.787500", "191101.787500", "191102.787500", "191103.787500", "191104.787500", "191105.787500", "191106.787500", "191107.787500", "191108.787500", "191109.787500", "191110.787500", "191111.787500", "191112.787500", "191113.787500", "191114.787500", "191115.787500", "191116.787500", "191117.787500", "191118.787500", "191119.787500", "191120.787500", "191121.787500", "191122.787500", "191123.787500", "191124.787500", "191125.787500", "191126.787500", "191127.787500", "191128.787500", "191129.787500", "191130.787500", "191131.787500", "191132.787500", "191133.787500", "191134.787500", "191135.787500", "191136.787500", "191137.787500", "191138.787500", "191139.787500", "191140.787500", "191141.787500", "191142.787500", "191143.787500", "191144.787500", "191145.787500", "191146.787500", "191147.787500", "191148.787500", "191149.787500", "191150.787500", "191151.787500", "191152.787500", "191153.787500", "191154.787500", "191155.787500", "191156.787500", "191157.787500", "191158.787500", "191159.787500", "191200.787500", "191201.787500", "191202.787500", "191203.787500", "191204.787500", "191205.787500", "191206.787500", "191207.787500", "191208.787500", "191209.787500", "191210.787500", "191211.787500", "191212.787500", "191213.787500", "191214.787500", "191215.787500", "191216.787500", "191217.787500", "191218.787500", "191219.787500", "191220.787500", "191221.787500", "191222.787500", "191223.787500", "191224.787500", "191225.787500", "191226.787500", "191227.787500", "191228.787500", "191229.787500", "191230.787500", "191231.787500", "191232.787500", "191233.787500", "191234.787500", "191235.787500", "191236.787500", "191237.787500", "191238.787500", "191239.787500", "191240.787500", "191241.787500", "191242.787500", "191243.787500", "191244.787500", "191245.787500", "191246.787500", "191247.787500", "191248.787500", "191249.787500", "191250.787500", "191251.787500", "191252.787500", "191253.787500", "191254.787500", "191255.787500", "191256.787500", "191257.787500", "191258.787500", "191259.787500", "191300.787500", "191301.787500", "191302.787500", "191303.787500", "191304.787500", "191305.787500", "191306.787500", "191307.787500", "191308.787500", "191309.787500", "191310.787500", "191311.787500", "191312.787500", "191313.787500", "191314.787500", "191315.787500", "191316.787500", "191317.787500", "191318.787500", "191319.787500", "191320.787500", "191321.787500", "191322.787500", "191323.787500", "191324.787500", "191325.787500", "191326.787500", "191327.787500", "191328.787500", "191329.787500", "191330.787500", "191331.787500", "191332.787500", "191333.787500", "191334.787500", "191335.787500", "191336.787500", "191337.787500", "191338.787500", "191339.787500", "191340.787500", "191341.787500", "191342.787500", "191343.787500", "191344.787500", "191345.787500", "191346.787500", "191347.787500", "191348.787500", "191349.787500", "191350.787500", "191351.787500", "191352.787500", "191353.787500", "191354.787500", "191355.787500", "191356.787500", "191357.787500", "191358.787500", "191359.787500", "191400.787500", "191401.787500", "191402.787500", "191403.787500", "191404.787500", "191405.787500", "191406.787500", "191407.787500", "191408.787500", "191409.787500", "191410.787500", "191411.787500", "191412.787500", "191413.787500", "191414.787500", "191415.787500", "191416.787500", "191417.787500", "191418.787500", "191419.787500", "191420.787500", "191421.787500", "191422.787500", "191423.787500", "191424.787500", "191425.787500", "191426.787500", "191427.787500", "191428.787500", "191429.787500", "191430.787500", "191431.787500", "191432.787500", "191433.787500", "191434.787500", "191435.787500", "191436.787500", "191437.787500", "191438.787500", "191439.787500", "191440.787500", "191441.787500", "191442.787500", "191443.787500", "191444.787500", "191445.787500", "191446.787500", "191447.787500", "191448.787500", "191449.787500", "191450.787500", "191451.787500", "191452.787500", "191453.787500", "191454.787500"],
      "ContentTime": ["190937.616000", "190937.624000", "190937.627000", "190937.629000", "190937.632000", "190937.634000", "190937.637000", "190937.640000", "190937.642000", "190937.645000", "190937.647000", "190937.655000", "190937.658000", "190937.660000", "190937.663000", "190937.665000", "190937.668000", "190937.670000", "190937.673000", "190937.675000", "190937.678000", "190937.680000", "190937.683000", "190937.685000", "190937.688000", "190937.690000", "190937.693000", "190937.695000", "190937.698000", "190937.701000", "190937.703000", "190937.706000", "190937.708000", "190937.711000", "190937.713000", "190937.716000", "190937.718000", "190957.582000", "190957.584000", "190957.587000", "190957.589000", "190957.592000", "190957.594000", "190957.597000", "190957.599000", "190957.602000", "190957.604000", "190957.607000", "190957.609000", "190957.612000", "190957.614000", "190957.617000", "190957.619000", "190957.622000", "190957.624000", "190957.627000", "190957.631000", "191017.582000", "191017.584000", "191017.587000", "191017.589000", "191017.592000", "191017.594000", "191017.597000", "191017.600000", "191017.602000", "191017.605000", "191017.607000", "191017.610000", "191017.612000", "191017.615000", "191017.617000", "191017.620000", "191017.622000", "191017.625000", "191017.627000", "191017.630000", "191037.582000", "191037.584000", "191037.587000", "191037.589000", "191037.592000", "191037.594000", "191037.597000", "191037.599000", "191037.601000", "191037.604000", "191037.606000", "191037.609000", "191037.611000", "191037.614000", "191037.616000", "191037.619000", "191037.621000", "191037.624000", "191037.626000", "191037.629000", "191057.582000", "191057.585000", "191057.587000", "191057.590000", "191057.592000", "191057.595000", "191057.597000", "191057.600000", "191057.602000", "191057.605000", "191057.607000", "191057.610000", "191057.613000", "191057.615000", "191057.618000", "191057.620000", "191057.623000", "191057.625000", "191057.628000", "191057.630000", "191117.582000", "191117.584000", "191117.587000", "191117.589000", "191117.592000", "191117.594000", "191117.597000", "191117.599000", "191117.602000", "191117.604000", "191117.606000", "191117.609000", "191117.611000", "191117.614000", "191117.617000", "191117.619000", "191117.621000", "191117.624000", "191117.626000", "191117.629000", "191137.581000", "191137.592000", "191137.595000", "191137.597000", "191137.600000", "191137.602000", "191137.605000", "191137.607000", "191137.610000", "191137.612000", "191137.615000", "191137.617000", "191137.620000", "191137.622000", "191137.625000", "191137.627000", "191137.630000", "191137.632000", "191137.635000", "191137.637000", "191157.581000", "191157.584000", "191157.587000", "191157.589000", "191157.591000", "191157.594000", "191157.596000", "191157.599000", "191157.601000", "191157.604000", "191157.606000", "191157.609000", "191157.611000", "191157.614000", "191157.616000", "191157.619000", "191157.632000", "191157.634000", "191157.637000", "191157.639000", "191217.581000", "191217.584000", "191217.587000", "191217.589000", "191217.592000", "191217.594000", "191217.597000", "191217.599000", "191217.602000", "191217.604000", "191217.607000", "191217.609000", "191217.611000", "191217.614000", "191217.617000", "191217.619000", "191217.621000", "191217.624000", "191217.626000", "191217.629000", "191237.581000", "191237.584000", "191237.586000", "191237.589000", "191237.592000", "191237.594000", "191237.596000", "191237.599000", "191237.601000", "191237.604000", "191237.606000", "191237.609000", "191237.611000", "191237.614000", "191237.616000", "191237.619000", "191237.621000", "191237.624000", "191237.626000", "191237.629000", "191257.582000", "191257.584000", "191257.587000", "191257.589000", "191257.592000", "191257.594000", "191257.597000", "191257.599000", "191257.602000", "191257.604000", "191257.607000", "191257.609000", "191257.612000", "191257.614000", "191257.617000", "191257.619000", "191257.622000", "191257.624000", "191257.627000", "191257.629000", "191317.582000", "191317.585000", "191317.588000", "191317.590000", "191317.592000", "191317.595000", "191317.598000", "191317.600000", "191317.602000", "191317.605000", "191317.608000", "191317.610000", "191317.613000", "191317.615000", "191317.618000", "191317.620000", "191317.623000", "191317.625000", "191317.628000", "191317.630000", "191337.581000", "191337.584000", "191337.589000", "191337.591000", "191337.594000", "191337.596000", "191337.599000", "191337.601000", "191337.604000", "191337.606000", "191337.609000", "191337.611000", "191337.614000", "191337.616000", "191337.619000", "191337.621000", "191337.624000", "191337.626000", "191337.629000", "191337.631000", "191357.581000", "191357.584000", "191357.587000", "191357.589000", "191357.592000", "191357.594000", "191357.597000", "191357.599000", "191357.602000", "191357.604000", "191357.607000", "191357.609000", "191357.612000", "191357.614000", "191357.617000", "191357.619000", "191357.622000", "191357.624000", "191357.627000", "191357.629000", "191417.581000", "191417.584000", "191417.587000", "191417.589000", "191417.592000", "191417.594000", "191417.597000", "191417.599000", "191417.602000", "191417.604000", "191417.606000", "191417.609000", "191417.611000", "191417.614000", "191417.617000", "191417.619000", "191417.622000", "191417.624000", "191417.627000", "191417.629000", "191437.582000", "191437.584000", "191437.587000", "191437.589000", "191437.592000", "191437.594000", "191437.597000", "191437.599000", "191437.602000", "191437.604000", "191437.607000", "191437.609000", "191437.612000", "191437.614000", "191437.617000", "191437.619000", "191437.622000", "191437.624000", "191437.627000", "191437.629000", "191456.199000", "191456.202000", "191456.213000", "191456.215000", "191456.218000", "191456.221000", "191456.223000", "191456.226000", "191456.228000", "191456.231000", "191456.233000", "191456.236000", "191456.238000", "191456.241000", "191456.243000", "191456.246000", "191456.256000", "191456.259000", "191456.261000"],
      "InstanceCreationTime": ["190937.616000", "190937.624000", "190937.627000", "190937.629000", "190937.632000", "190937.634000", "190937.637000", "190937.640000", "190937.642000", "190937.645000", "190937.647000", "190937.655000", "190937.658000", "190937.660000", "190937.663000", "190937.665000", "190937.668000", "190937.670000", "190937.673000", "190937.675000", "190937.678000", "190937.680000", "190937.683000", "190937.685000", "190937.688000", "190937.690000", "190937.693000", "190937.695000", "190937.698000", "190937.701000", "190937.703000", "190937.706000", "190937.708000", "190937.711000", "190937.713000", "190937.716000", "190937.718000", "190957.582000", "190957.584000", "190957.587000", "190957.589000", "190957.592000", "190957.594000", "190957.597000", "190957.599000", "190957.602000", "190957.604000", "190957.607000", "190957.609000", "190957.612000", "190957.614000", "190957.617000", "190957.619000", "190957.622000", "190957.624000", "190957.627000", "190957.631000", "191017.582000", "191017.584000", "191017.587000", "191017.589000", "191017.592000", "191017.594000", "191017.597000", "191017.600000", "191017.602000", "191017.605000", "191017.607000", "191017.610000", "191017.612000", "191017.615000", "191017.617000", "191017.620000", "191017.622000", "191017.625000", "191017.627000", "191017.630000", "191037.582000", "191037.584000", "191037.587000", "191037.589000", "191037.592000", "191037.594000", "191037.597000", "191037.599000", "191037.601000", "191037.604000", "191037.606000", "191037.609000", "191037.611000", "191037.614000", "191037.616000", "191037.619000", "191037.621000", "191037.624000", "191037.626000", "191037.629000", "191057.582000", "191057.585000", "191057.587000", "191057.590000", "191057.592000", "191057.595000", "191057.597000", "191057.600000", "191057.602000", "191057.605000", "191057.607000", "191057.610000", "191057.613000", "191057.615000", "191057.618000", "191057.620000", "191057.623000", "191057.625000", "191057.628000", "191057.630000", "191117.582000", "191117.584000", "191117.587000", "191117.589000", "191117.592000", "191117.594000", "191117.597000", "191117.599000", "191117.602000", "191117.604000", "191117.606000", "191117.609000", "191117.611000", "191117.614000", "191117.617000", "191117.619000", "191117.621000", "191117.624000", "191117.626000", "191117.629000", "191137.581000", "191137.592000", "191137.595000", "191137.597000", "191137.600000", "191137.602000", "191137.605000", "191137.607000", "191137.610000", "191137.612000", "191137.615000", "191137.617000", "191137.620000", "191137.622000", "191137.625000", "191137.627000", "191137.630000", "191137.632000", "191137.635000", "191137.637000", "191157.581000", "191157.584000", "191157.587000", "191157.589000", "191157.591000", "191157.594000", "191157.596000", "191157.599000", "191157.601000", "191157.604000", "191157.606000", "191157.609000", "191157.611000", "191157.614000", "191157.616000", "191157.619000", "191157.632000", "191157.634000", "191157.637000", "191157.639000", "191217.581000", "191217.584000", "191217.587000", "191217.589000", "191217.592000", "191217.594000", "191217.597000", "191217.599000", "191217.602000", "191217.604000", "191217.607000", "191217.609000", "191217.611000", "191217.614000", "191217.617000", "191217.619000", "191217.621000", "191217.624000", "191217.626000", "191217.629000", "191237.581000", "191237.584000", "191237.586000", "191237.589000", "191237.592000", "191237.594000", "191237.596000", "191237.599000", "191237.601000", "191237.604000", "191237.606000", "191237.609000", "191237.611000", "191237.614000", "191237.616000", "191237.619000", "191237.621000", "191237.624000", "191237.626000", "191237.629000", "191257.582000", "191257.584000", "191257.587000", "191257.589000", "191257.592000", "191257.594000", "191257.597000", "191257.599000", "191257.602000", "191257.604000", "191257.607000", "191257.609000", "191257.612000", "191257.614000", "191257.617000", "191257.619000", "191257.622000", "191257.624000", "191257.627000", "191257.629000", "191317.582000", "191317.585000", "191317.588000", "191317.590000", "191317.592000", "191317.595000", "191317.598000", "191317.600000", "191317.602000", "191317.605000", "191317.608000", "191317.610000", "191317.613000", "191317.615000", "191317.618000", "191317.620000", "191317.623000", "191317.625000", "191317.628000", "191317.630000", "191337.581000", "191337.584000", "191337.589000", "191337.591000", "191337.594000", "191337.596000", "191337.599000", "191337.601000", "191337.604000", "191337.606000", "191337.609000", "191337.611000", "191337.614000", "191337.616000", "191337.619000", "191337.621000", "191337.624000", "191337.626000", "191337.629000", "191337.631000", "191357.581000", "191357.584000", "191357.587000", "191357.589000", "191357.592000", "191357.594000", "191357.597000", "191357.599000", "191357.602000", "191357.604000", "191357.607000", "191357.609000", "191357.612000", "191357.614000", "191357.617000", "191357.619000", "191357.622000", "191357.624000", "191357.627000", "191357.629000", "191417.581000", "191417.584000", "191417.587000", "191417.589000", "191417.592000", "191417.594000", "191417.597000", "191417.599000", "191417.602000", "191417.604000", "191417.606000", "191417.609000", "191417.611000", "191417.614000", "191417.617000", "191417.619000", "191417.622000", "191417.624000", "191417.627000", "191417.629000", "191437.582000", "191437.584000", "191437.587000", "191437.589000", "191437.592000", "191437.594000", "191437.597000", "191437.599000", "191437.602000", "191437.604000", "191437.607000", "191437.609000", "191437.612000", "191437.614000", "191437.617000", "191437.619000", "191437.622000", "191437.624000", "191437.627000", "191437.629000", "191456.199000", "191456.202000", "191456.213000", "191456.215000", "191456.218000", "191456.221000", "191456.223000", "191456.226000", "191456.228000", "191456.231000", "191456.233000", "191456.236000", "191456.238000", "191456.241000", "191456.243000", "191456.246000", "191456.256000", "191456.259000", "191456.261000"],
      "InstanceNumber": [1, 2, 3, 4, 5, 6, 7, 8, 9, 10, 11, 12, 13, 14, 15, 16, 17, 18, 19, 20, 21, 22, 23, 24, 25, 26, 27, 28, 29, 30, 31, 32, 33, 34, 35, 36, 37, 38, 39, 40, 41, 42, 43, 44, 45, 46, 47, 48, 49, 50, 51, 52, 53, 54, 55, 56, 57, 58, 59, 60, 61, 62, 63, 64, 65, 66, 67, 68, 69, 70, 71, 72, 73, 74, 75, 76, 77, 78, 79, 80, 81, 82, 83, 84, 85, 86, 87, 88, 89, 90, 91, 92, 93, 94, 95, 96, 97, 98, 99, 100, 101, 102, 103, 104, 105, 106, 107, 108, 109, 110, 111, 112, 113, 114, 115, 116, 117, 118, 119, 120, 121, 122, 123, 124, 125, 126, 127, 128, 129, 130, 131, 132, 133, 134, 135, 136, 137, 138, 139, 140, 141, 142, 143, 144, 145, 146, 147, 148, 149, 150, 151, 152, 153, 154, 155, 156, 157, 158, 159, 160, 161, 162, 163, 164, 165, 166, 167, 168, 169, 170, 171, 172, 173, 174, 175, 176, 177, 178, 179, 180, 181, 182, 183, 184, 185, 186, 187, 188, 189, 190, 191, 192, 193, 194, 195, 196, 197, 198, 199, 200, 201, 202, 203, 204, 205, 206, 207, 208, 209, 210, 211, 212, 213, 214, 215, 216, 217, 218, 219, 220, 221, 222, 223, 224, 225, 226, 227, 228, 229, 230, 231, 232, 233, 234, 235, 236, 237, 238, 239, 240, 241, 242, 243, 244, 245, 246, 247, 248, 249, 250, 251, 252, 253, 254, 255, 256, 257, 258, 259, 260, 261, 262, 263, 264, 265, 266, 267, 268, 269, 270, 271, 272, 273, 274, 275, 276, 277, 278, 279, 280, 281, 282, 283, 284, 285, 286, 287, 288, 289, 290, 291, 292, 293, 294, 295, 296, 297, 298, 299, 300, 301, 302, 303, 304, 305, 306, 307, 308, 309, 310, 311, 312, 313, 314, 315, 316, 317, 318, 319, 320, 321, 322, 323, 324, 325, 326, 327, 328, 329, 330, 331, 332, 333, 334, 335, 336, 337, 338, 339, 340, 341, 342, 343, 344, 345, 346, 347, 348, 349, 350, 351, 352, 353, 354, 355, 356],
      "LargestImagePixelValue": [11567, 11225, 11171, 11218, 11158, 11188, 11399, 11324, 11137, 11244, 11304, 11212, 11008, 11163, 11287, 11100, 11232, 11328, 11274, 11032, 10871, 10936, 11174, 11261, 11155, 11137, 11115, 11150, 11041, 10977, 11207, 11214, 11216, 11047, 11190, 11231, 11227, 11174, 10961, 10957, 11220, 11176, 11199, 11168, 11271, 11138, 11171, 11203, 11174, 11165, 11307, 11321, 11164, 11210, 11094, 11102, 11216, 11278, 11357, 11247, 11254, 11317, 11225, 11131, 11345, 11269, 11392, 11154, 11481, 11117, 11222, 11319, 11329, 11310, 11299, 11350, 11131, 11040, 11195, 11242, 11095, 11014, 11251, 11347, 11217, 11140, 11126, 11091, 11119, 11062, 10968, 11017, 11088, 11150, 11182, 11270, 11295, 11221, 11254, 11293, 11325, 11398, 11238, 11137, 11199, 11386, 11314, 11270, 11346, 11315, 11279, 11221, 11287, 11308, 11280, 11388, 11560, 11380, 11434, 11380, 11506, 11347, 11243, 11460, 11349, 11403, 11429, 11575, 11432, 11329, 11242, 11524, 11524, 11425, 11374, 11582, 11328, 11472, 11338, 11541, 11438, 11308, 11260, 11267, 11244, 11250, 11264, 11378, 11557, 11407, 11284, 11605, 11435, 11165, 11328, 11486, 11418, 11388, 11498, 11625, 11470, 11455, 11491, 11557, 11521, 11604, 11676, 11591, 11413, 11568, 11584, 11519, 11392, 11435, 11305, 11428, 11515, 11422, 11584, 11466, 11501, 11488, 11496, 11570, 11784, 11635, 11546, 11599, 11706, 11558, 11520, 11560, 11652, 11493, 11590, 11620, 11527, 11571, 11595, 11492, 11438, 11445, 11472, 11476, 11136, 11236, 11451, 11582, 11545, 11388, 11329, 11378, 11387, 11256, 11284, 11336, 11414, 11222, 11702, 11620, 11637, 11521, 11542, 11589, 11345, 11566, 11612, 11579, 11414, 11798, 11641, 11468, 11504, 11591, 11388, 11541, 11334, 11540, 11543, 11536, 11617, 11555, 11678, 11679, 11398, 11389, 11484, 11535, 11463, 11408, 11420, 11377, 11497, 11353, 11579, 11501, 11415, 11596, 11508, 11347, 11300, 11425, 11319, 11311, 11551, 11496, 11427, 11468, 11544, 11427, 11509, 11432, 11599, 11375, 11489, 11384, 11395, 11478, 11472, 11482, 11551, 11665, 11488, 11663, 11464, 11506, 11402, 11514, 11657, 11504, 11510, 11505, 11483, 11460, 11528, 11616, 11705, 11650, 11496, 11559, 11771, 11620, 11724, 11499, 11517, 11490, 11372, 11378, 11304, 11203, 11327, 11248, 11443, 11480, 11439, 11521, 11364, 11407, 11560, 11484, 11561, 11617, 11504, 11387, 11581, 11524, 11596, 11525, 11592, 11654, 11585, 11531, 11639, 11744, 11652, 11734, 11793, 11684, 11583, 11639, 11461, 11409, 11413, 11407, 11615, 11503, 11566, 11383, 11324, 11330, 11355, 11324, 11473, 11468, 11543, 11412],
