{
  "AcquisitionMatrixPE": 106,
  "AcquisitionNumber": 1,
  "AcquisitionTime": "18:46:37.700000",
  "BandwidthPerPixelPhaseEncode": 13.477,
  "BaseResolution": 106,
  "BodyPartExamined": "BRAIN",
  "CoilCombinationMethod": "Sum of Squares",
  "ConsistencyInfo": "N4_VE11C_LATEST_20160120",
  "ConversionSoftware": "dcm2niix",
  "ConversionSoftwareVersion": "v1.0.20220720",
  "DerivedVendorReportedEchoSpacing": 0.000700005,
  "DeviceSerialNumber": "166108",
  "DwellTime": 2.6e-06,
  "EchoTime": 0.03,
  "EchoTrainLength": 80,
  "EffectiveEchoSpacing": 0.000700005,
  "FlipAngle": 62,
  "HeudiconvVersion": "1.3.0",
  "ImageComments": "Unaliased MB4/PE3/LB",
  "ImageOrientationPatientDICOM": [1, 0, 0, 0, 0.993768, -0.111469],
  "ImageOrientationText": "Tra>Cor(-6.4)",
  "ImageType": [
    "ORIGINAL",
    "PRIMARY",
    "M",
    "MB",
    "ND",
    "MOSAIC"
],
  "ImagingFrequency": 123.244,
  "InPlanePhaseEncodingDirectionDICOM": "COL",
  "InstitutionAddress": "Bedford Way 26,London,London,GB,WC1H 0AP",
  "InstitutionName": "University College",
  "InstitutionalDepartmentName": "Department",
  "MRAcquisitionType": "2D",
  "MagneticFieldStrength": 3,
  "Manufacturer": "Siemens",
  "ManufacturersModelName": "Prisma",
  "MatrixCoilMode": "SENSE",
  "Modality": "MR",
  "MultibandAccelerationFactor": 4,
  "NonlinearGradientCorrection": false,
  "PartialFourier": 0.75,
  "PatientPosition": "HFS",
  "PercentPhaseFOV": 100,
  "PercentSampling": 100,
  "PhaseEncodingDirection": "j-",
  "PhaseEncodingSteps": 80,
  "PhaseResolution": 1,
  "PixelBandwidth": 1815,
  "ProcedureStepDescription": "Egor^MovieProject2",
  "ProtocolName": "func-bold_task-motor_run-01",
  "PulseSequenceDetails": "%CustomerSeq%\\cmrr_mbep2d_bold",
  "ReceiveCoilActiveElements": "HEA;HEP",
  "ReceiveCoilName": "Head_32",
  "ReconMatrixPE": 106,
  "RepetitionTime": 1,
  "SAR": 0.0430659,
  "ScanOptions": "PFP\\FS\\EXT",
  "ScanningSequence": "EP",
  "SequenceName": "epfid2d1_106",
  "SequenceVariant": "SK\\SS",
  "SeriesDescription": "func-bold_task-motor_run-01",
  "SeriesNumber": 4,
  "ShimSetting": [-1561, 636, 7397, 196, 76, 148, 78, -14],
  "SliceThickness": 2,
  "SliceTiming": [0, 0.535, 0.09, 0.625, 0.18, 0.715, 0.2675, 0.8025, 0.3575, 0.8925, 0.4475, 0, 0.535, 0.09, 0.625, 0.18, 0.715, 0.2675, 0.8025, 0.3575, 0.8925, 0.4475, 0, 0.535, 0.09, 0.625, 0.18, 0.715, 0.2675, 0.8025, 0.3575, 0.8925, 0.4475, 0, 0.535, 0.09, 0.625, 0.18, 0.715, 0.2675, 0.8025, 0.3575, 0.8925, 0.4475],
  "SoftwareVersions": "syngo MR E11",
  "SpacingBetweenSlices": 2,
  "StationName": "AWP166108",
  "TaskName": "somatotopy",
  "TotalReadoutTime": 0.0735005,
  "TxRefAmp": 244.62,
  "WipMemBlock": "269bcde8-89f2-40e6-abf5-f4ced8086f2a||Sequence: R016 ve11c/master r/e634e98; Dec 19 2017 11:00:25 by eja",
  "dcmmeta_affine": [
    [-2.0, 0.0, 0.0, 106.0],
    [0.0, 1.987535834312439, -0.22293786704540253, -88.74182891845703],
    [0.0, 0.22293785214424133, 1.9875359535217285, -8.533222198486328],
    [0.0, 0.0, 0.0, 1.0]
],
  "dcmmeta_reorient_transform": [
    [0.0, -1.0, 0.0, 105.0],
    [1.0, 0.0, 0.0, 0.0],
    [0.0, 0.0, 1.0, 0.0],
    [0.0, 0.0, 0.0, 1.0]
],
  "dcmmeta_shape": [106, 106, 44, 467],
  "dcmmeta_slice_dim": 2,
  "dcmmeta_version": 0.6,
  "global": {
    "const": {
      "AcquisitionMatrix": [106, 0, 0, 106],
      "AngioFlag": "N",
      "BitsAllocated": 16,
      "BitsStored": 16,
      "BodyPartExamined": "BRAIN",
      "CardiacNumberOfImages": 1,
      "Columns": 742,
      "EchoNumbers": 1,
      "EchoTime": 30.0,
      "EchoTrainLength": 80,
      "FlipAngle": 62.0,
      "HighBit": 15,
      "ImageOrientationPatient": [1.0, 0.0, 0.0, 0.0, 0.99376791982449, -0.1114689262876],
      "ImagePositionPatient": [-742.0, -751.9858276377, 85.769489060771],
      "ImageType": [
        "ORIGINAL",
        "PRIMARY",
        "M",
        "MB",
        "ND",
        "MOSAIC"
],
      "ImagedNucleus": "1H",
      "ImagingFrequency": 123.243645,
      "InPlanePhaseEncodingDirection": "COL",
      "MRAcquisitionType": "2D",
      "MagneticFieldStrength": 3.0,
      "Manufacturer": "SIEMENS",
      "ManufacturerModelName": "Prisma",
      "Modality": "MR",
      "NominalInterval": 0,
      "NumberOfAverages": 1.0,
      "NumberOfPhaseEncodingSteps": 80,
      "PercentPhaseFieldOfView": 100.0,
      "PercentSampling": 100.0,
      "PerformedProcedureStepStartTime": "182138.729000",
      "PhotometricInterpretation": "MONOCHROME2",
      "PixelBandwidth": 1815.0,
      "PixelRepresentation": 0,
      "PixelSpacing": [2.0, 2.0],
      "ProtocolName": "func-bold_task-motor_run-01",
      "RepetitionTime": 1000.0,
      "Rows": 742,
      "SAR": 0.0430658613137,
      "SamplesPerPixel": 1,
      "ScanOptions": [
        "PFP",
        "FS",
        "EXT"
],
      "ScanningSequence": "EP",
      "SequenceName": "epfid2d1_106",
      "SequenceVariant": [
        "SK",
        "SS"
],
      "SeriesDescription": "func-bold_task-motor_run-01",
      "SeriesNumber": 4,
      "SeriesTime": "184717.621000",
      "SliceLocation": 1.4119139380797,
      "SliceThickness": 2.0,
      "SmallestImagePixelValue": 0,
      "SoftwareVersions": "syngo MR E11",
      "SpacingBetweenSlices": 2.0000000743128,
      "SpecificCharacterSet": "ISO_IR 100",
      "StudyID": "1",
      "StudyTime": "182138.589000",
      "TransmitCoilName": "Body",
      "VariableFlipAngleFlag": "N",
      "WindowCenterWidthExplanation": "Algo1",
      "dBdt": 0.0},
    "slices": {}
  },
  "time": {
    "samples": {
      "AcquisitionNumber": [1, 2, 3, 4, 5, 6, 7, 8, 9, 10, 11, 12, 13, 14, 15, 16, 17, 18, 19, 20, 21, 22, 23, 24, 25, 26, 27, 28, 29, 30, 31, 32, 33, 34, 35, 36, 37, 38, 39, 40, 41, 42, 43, 44, 45, 46, 47, 48, 49, 50, 51, 52, 53, 54, 55, 56, 57, 58, 59, 60, 61, 62, 63, 64, 65, 66, 67, 68, 69, 70, 71, 72, 73, 74, 75, 76, 77, 78, 79, 80, 81, 82, 83, 84, 85, 86, 87, 88, 89, 90, 91, 92, 93, 94, 95, 96, 97, 98, 99, 100, 101, 102, 103, 104, 105, 106, 107, 108, 109, 110, 111, 112, 113, 114, 115, 116, 117, 118, 119, 120, 121, 122, 123, 124, 125, 126, 127, 128, 129, 130, 131, 132, 133, 134, 135, 136, 137, 138, 139, 140, 141, 142, 143, 144, 145, 146, 147, 148, 149, 150, 151, 152, 153, 154, 155, 156, 157, 158, 159, 160, 161, 162, 163, 164, 165, 166, 167, 168, 169, 170, 171, 172, 173, 174, 175, 176, 177, 178, 179, 180, 181, 182, 183, 184, 185, 186, 187, 188, 189, 190, 191, 192, 193, 194, 195, 196, 197, 198, 199, 200, 201, 202, 203, 204, 205, 206, 207, 208, 209, 210, 211, 212, 213, 214, 215, 216, 217, 218, 219, 220, 221, 222, 223, 224, 225, 226, 227, 228, 229, 230, 231, 232, 233, 234, 235, 236, 237, 238, 239, 240, 241, 242, 243, 244, 245, 246, 247, 248, 249, 250, 251, 252, 253, 254, 255, 256, 257, 258, 259, 260, 261, 262, 263, 264, 265, 266, 267, 268, 269, 270, 271, 272, 273, 274, 275, 276, 277, 278, 279, 280, 281, 282, 283, 284, 285, 286, 287, 288, 289, 290, 291, 292, 293, 294, 295, 296, 297, 298, 299, 300, 301, 302, 303, 304, 305, 306, 307, 308, 309, 310, 311, 312, 313, 314, 315, 316, 317, 318, 319, 320, 321, 322, 323, 324, 325, 326, 327, 328, 329, 330, 331, 332, 333, 334, 335, 336, 337, 338, 339, 340, 341, 342, 343, 344, 345, 346, 347, 348, 349, 350, 351, 352, 353, 354, 355, 356, 357, 358, 359, 360, 361, 362, 363, 364, 365, 366, 367, 368, 369, 370, 371, 372, 373, 374, 375, 376, 377, 378, 379, 380, 381, 382, 383, 384, 385, 386, 387, 388, 389, 390, 391, 392, 393, 394, 395, 396, 397, 398, 399, 400, 401, 402, 403, 404, 405, 406, 407, 408, 409, 410, 411, 412, 413, 414, 415, 416, 417, 418, 419, 420, 421, 422, 423, 424, 425, 426, 427, 428, 429, 430, 431, 432, 433, 434, 435, 436, 437, 438, 439, 440, 441, 442, 443, 444, 445, 446, 447, 448, 449, 450, 451, 452, 453, 454, 455, 456, 457, 458, 459, 460, 461, 462, 463, 464, 465, 466, 467],
      "AcquisitionTime": ["184637.700000", "184638.700000", "184639.700000", "184640.700000", "184641.700000", "184642.700000", "184643.700000", "184644.700000", "184645.700000", "184646.700000", "184647.700000", "184648.700000", "184649.700000", "184650.700000", "184651.700000", "184652.700000", "184653.700000", "184654.700000", "184655.700000", "184656.700000", "184657.700000", "184658.700000", "184659.700000", "184700.700000", "184701.700000", "184702.700000", "184703.700000", "184704.700000", "184705.700000", "184706.700000", "184707.700000", "184708.700000", "184709.700000", "184710.700000", "184711.700000", "184712.700000", "184713.700000", "184714.700000", "184715.700000", "184716.700000", "184717.700000", "184718.700000", "184719.700000", "184720.700000", "184721.700000", "184722.700000", "184723.700000", "184724.700000", "184725.700000", "184726.700000", "184727.700000", "184728.700000", "184729.700000", "184730.700000", "184731.700000", "184732.700000", "184733.700000", "184734.700000", "184735.700000", "184736.700000", "184737.700000", "184738.700000", "184739.700000", "184740.700000", "184741.700000", "184742.700000", "184743.700000", "184744.700000", "184745.700000", "184746.700000", "184747.700000", "184748.700000", "184749.700000", "184750.700000", "184751.700000", "184752.700000", "184753.700000", "184754.700000", "184755.700000", "184756.700000", "184757.700000", "184758.700000", "184759.700000", "184800.700000", "184801.700000", "184802.700000", "184803.700000", "184804.700000", "184805.700000", "184806.700000", "184807.700000", "184808.700000", "184809.700000", "184810.700000", "184811.700000", "184812.700000", "184813.700000", "184814.700000", "184815.700000", "184816.700000", "184817.700000", "184818.700000", "184819.700000", "184820.700000", "184821.700000", "184822.700000", "184823.700000", "184824.700000", "184825.700000", "184826.700000", "184827.700000", "184828.700000", "184829.700000", "184830.700000", "184831.700000", "184832.700000", "184833.700000", "184834.700000", "184835.700000", "184836.700000", "184837.700000", "184838.700000", "184839.700000", "184840.700000", "184841.700000", "184842.700000", "184843.700000", "184844.700000", "184845.700000", "184846.700000", "184847.700000", "184848.700000", "184849.700000", "184850.700000", "184851.700000", "184852.700000", "184853.700000", "184854.700000", "184855.700000", "184856.700000", "184857.700000", "184858.700000", "184859.700000", "184900.700000", "184901.700000", "184902.700000", "184903.700000", "184904.700000", "184905.700000", "184906.700000", "184907.700000", "184908.700000", "184909.700000", "184910.700000", "184911.700000", "184912.700000", "184913.700000", "184914.700000", "184915.700000", "184916.700000", "184917.700000", "184918.700000", "184919.700000", "184920.700000", "184921.700000", "184922.700000", "184923.700000", "184924.700000", "184925.700000", "184926.700000", "184927.700000", "184928.700000", "184929.700000", "184930.700000", "184931.700000", "184932.700000", "184933.700000", "184934.700000", "184935.700000", "184936.700000", "184937.700000", "184938.700000", "184939.700000", "184940.700000", "184941.700000", "184942.700000", "184943.700000", "184944.700000", "184945.700000", "184946.700000", "184947.700000", "184948.700000", "184949.700000", "184950.700000", "184951.700000", "184952.700000", "184953.700000", "184954.700000", "184955.700000", "184956.700000", "184957.700000", "184958.700000", "184959.700000", "185000.700000", "185001.700000", "185002.700000", "185003.700000", "185004.700000", "185005.700000", "185006.700000", "185007.700000", "185008.700000", "185009.700000", "185010.700000", "185011.700000", "185012.700000", "185013.700000", "185014.700000", "185015.700000", "185016.700000", "185017.700000", "185018.700000", "185019.700000", "185020.700000", "185021.700000", "185022.700000", "185023.700000", "185024.700000", "185025.700000", "185026.700000", "185027.700000", "185028.700000", "185029.700000", "185030.700000", "185031.700000", "185032.700000", "185033.700000", "185034.700000", "185035.700000", "185036.700000", "185037.700000", "185038.700000", "185039.700000", "185040.700000", "185041.700000", "185042.700000", "185043.700000", "185044.700000", "185045.700000", "185046.700000", "185047.700000", "185048.700000", "185049.700000", "185050.700000", "185051.700000", "185052.700000", "185053.700000", "185054.700000", "185055.700000", "185056.700000", "185057.700000", "185058.700000", "185059.700000", "185100.700000", "185101.700000", "185102.700000", "185103.700000", "185104.700000", "185105.700000", "185106.700000", "185107.700000", "185108.700000", "185109.700000", "185110.700000", "185111.700000", "185112.700000", "185113.700000", "185114.700000", "185115.700000", "185116.700000", "185117.700000", "185118.700000", "185119.700000", "185120.700000", "185121.700000", "185122.700000", "185123.700000", "185124.700000", "185125.700000", "185126.700000", "185127.700000", "185128.700000", "185129.700000", "185130.700000", "185131.700000", "185132.700000", "185133.700000", "185134.700000", "185135.700000", "185136.700000", "185137.700000", "185138.700000", "185139.700000", "185140.700000", "185141.700000", "185142.700000", "185143.700000", "185144.700000", "185145.700000", "185146.700000", "185147.700000", "185148.700000", "185149.700000", "185150.700000", "185151.700000", "185152.700000", "185153.700000", "185154.700000", "185155.700000", "185156.700000", "185157.700000", "185158.700000", "185159.700000", "185200.700000", "185201.700000", "185202.700000", "185203.700000", "185204.700000", "185205.700000", "185206.700000", "185207.700000", "185208.700000", "185209.700000", "185210.700000", "185211.700000", "185212.700000", "185213.700000", "185214.700000", "185215.700000", "185216.700000", "185217.700000", "185218.700000", "185219.700000", "185220.700000", "185221.700000", "185222.700000", "185223.700000", "185224.700000", "185225.700000", "185226.700000", "185227.700000", "185228.700000", "185229.700000", "185230.700000", "185231.700000", "185232.700000", "185233.700000", "185234.700000", "185235.700000", "185236.700000", "185237.700000", "185238.700000", "185239.700000", "185240.700000", "185241.700000", "185242.700000", "185243.700000", "185244.700000", "185245.700000", "185246.700000", "185247.700000", "185248.700000", "185249.700000", "185250.700000", "185251.700000", "185252.700000", "185253.700000", "185254.700000", "185255.700000", "185256.700000", "185257.700000", "185258.700000", "185259.700000", "185300.700000", "185301.700000", "185302.700000", "185303.700000", "185304.700000", "185305.700000", "185306.700000", "185307.700000", "185308.700000", "185309.700000", "185310.700000", "185311.700000", "185312.700000", "185313.700000", "185314.700000", "185315.700000", "185316.700000", "185317.700000", "185318.700000", "185319.700000", "185320.700000", "185321.700000", "185322.700000", "185323.700000", "185324.700000", "185325.700000", "185326.700000", "185327.700000", "185328.700000", "185329.700000", "185330.700000", "185331.700000", "185332.700000", "185333.700000", "185334.700000", "185335.700000", "185336.700000", "185337.700000", "185338.700000", "185339.700000", "185340.700000", "185341.700000", "185342.700000", "185343.700000", "185344.700000", "185345.700000", "185346.700000", "185347.700000", "185348.700000", "185349.700000", "185350.700000", "185351.700000", "185352.700000", "185353.700000", "185354.700000", "185355.700000", "185356.700000", "185357.700000", "185358.700000", "185359.700000", "185400.700000", "185401.700000", "185402.700000", "185403.700000", "185404.700000", "185405.700000", "185406.700000", "185407.700000", "185408.700000", "185409.700000", "185410.700000", "185411.700000", "185412.700000", "185413.700000", "185414.700000", "185415.700000", "185416.700000", "185417.700000", "185418.700000", "185419.700000", "185420.700000", "185421.700000", "185422.700000", "185423.700000"],
      "ContentTime": ["184717.623000", "184717.626000", "184717.629000", "184717.631000", "184717.634000", "184717.636000", "184717.639000", "184717.641000", "184717.643000", "184717.646000", "184717.656000", "184717.659000", "184717.661000", "184717.664000", "184717.666000", "184717.669000", "184717.671000", "184717.674000", "184717.676000", "184717.679000", "184717.681000", "184717.684000", "184717.686000", "184717.689000", "184717.691000", "184717.694000", "184717.696000", "184717.699000", "184717.702000", "184717.705000", "184717.707000", "184717.710000", "184717.723000", "184717.726000", "184717.728000", "184717.730000", "184717.733000", "184717.735000", "184737.581000", "184737.584000", "184737.586000", "184737.589000", "184737.591000", "184737.594000", "184737.596000", "184737.599000", "184737.601000", "184737.604000", "184737.606000", "184737.619000", "184737.622000", "184737.624000", "184737.627000", "184737.629000", "184737.639000", "184737.641000", "184737.644000", "184737.646000", "184757.581000", "184757.584000", "184757.587000", "184757.589000", "184757.591000", "184757.594000", "184757.596000", "184757.599000", "184757.601000", "184757.604000", "184757.606000", "184757.609000", "184757.611000", "184757.613000", "184757.616000", "184757.618000", "184757.621000", "184757.623000", "184757.626000", "184757.628000", "184817.581000", "184817.584000", "184817.586000", "184817.589000", "184817.591000", "184817.594000", "184817.596000", "184817.599000", "184817.601000", "184817.604000", "184817.606000", "184817.609000", "184817.611000", "184817.614000", "184817.616000", "184817.619000", "184817.621000", "184817.624000", "184817.626000", "184817.628000", "184837.581000", "184837.584000", "184837.586000", "184837.589000", "184837.591000", "184837.594000", "184837.596000", "184837.599000", "184837.601000", "184837.604000", "184837.606000", "184837.608000", "184837.611000", "184837.613000", "184837.616000", "184837.618000", "184837.621000", "184837.623000", "184837.626000", "184837.628000", "184857.581000", "184857.584000", "184857.586000", "184857.589000", "184857.591000", "184857.594000", "184857.596000", "184857.599000", "184857.601000", "184857.603000", "184857.606000", "184857.608000", "184857.611000", "184857.613000", "184857.616000", "184857.618000", "184857.621000", "184857.623000", "184857.626000", "184857.628000", "184917.581000", "184917.584000", "184917.586000", "184917.589000", "184917.591000", "184917.594000", "184917.596000", "184917.599000", "184917.601000", "184917.604000", "184917.606000", "184917.608000", "184917.611000", "184917.614000", "184917.616000", "184917.618000", "184917.621000", "184917.623000", "184917.626000", "184917.628000", "184937.581000", "184937.584000", "184937.586000", "184937.589000", "184937.591000", "184937.594000", "184937.596000", "184937.599000", "184937.601000", "184937.604000", "184937.606000", "184937.609000", "184937.611000", "184937.614000", "184937.616000", "184937.619000", "184937.621000", "184937.624000", "184937.626000", "184937.629000", "184957.583000", "184957.585000", "184957.588000", "184957.590000", "184957.593000", "184957.595000", "184957.598000", "184957.600000", "184957.602000", "184957.605000", "184957.607000", "184957.610000", "184957.612000", "184957.615000", "184957.617000", "184957.620000", "184957.622000", "184957.625000", "184957.627000", "184957.629000", "185017.581000", "185017.584000", "185017.586000", "185017.589000", "185017.591000", "185017.594000", "185017.596000", "185017.599000", "185017.601000", "185017.604000", "185017.606000", "185017.609000", "185017.611000", "185017.614000", "185017.616000", "185017.619000", "185017.621000", "185017.623000", "185017.626000", "185017.628000", "185037.582000", "185037.584000", "185037.587000", "185037.589000", "185037.592000", "185037.594000", "185037.596000", "185037.599000", "185037.601000", "185037.604000", "185037.606000", "185037.609000", "185037.611000", "185037.614000", "185037.616000", "185037.619000", "185037.621000", "185037.624000", "185037.626000", "185037.628000", "185057.581000", "185057.584000", "185057.586000", "185057.589000", "185057.591000", "185057.594000", "185057.596000", "185057.607000", "185057.609000", "185057.611000", "185057.614000", "185057.617000", "185057.619000", "185057.621000", "185057.624000", "185057.626000", "185057.629000", "185057.631000", "185057.634000", "185057.636000", "185117.582000", "185117.584000", "185117.587000", "185117.589000", "185117.592000", "185117.594000", "185117.597000", "185117.599000", "185117.602000", "185117.604000", "185117.607000", "185117.609000", "185117.612000", "185117.614000", "185117.617000", "185117.619000", "185117.622000", "185117.624000", "185117.627000", "185117.629000", "185157.581000", "185157.584000", "185157.587000", "185157.589000", "185157.592000", "185157.594000", "185157.597000", "185157.599000", "185157.602000", "185157.604000", "185157.607000", "185157.609000", "185157.611000", "185157.614000", "185157.616000", "185157.619000", "185157.622000", "185157.624000", "185157.627000", "185157.629000", "185157.632000", "185157.634000", "185157.637000", "185157.639000", "185157.642000", "185157.644000", "185157.647000", "185157.649000", "185157.652000", "185157.655000", "185157.658000", "185157.661000", "185157.663000", "185157.666000", "185157.668000", "185157.671000", "185157.673000", "185157.676000", "185157.678000", "185157.681000", "185217.583000", "185217.585000", "185217.588000", "185217.590000", "185217.593000", "185217.595000", "185217.598000", "185217.600000", "185217.603000", "185217.605000", "185217.607000", "185217.610000", "185217.612000", "185217.615000", "185217.617000", "185217.620000", "185217.622000", "185217.625000", "185217.627000", "185217.630000", "185237.582000", "185237.584000", "185237.587000", "185237.589000", "185237.592000", "185237.594000", "185237.596000", "185237.599000", "185237.601000", "185237.604000", "185237.606000", "185237.609000", "185237.611000", "185237.614000", "185237.616000", "185237.619000", "185237.621000", "185237.623000", "185237.626000", "185237.628000", "185257.581000", "185257.584000", "185257.586000", "185257.589000", "185257.591000", "185257.594000", "185257.596000", "185257.599000", "185257.601000", "185257.604000", "185257.606000", "185257.609000", "185257.611000", "185257.614000", "185257.616000", "185257.619000", "185257.621000", "185257.623000", "185257.626000", "185257.628000", "185317.582000", "185317.584000", "185317.587000", "185317.589000", "185317.592000", "185317.594000", "185317.597000", "185317.599000", "185317.601000", "185317.604000", "185317.606000", "185317.609000", "185317.611000", "185317.614000", "185317.616000", "185317.619000", "185317.621000", "185317.624000", "185317.626000", "185317.629000", "185337.581000", "185337.584000", "185337.587000", "185337.589000", "185337.591000", "185337.594000", "185337.596000", "185337.599000", "185337.601000", "185337.604000", "185337.606000", "185337.609000", "185337.611000", "185337.613000", "185337.616000", "185337.618000", "185337.621000", "185337.623000", "185337.626000", "185337.628000", "185357.581000", "185357.584000", "185357.587000", "185357.589000", "185357.592000", "185357.594000", "185357.597000", "185357.599000", "185357.601000", "185357.604000", "185357.606000", "185357.609000", "185357.611000", "185357.614000", "185357.616000", "185357.619000", "185357.621000", "185357.624000", "185357.626000", "185357.628000", "185417.581000", "185417.584000", "185417.587000", "185417.589000", "185417.592000", "185417.594000", "185417.597000", "185417.599000", "185417.601000", "185417.604000", "185417.606000", "185417.609000", "185417.611000", "185417.614000", "185417.617000", "185417.619000", "185417.621000", "185417.624000", "185417.626000", "185417.629000", "185425.757000", "185425.759000", "185425.762000", "185425.764000", "185425.767000", "185425.770000", "185425.772000", "185425.775000", "185425.784000"],
