{
  "AcquisitionMatrixPE": 106,
  "AcquisitionNumber": 1,
  "AcquisitionTime": "18:55:21.930000",
  "BandwidthPerPixelPhaseEncode": 13.477,
  "BaseResolution": 106,
  "BodyPartExamined": "BRAIN",
  "CoilCombinationMethod": "Sum of Squares",
  "ConsistencyInfo": "N4_VE11C_LATEST_20160120",
  "ConversionSoftware": "dcm2niix",
  "ConversionSoftwareVersion": "v1.0.20220720",
  "DerivedVendorReportedEchoSpacing": 0.000700005,
  "DeviceSerialNumber": "166108",
  "DwellTime": 2.6e-06,
  "EchoTime": 0.03,
  "EchoTrainLength": 80,
  "EffectiveEchoSpacing": 0.000700005,
  "FlipAngle": 62,
  "HeudiconvVersion": "1.3.0",
  "ImageComments": "Unaliased MB4/PE3/LB",
  "ImageOrientationPatientDICOM": [1, 0, 0, 0, 0.993768, -0.111469],
  "ImageOrientationText": "Tra>Cor(-6.4)",
  "ImageType": [
    "ORIGINAL",
    "PRIMARY",
    "M",
    "MB",
    "ND",
    "MOSAIC"
],
  "ImagingFrequency": 123.244,
  "InPlanePhaseEncodingDirectionDICOM": "COL",
  "InstitutionAddress": "Bedford Way 26,London,London,GB,WC1H 0AP",
  "InstitutionName": "University College",
  "InstitutionalDepartmentName": "Department",
  "MRAcquisitionType": "2D",
  "MagneticFieldStrength": 3,
  "Manufacturer": "Siemens",
  "ManufacturersModelName": "Prisma",
  "MatrixCoilMode": "SENSE",
  "Modality": "MR",
  "MultibandAccelerationFactor": 4,
  "NonlinearGradientCorrection": false,
  "PartialFourier": 0.75,
  "PatientPosition": "HFS",
  "PercentPhaseFOV": 100,
  "PercentSampling": 100,
  "PhaseEncodingDirection": "j-",
  "PhaseEncodingSteps": 80,
  "PhaseResolution": 1,
  "PixelBandwidth": 1815,
  "ProcedureStepDescription": "Egor^MovieProject2",
  "ProtocolName": "func-bold_task-motor_run-02",
  "PulseSequenceDetails": "%CustomerSeq%\\cmrr_mbep2d_bold",
  "ReceiveCoilActiveElements": "HEA;HEP",
  "ReceiveCoilName": "Head_32",
  "ReconMatrixPE": 106,
  "RepetitionTime": 1,
  "SAR": 0.0430667,
  "ScanOptions": "PFP\\FS\\EXT",
  "ScanningSequence": "EP",
  "SequenceName": "epfid2d1_106",
  "SequenceVariant": "SK\\SS",
  "SeriesDescription": "func-bold_task-motor_run-02",
  "SeriesNumber": 6,
  "ShimSetting": [-1561, 636, 7397, 196, 76, 148, 78, -14],
  "SliceThickness": 2,
  "SliceTiming": [0, 0.535, 0.0875, 0.6225, 0.1775, 0.7125, 0.2675, 0.8, 0.355, 0.89, 0.445, 0, 0.535, 0.0875, 0.6225, 0.1775, 0.7125, 0.2675, 0.8, 0.355, 0.89, 0.445, 0, 0.535, 0.0875, 0.6225, 0.1775, 0.7125, 0.2675, 0.8, 0.355, 0.89, 0.445, 0, 0.535, 0.0875, 0.6225, 0.1775, 0.7125, 0.2675, 0.8, 0.355, 0.89, 0.445],
  "SoftwareVersions": "syngo MR E11",
  "SpacingBetweenSlices": 2,
  "StationName": "AWP166108",
  "TaskName": "somatotopy",
  "TotalReadoutTime": 0.0735005,
  "TxRefAmp": 244.62,
  "WipMemBlock": "94114da8-041e-4836-b9d2-9d8427f75a04||Sequence: R016 ve11c/master r/e634e98; Dec 19 2017 11:00:25 by eja",
  "dcmmeta_affine": [
    [-2.0, 0.0, 0.0, 106.0],
    [0.0, 1.987535834312439, -0.22293786704540253, -88.74182891845703],
    [0.0, 0.22293785214424133, 1.9875359535217285, -8.533222198486328],
    [0.0, 0.0, 0.0, 1.0]
],
  "dcmmeta_reorient_transform": [
    [0.0, -1.0, 0.0, 105.0],
    [1.0, 0.0, 0.0, 0.0],
    [0.0, 0.0, 1.0, 0.0],
    [0.0, 0.0, 0.0, 1.0]
],
  "dcmmeta_shape": [106, 106, 44, 469],
  "dcmmeta_slice_dim": 2,
  "dcmmeta_version": 0.6,
  "global": {
    "const": {
      "AcquisitionMatrix": [106, 0, 0, 106],
      "AngioFlag": "N",
      "BitsAllocated": 16,
      "BitsStored": 16,
      "BodyPartExamined": "BRAIN",
      "CardiacNumberOfImages": 1,
      "Columns": 742,
      "EchoNumbers": 1,
      "EchoTime": 30.0,
      "EchoTrainLength": 80,
      "FlipAngle": 62.0,
      "HighBit": 15,
      "ImageOrientationPatient": [1.0, 0.0, 0.0, 0.0, 0.99376791982449, -0.1114689262876],
      "ImagePositionPatient": [-742.0, -751.9858276377, 85.769489060771],
      "ImageType": [
        "ORIGINAL",
        "PRIMARY",
        "M",
        "MB",
        "ND",
        "MOSAIC"
],
      "ImagedNucleus": "1H",
      "ImagingFrequency": 123.243649,
      "InPlanePhaseEncodingDirection": "COL",
      "MRAcquisitionType": "2D",
      "MagneticFieldStrength": 3.0,
      "Manufacturer": "SIEMENS",
      "ManufacturerModelName": "Prisma",
      "Modality": "MR",
      "NominalInterval": 0,
      "NumberOfAverages": 1.0,
      "NumberOfPhaseEncodingSteps": 80,
      "PercentPhaseFieldOfView": 100.0,
      "PercentSampling": 100.0,
      "PerformedProcedureStepStartTime": "182138.729000",
      "PhotometricInterpretation": "MONOCHROME2",
      "PixelBandwidth": 1815.0,
      "PixelRepresentation": 0,
      "PixelSpacing": [2.0, 2.0],
      "ProtocolName": "func-bold_task-motor_run-02",
      "RepetitionTime": 1000.0,
      "Rows": 742,
      "SAR": 0.04306666890379,
      "SamplesPerPixel": 1,
      "ScanOptions": [
        "PFP",
        "FS",
        "EXT"
],
      "ScanningSequence": "EP",
      "SequenceName": "epfid2d1_106",
      "SequenceVariant": [
        "SK",
        "SS"
],
      "SeriesDescription": "func-bold_task-motor_run-02",
      "SeriesNumber": 6,
      "SeriesTime": "185551.423000",
      "SliceLocation": 1.4119139380797,
      "SliceThickness": 2.0,
      "SmallestImagePixelValue": 0,
      "SoftwareVersions": "syngo MR E11",
      "SpacingBetweenSlices": 2.0000000743128,
      "SpecificCharacterSet": "ISO_IR 100",
      "StudyID": "1",
      "StudyTime": "182138.589000",
      "TransmitCoilName": "Body",
      "VariableFlipAngleFlag": "N",
      "WindowCenterWidthExplanation": "Algo1",
      "dBdt": 0.0},
    "slices": {}
  },
  "time": {
    "samples": {
      "AcquisitionNumber": [1, 2, 3, 4, 5, 6, 7, 8, 9, 10, 11, 12, 13, 14, 15, 16, 17, 18, 19, 20, 21, 22, 23, 24, 25, 26, 27, 28, 29, 30, 31, 32, 33, 34, 35, 36, 37, 38, 39, 40, 41, 42, 43, 44, 45, 46, 47, 48, 49, 50, 51, 52, 53, 54, 55, 56, 57, 58, 59, 60, 61, 62, 63, 64, 65, 66, 67, 68, 69, 70, 71, 72, 73, 74, 75, 76, 77, 78, 79, 80, 81, 82, 83, 84, 85, 86, 87, 88, 89, 90, 91, 92, 93, 94, 95, 96, 97, 98, 99, 100, 101, 102, 103, 104, 105, 106, 107, 108, 109, 110, 111, 112, 113, 114, 115, 116, 117, 118, 119, 120, 121, 122, 123, 124, 125, 126, 127, 128, 129, 130, 131, 132, 133, 134, 135, 136, 137, 138, 139, 140, 141, 142, 143, 144, 145, 146, 147, 148, 149, 150, 151, 152, 153, 154, 155, 156, 157, 158, 159, 160, 161, 162, 163, 164, 165, 166, 167, 168, 169, 170, 171, 172, 173, 174, 175, 176, 177, 178, 179, 180, 181, 182, 183, 184, 185, 186, 187, 188, 189, 190, 191, 192, 193, 194, 195, 196, 197, 198, 199, 200, 201, 202, 203, 204, 205, 206, 207, 208, 209, 210, 211, 212, 213, 214, 215, 216, 217, 218, 219, 220, 221, 222, 223, 224, 225, 226, 227, 228, 229, 230, 231, 232, 233, 234, 235, 236, 237, 238, 239, 240, 241, 242, 243, 244, 245, 246, 247, 248, 249, 250, 251, 252, 253, 254, 255, 256, 257, 258, 259, 260, 261, 262, 263, 264, 265, 266, 267, 268, 269, 270, 271, 272, 273, 274, 275, 276, 277, 278, 279, 280, 281, 282, 283, 284, 285, 286, 287, 288, 289, 290, 291, 292, 293, 294, 295, 296, 297, 298, 299, 300, 301, 302, 303, 304, 305, 306, 307, 308, 309, 310, 311, 312, 313, 314, 315, 316, 317, 318, 319, 320, 321, 322, 323, 324, 325, 326, 327, 328, 329, 330, 331, 332, 333, 334, 335, 336, 337, 338, 339, 340, 341, 342, 343, 344, 345, 346, 347, 348, 349, 350, 351, 352, 353, 354, 355, 356, 357, 358, 359, 360, 361, 362, 363, 364, 365, 366, 367, 368, 369, 370, 371, 372, 373, 374, 375, 376, 377, 378, 379, 380, 381, 382, 383, 384, 385, 386, 387, 388, 389, 390, 391, 392, 393, 394, 395, 396, 397, 398, 399, 400, 401, 402, 403, 404, 405, 406, 407, 408, 409, 410, 411, 412, 413, 414, 415, 416, 417, 418, 419, 420, 421, 422, 423, 424, 425, 426, 427, 428, 429, 430, 431, 432, 433, 434, 435, 436, 437, 438, 439, 440, 441, 442, 443, 444, 445, 446, 447, 448, 449, 450, 451, 452, 453, 454, 455, 456, 457, 458, 459, 460, 461, 462, 463, 464, 465, 466, 467, 468, 469],
      "AcquisitionTime": ["185521.930000", "185522.930000", "185523.930000", "185524.930000", "185525.930000", "185526.930000", "185527.930000", "185528.930000", "185529.930000", "185530.930000", "185531.930000", "185532.930000", "185533.930000", "185534.930000", "185535.930000", "185536.930000", "185537.930000", "185538.930000", "185539.930000", "185540.930000", "185541.930000", "185542.930000", "185543.930000", "185544.930000", "185545.930000", "185546.930000", "185547.930000", "185548.930000", "185549.930000", "185550.930000", "185551.930000", "185552.930000", "185553.930000", "185554.930000", "185555.930000", "185556.930000", "185557.930000", "185558.930000", "185559.930000", "185600.930000", "185601.930000", "185602.930000", "185603.930000", "185604.930000", "185605.930000", "185606.930000", "185607.930000", "185608.930000", "185609.930000", "185610.930000", "185611.930000", "185612.930000", "185613.930000", "185614.930000", "185615.930000", "185616.930000", "185617.930000", "185618.930000", "185619.930000", "185620.930000", "185621.930000", "185622.930000", "185623.930000", "185624.930000", "185625.930000", "185626.930000", "185627.930000", "185628.930000", "185629.930000", "185630.930000", "185631.930000", "185632.930000", "185633.930000", "185634.930000", "185635.930000", "185636.930000", "185637.930000", "185638.930000", "185639.930000", "185640.930000", "185641.930000", "185642.930000", "185643.930000", "185644.930000", "185645.930000", "185646.930000", "185647.930000", "185648.930000", "185649.930000", "185650.930000", "185651.930000", "185652.930000", "185653.930000", "185654.930000", "185655.930000", "185656.930000", "185657.930000", "185658.930000", "185659.930000", "185700.930000", "185701.930000", "185702.930000", "185703.930000", "185704.930000", "185705.930000", "185706.930000", "185707.930000", "185708.930000", "185709.930000", "185710.930000", "185711.930000", "185712.930000", "185713.930000", "185714.930000", "185715.930000", "185716.930000", "185717.930000", "185718.930000", "185719.930000", "185720.930000", "185721.930000", "185722.930000", "185723.930000", "185724.930000", "185725.930000", "185726.930000", "185727.930000", "185728.930000", "185729.930000", "185730.930000", "185731.930000", "185732.930000", "185733.930000", "185734.930000", "185735.930000", "185736.930000", "185737.930000", "185738.930000", "185739.930000", "185740.930000", "185741.930000", "185742.930000", "185743.930000", "185744.930000", "185745.930000", "185746.930000", "185747.930000", "185748.930000", "185749.930000", "185750.930000", "185751.930000", "185752.930000", "185753.930000", "185754.930000", "185755.930000", "185756.930000", "185757.930000", "185758.930000", "185759.930000", "185800.930000", "185801.930000", "185802.930000", "185803.930000", "185804.930000", "185805.930000", "185806.930000", "185807.930000", "185808.930000", "185809.930000", "185810.930000", "185811.930000", "185812.930000", "185813.930000", "185814.930000", "185815.930000", "185816.930000", "185817.930000", "185818.930000", "185819.930000", "185820.930000", "185821.930000", "185822.930000", "185823.930000", "185824.930000", "185825.930000", "185826.930000", "185827.930000", "185828.930000", "185829.930000", "185830.930000", "185831.930000", "185832.930000", "185833.930000", "185834.930000", "185835.930000", "185836.930000", "185837.930000", "185838.930000", "185839.930000", "185840.930000", "185841.930000", "185842.930000", "185843.930000", "185844.930000", "185845.930000", "185846.930000", "185847.930000", "185848.930000", "185849.930000", "185850.930000", "185851.930000", "185852.930000", "185853.930000", "185854.930000", "185855.930000", "185856.930000", "185857.930000", "185858.930000", "185859.930000", "185900.930000", "185901.930000", "185902.930000", "185903.930000", "185904.930000", "185905.930000", "185906.930000", "185907.930000", "185908.930000", "185909.930000", "185910.930000", "185911.930000", "185912.930000", "185913.930000", "185914.930000", "185915.930000", "185916.930000", "185917.930000", "185918.930000", "185919.930000", "185920.930000", "185921.930000", "185922.930000", "185923.930000", "185924.930000", "185925.930000", "185926.930000", "185927.930000", "185928.930000", "185929.930000", "185930.930000", "185931.930000", "185932.930000", "185933.930000", "185934.930000", "185935.930000", "185936.930000", "185937.930000", "185938.930000", "185939.930000", "185940.930000", "185941.930000", "185942.930000", "185943.930000", "185944.930000", "185945.930000", "185946.930000", "185947.930000", "185948.930000", "185949.930000", "185950.930000", "185951.930000", "185952.930000", "185953.930000", "185954.930000", "185955.930000", "185956.930000", "185957.930000", "185958.930000", "185959.930000", "190000.930000", "190001.930000", "190002.930000", "190003.930000", "190004.930000", "190005.930000", "190006.930000", "190007.930000", "190008.930000", "190009.930000", "190010.930000", "190011.930000", "190012.930000", "190013.930000", "190014.930000", "190015.930000", "190016.930000", "190017.930000", "190018.930000", "190019.930000", "190020.930000", "190021.930000", "190022.930000", "190023.930000", "190024.930000", "190025.930000", "190026.930000", "190027.930000", "190028.930000", "190029.930000", "190030.930000", "190031.930000", "190032.930000", "190033.930000", "190034.930000", "190035.930000", "190036.930000", "190037.930000", "190038.930000", "190039.930000", "190040.930000", "190041.930000", "190042.930000", "190043.930000", "190044.930000", "190045.930000", "190046.930000", "190047.930000", "190048.930000", "190049.930000", "190050.930000", "190051.930000", "190052.930000", "190053.930000", "190054.930000", "190055.930000", "190056.930000", "190057.930000", "190058.930000", "190059.930000", "190100.930000", "190101.930000", "190102.930000", "190103.930000", "190104.930000", "190105.930000", "190106.930000", "190107.930000", "190108.930000", "190109.930000", "190110.930000", "190111.930000", "190112.930000", "190113.930000", "190114.930000", "190115.930000", "190116.930000", "190117.930000", "190118.930000", "190119.930000", "190120.930000", "190121.930000", "190122.930000", "190123.930000", "190124.930000", "190125.930000", "190126.930000", "190127.930000", "190128.930000", "190129.930000", "190130.930000", "190131.930000", "190132.930000", "190133.930000", "190134.930000", "190135.930000", "190136.930000", "190137.930000", "190138.930000", "190139.930000", "190140.930000", "190141.930000", "190142.930000", "190143.930000", "190144.930000", "190145.930000", "190146.930000", "190147.930000", "190148.930000", "190149.930000", "190150.930000", "190151.930000", "190152.930000", "190153.930000", "190154.930000", "190155.930000", "190156.930000", "190157.930000", "190158.930000", "190159.930000", "190200.930000", "190201.930000", "190202.930000", "190203.930000", "190204.930000", "190205.930000", "190206.930000", "190207.930000", "190208.930000", "190209.930000", "190210.930000", "190211.930000", "190212.930000", "190213.930000", "190214.930000", "190215.930000", "190216.930000", "190217.930000", "190218.930000", "190219.930000", "190220.930000", "190221.930000", "190222.930000", "190223.930000", "190224.930000", "190225.930000", "190226.930000", "190227.930000", "190228.930000", "190229.930000", "190230.930000", "190231.930000", "190232.930000", "190233.930000", "190234.930000", "190235.930000", "190236.930000", "190237.930000", "190238.930000", "190239.930000", "190240.930000", "190241.930000", "190242.930000", "190243.930000", "190244.930000", "190245.930000", "190246.930000", "190247.930000", "190248.930000", "190249.930000", "190250.930000", "190251.930000", "190252.930000", "190253.930000", "190254.930000", "190255.930000", "190256.930000", "190257.930000", "190258.930000", "190259.930000", "190300.930000", "190301.930000", "190302.930000", "190303.930000", "190304.930000", "190305.930000", "190306.930000", "190307.930000", "190308.930000", "190309.930000"],
      "ContentTime": ["185551.425000", "185551.428000", "185551.443000", "185551.445000", "185551.447000", "185551.450000", "185551.452000", "185551.455000", "185551.457000", "185551.460000", "185551.462000", "185551.465000", "185551.467000", "185551.469000", "185551.472000", "185551.474000", "185551.477000", "185551.480000", "185551.482000", "185551.485000", "185551.487000", "185551.490000", "185551.492000", "185551.495000", "185551.497000", "185551.499000", "185551.502000", "185551.504000", "185611.382000", "185611.384000", "185611.387000", "185611.402000", "185611.404000", "185611.407000", "185611.409000", "185611.411000", "185611.414000", "185611.416000", "185611.419000", "185611.421000", "185611.424000", "185611.426000", "185611.428000", "185611.431000", "185611.433000", "185611.436000", "185611.438000", "185611.441000", "185631.381000", "185631.383000", "185631.386000", "185631.388000", "185631.391000", "185631.393000", "185631.395000", "185631.398000", "185631.400000", "185631.403000", "185631.405000", "185631.407000", "185631.410000", "185631.412000", "185631.415000", "185631.417000", "185631.420000", "185631.422000", "185631.434000", "185631.436000", "185651.380000", "185651.383000", "185651.386000", "185651.388000", "185651.390000", "185651.393000", "185651.395000", "185651.398000", "185651.400000", "185651.403000", "185651.405000", "185651.407000", "185651.410000", "185651.412000", "185651.415000", "185651.417000", "185651.429000", "185651.432000", "185651.434000", "185651.436000", "185711.380000", "185711.383000", "185711.385000", "185711.388000", "185711.390000", "185711.393000", "185711.395000", "185711.397000", "185711.400000", "185711.402000", "185711.405000", "185711.407000", "185711.410000", "185711.412000", "185711.414000", "185711.417000", "185711.419000", "185711.422000", "185711.424000", "185711.426000", "185731.380000", "185731.383000", "185731.385000", "185731.388000", "185731.390000", "185731.393000", "185731.395000", "185731.398000", "185731.400000", "185731.403000", "185731.405000", "185731.407000", "185731.410000", "185731.412000", "185731.415000", "185731.417000", "185731.420000", "185731.422000", "185731.424000", "185731.427000", "185751.381000", "185751.384000", "185751.387000", "185751.389000", "185751.392000", "185751.394000", "185751.396000", "185751.399000", "185751.401000", "185751.404000", "185751.406000", "185751.409000", "185751.411000", "185751.413000", "185751.416000", "185751.418000", "185751.421000", "185751.423000", "185751.426000", "185751.428000", "185811.381000", "185811.384000", "185811.387000", "185811.389000", "185811.392000", "185811.394000", "185811.396000", "185811.399000", "185811.401000", "185811.404000", "185811.406000", "185811.408000", "185811.411000", "185811.413000", "185811.416000", "185811.418000", "185811.421000", "185811.423000", "185811.432000", "185811.435000", "185831.381000", "185831.384000", "185831.387000", "185831.389000", "185831.391000", "185831.394000", "185831.396000", "185831.399000", "185831.401000", "185831.404000", "185831.406000", "185831.408000", "185831.411000", "185831.413000", "185831.416000", "185831.418000", "185831.421000", "185831.423000", "185831.426000", "185831.428000", "185851.380000", "185851.383000", "185851.386000", "185851.388000", "185851.390000", "185851.393000", "185851.395000", "185851.398000", "185851.400000", "185851.403000", "185851.405000", "185851.407000", "185851.410000", "185851.412000", "185851.415000", "185851.417000", "185851.420000", "185851.422000", "185851.424000", "185851.427000", "185911.380000", "185911.383000", "185911.385000", "185911.388000", "185911.390000", "185911.393000", "185911.395000", "185911.398000", "185911.400000", "185911.403000", "185911.405000", "185911.408000", "185911.410000", "185911.412000", "185911.425000", "185911.427000", "185911.430000", "185911.432000", "185911.434000", "185911.437000", "185931.381000", "185931.383000", "185931.386000", "185931.388000", "185931.391000", "185931.403000", "185931.405000", "185931.408000", "185931.410000", "185931.412000", "185931.415000", "185931.417000", "185931.420000", "185931.422000", "185931.424000", "185931.427000", "185931.429000", "185931.432000", "185931.434000", "185931.437000", "185951.380000", "185951.383000", "185951.386000", "185951.388000", "185951.391000", "185951.393000", "185951.396000", "185951.398000", "185951.400000", "185951.403000", "185951.405000", "185951.408000", "185951.410000", "185951.413000", "185951.415000", "185951.417000", "185951.420000", "185951.422000", "185951.425000", "185951.427000", "190011.381000", "190011.384000", "190011.386000", "190011.389000", "190011.391000", "190011.394000", "190011.396000", "190011.399000", "190011.401000", "190011.404000", "190011.406000", "190011.409000", "190011.411000", "190011.413000", "190011.416000", "190011.418000", "190011.421000", "190011.423000", "190011.426000", "190011.428000", "190031.381000", "190031.384000", "190031.387000", "190031.389000", "190031.391000", "190031.394000", "190031.396000", "190031.399000", "190031.401000", "190031.404000", "190031.406000", "190031.408000", "190031.411000", "190031.413000", "190031.416000", "190031.418000", "190031.421000", "190031.423000", "190031.426000", "190031.428000", "190051.382000", "190051.384000", "190051.387000", "190051.389000", "190051.392000", "190051.394000", "190051.396000", "190051.399000", "190051.401000", "190051.404000", "190051.406000", "190051.409000", "190051.411000", "190051.414000", "190051.416000", "190051.419000", "190051.421000", "190051.423000", "190051.426000", "190051.428000", "190111.380000", "190111.383000", "190111.386000", "190111.388000", "190111.390000", "190111.393000", "190111.395000", "190111.398000", "190111.400000", "190111.403000", "190111.405000", "190111.408000", "190111.410000", "190111.413000", "190111.415000", "190111.418000", "190111.420000", "190111.423000", "190111.425000", "190111.427000", "190131.380000", "190131.383000", "190131.385000", "190131.388000", "190131.390000", "190131.393000", "190131.395000", "190131.398000", "190131.400000", "190131.403000", "190131.405000", "190131.407000", "190131.410000", "190131.412000", "190131.415000", "190131.417000", "190131.420000", "190131.422000", "190131.424000", "190131.427000", "190151.380000", "190151.383000", "190151.386000", "190151.388000", "190151.390000", "190151.393000", "190151.395000", "190151.398000", "190151.400000", "190151.403000", "190151.405000", "190151.408000", "190151.410000", "190151.412000", "190151.415000", "190151.417000", "190151.420000", "190151.422000", "190151.425000", "190151.427000", "190211.380000", "190211.383000", "190211.385000", "190211.388000", "190211.390000", "190211.393000", "190211.395000", "190211.398000", "190211.400000", "190211.403000", "190211.405000", "190211.407000", "190211.410000", "190211.413000", "190211.415000", "190211.417000", "190211.420000", "190211.422000", "190211.425000", "190211.427000", "190231.381000", "190231.384000", "190231.386000", "190231.389000", "190231.391000", "190231.394000", "190231.396000", "190231.399000", "190231.401000", "190231.403000", "190231.406000", "190231.408000", "190231.411000", "190231.414000", "190231.416000", "190231.419000", "190231.421000", "190231.423000", "190231.426000", "190231.428000", "190251.382000", "190251.384000", "190251.387000", "190251.389000", "190251.392000", "190251.394000", "190251.397000", "190251.399000", "190251.402000", "190251.404000", "190251.406000", "190251.409000", "190251.411000", "190251.414000", "190251.416000", "190251.418000", "190251.421000", "190251.423000", "190251.426000", "190251.428000", "190311.381000", "190311.384000", "190311.401000", "190311.403000", "190311.406000", "190311.408000", "190311.410000", "190311.413000", "190311.415000", "190311.418000", "190311.420000", "190311.423000", "190311.425000", "190311.428000", "190311.430000", "190311.432000", "190311.435000", "190311.437000", "190311.440000", "190311.442000", "190311.826000"],
