{
  "AcquisitionMatrixPE": 106,
  "AcquisitionNumber": 1,
  "AcquisitionTime": "19:05:6.657500",
  "BandwidthPerPixelPhaseEncode": 13.477,
  "BaseResolution": 106,
  "BodyPartExamined": "BRAIN",
  "CoilCombinationMethod": "Sum of Squares",
  "ConsistencyInfo": "N4_VE11C_LATEST_20160120",
  "ConversionSoftware": "dcm2niix",
  "ConversionSoftwareVersion": "v1.0.20220720",
  "DerivedVendorReportedEchoSpacing": 0.000700005,
  "DeviceSerialNumber": "166108",
  "DwellTime": 2.6e-06,
  "EchoTime": 0.03,
  "EchoTrainLength": 80,
  "EffectiveEchoSpacing": 0.000700005,
  "FlipAngle": 62,
  "HeudiconvVersion": "1.3.0",
  "ImageComments": "Unaliased MB4/PE3/LB",
  "ImageOrientationPatientDICOM": [1, 0, 0, 0, 0.952129, -0.305695],
  "ImageOrientationText": "Tra>Cor(-17.8)",
  "ImageType": [
    "ORIGINAL",
    "PRIMARY",
    "M",
    "MB",
    "ND",
    "MOSAIC"
],
  "ImagingFrequency": 123.244,
  "InPlanePhaseEncodingDirectionDICOM": "COL",
  "InstitutionAddress": "Bedford Way 26,London,London,GB,WC1H 0AP",
  "InstitutionName": "University College",
  "InstitutionalDepartmentName": "Department",
  "MRAcquisitionType": "2D",
  "MagneticFieldStrength": 3,
  "Manufacturer": "Siemens",
  "ManufacturersModelName": "Prisma",
  "MatrixCoilMode": "SENSE",
  "Modality": "MR",
  "MultibandAccelerationFactor": 4,
  "NonlinearGradientCorrection": false,
  "PartialFourier": 0.75,
  "PatientPosition": "HFS",
  "PercentPhaseFOV": 100,
  "PercentSampling": 100,
  "PhaseEncodingDirection": "j-",
  "PhaseEncodingSteps": 80,
  "PhaseResolution": 1,
  "PixelBandwidth": 1815,
  "ProcedureStepDescription": "Egor^MovieProject2",
  "ProtocolName": "func-bold_task-tono_run-02",
  "PulseSequenceDetails": "%CustomerSeq%\\cmrr_mbep2d_bold",
  "ReceiveCoilActiveElements": "HEA;HEP",
  "ReceiveCoilName": "Head_32",
  "ReconMatrixPE": 106,
  "RepetitionTime": 1,
  "SAR": 0.0393841,
  "ScanOptions": "PFP\\FS\\EXT",
  "ScanningSequence": "EP",
  "SequenceName": "epfid2d1_106",
  "SequenceVariant": "SK\\SS",
  "SeriesDescription": "func-bold_task-tono_run-02",
  "SeriesNumber": 22,
  "ShimSetting": [-1503, 575, 7452, 487, -128, -35, 269, -160],
  "SliceThickness": 2,
  "SliceTiming": [0, 0.535, 0.09, 0.6225, 0.1775, 0.7125, 0.2675, 0.8025, 0.3575, 0.89, 0.445, 0, 0.535, 0.09, 0.6225, 0.1775, 0.7125, 0.2675, 0.8025, 0.3575, 0.89, 0.445, 0, 0.535, 0.09, 0.6225, 0.1775, 0.7125, 0.2675, 0.8025, 0.3575, 0.89, 0.445, 0, 0.535, 0.09, 0.6225, 0.1775, 0.7125, 0.2675, 0.8025, 0.3575, 0.89, 0.445],
  "SoftwareVersions": "syngo MR E11",
  "SpacingBetweenSlices": 2,
  "StationName": "AWP166108",
  "TaskName": "tonotopy",
  "TotalReadoutTime": 0.0735005,
  "TxRefAmp": 220.568,
  "WipMemBlock": "bd6904df-e2ee-44eb-b24a-1d51cfff566a||Sequence: R016 ve11c/master r/e634e98; Dec 19 2017 11:00:25 by eja",
  "dcmmeta_affine": [
    [-2.0, 0.0, 0.0, 106.0],
    [0.0, 1.9042588472366333, -0.6113905906677246, -63.73219299316406],
    [0.0, 0.6113905906677246, 1.9042588472366333, -65.00434112548828],
    [0.0, 0.0, 0.0, 1.0]
],
  "dcmmeta_reorient_transform": [
    [0.0, -1.0, 0.0, 105.0],
    [1.0, 0.0, 0.0, 0.0],
    [0.0, 0.0, 1.0, 0.0],
    [0.0, 0.0, 0.0, 1.0]
],
  "dcmmeta_shape": [106, 106, 44, 264],
  "dcmmeta_slice_dim": 2,
  "dcmmeta_version": 0.6,
  "global": {
    "const": {
      "AcquisitionMatrix": [106, 0, 0, 106],
      "AngioFlag": "N",
      "BitsAllocated": 16,
      "BitsStored": 16,
      "BodyPartExamined": "BRAIN",
      "CardiacNumberOfImages": 1,
      "Columns": 742,
      "EchoNumbers": 1,
      "EchoTime": 30.0,
      "EchoTrainLength": 80,
      "FlipAngle": 62.0,
      "HighBit": 15,
      "ImageOrientationPatient": [1.0, 0.0, 0.0, 0.0, 0.95212939539477, -0.3056952967011],
      "ImagePositionPatient": [-742.0, -741.76927606187, 193.61388164881],
      "ImageType": [
        "ORIGINAL",
        "PRIMARY",
        "M",
        "MB",
        "ND",
        "MOSAIC"
],
      "ImagedNucleus": "1H",
      "ImagingFrequency": 123.243658,
      "InPlanePhaseEncodingDirection": "COL",
      "MRAcquisitionType": "2D",
      "MagneticFieldStrength": 3.0,
      "Manufacturer": "SIEMENS",
      "ManufacturerModelName": "Prisma",
      "Modality": "MR",
      "NominalInterval": 0,
      "NumberOfAverages": 1.0,
      "NumberOfPhaseEncodingSteps": 80,
      "PercentPhaseFieldOfView": 100.0,
      "PercentSampling": 100.0,
      "PerformedProcedureStepStartTime": "175713.948000",
      "PhotometricInterpretation": "MONOCHROME2",
      "PixelBandwidth": 1815.0,
      "PixelRepresentation": 0,
      "PixelSpacing": [2.0, 2.0],
      "ProtocolName": "func-bold_task-tono_run-02",
      "RepetitionTime": 1000.0,
      "Rows": 742,
      "SAR": 0.03938413314689,
      "SamplesPerPixel": 1,
      "ScanOptions": [
        "PFP",
        "FS",
        "EXT"
],
      "ScanningSequence": "EP",
      "SequenceName": "epfid2d1_106",
      "SequenceVariant": [
        "SK",
        "SS"
],
      "SeriesDescription": "func-bold_task-tono_run-02",
      "SeriesNumber": 22,
      "SeriesTime": "190537.851000",
      "SliceLocation": -42.409910855191,
      "SliceThickness": 2.0,
      "SmallestImagePixelValue": 0,
      "SoftwareVersions": "syngo MR E11",
      "SpacingBetweenSlices": 2.0000000204835,
      "SpecificCharacterSet": "ISO_IR 100",
      "StudyID": "1",
      "StudyTime": "175713.819000",
      "TransmitCoilName": "Body",
      "VariableFlipAngleFlag": "N",
      "WindowCenterWidthExplanation": "Algo1",
      "dBdt": 0.0},
    "slices": {}
  },
  "time": {
    "samples": {
      "AcquisitionNumber": [1, 2, 3, 4, 5, 6, 7, 8, 9, 10, 11, 12, 13, 14, 15, 16, 17, 18, 19, 20, 21, 22, 23, 24, 25, 26, 27, 28, 29, 30, 31, 32, 33, 34, 35, 36, 37, 38, 39, 40, 41, 42, 43, 44, 45, 46, 47, 48, 49, 50, 51, 52, 53, 54, 55, 56, 57, 58, 59, 60, 61, 62, 63, 64, 65, 66, 67, 68, 69, 70, 71, 72, 73, 74, 75, 76, 77, 78, 79, 80, 81, 82, 83, 84, 85, 86, 87, 88, 89, 90, 91, 92, 93, 94, 95, 96, 97, 98, 99, 100, 101, 102, 103, 104, 105, 106, 107, 108, 109, 110, 111, 112, 113, 114, 115, 116, 117, 118, 119, 120, 121, 122, 123, 124, 125, 126, 127, 128, 129, 130, 131, 132, 133, 134, 135, 136, 137, 138, 139, 140, 141, 142, 143, 144, 145, 146, 147, 148, 149, 150, 151, 152, 153, 154, 155, 156, 157, 158, 159, 160, 161, 162, 163, 164, 165, 166, 167, 168, 169, 170, 171, 172, 173, 174, 175, 176, 177, 178, 179, 180, 181, 182, 183, 184, 185, 186, 187, 188, 189, 190, 191, 192, 193, 194, 195, 196, 197, 198, 199, 200, 201, 202, 203, 204, 205, 206, 207, 208, 209, 210, 211, 212, 213, 214, 215, 216, 217, 218, 219, 220, 221, 222, 223, 224, 225, 226, 227, 228, 229, 230, 231, 232, 233, 234, 235, 236, 237, 238, 239, 240, 241, 242, 243, 244, 245, 246, 247, 248, 249, 250, 251, 252, 253, 254, 255, 256, 257, 258, 259, 260, 261, 262, 263, 264],
      "AcquisitionTime": ["190506.657500", "190507.657500", "190508.657500", "190509.657500", "190510.657500", "190511.657500", "190512.657500", "190513.657500", "190514.657500", "190515.657500", "190516.657500", "190517.657500", "190518.657500", "190519.657500", "190520.657500", "190521.657500", "190522.657500", "190523.657500", "190524.657500", "190525.657500", "190526.657500", "190527.657500", "190528.657500", "190529.657500", "190530.657500", "190531.657500", "190532.657500", "190533.657500", "190534.657500", "190535.657500", "190536.657500", "190537.657500", "190538.657500", "190539.657500", "190540.657500", "190541.657500", "190542.657500", "190543.657500", "190544.657500", "190545.657500", "190546.657500", "190547.657500", "190548.657500", "190549.657500", "190550.657500", "190551.657500", "190552.657500", "190553.657500", "190554.657500", "190555.657500", "190556.657500", "190557.657500", "190558.657500", "190559.657500", "190600.657500", "190601.657500", "190602.657500", "190603.657500", "190604.657500", "190605.657500", "190606.657500", "190607.657500", "190608.657500", "190609.657500", "190610.657500", "190611.657500", "190612.657500", "190613.657500", "190614.657500", "190615.657500", "190616.657500", "190617.657500", "190618.657500", "190619.657500", "190620.657500", "190621.657500", "190622.657500", "190623.657500", "190624.657500", "190625.657500", "190626.657500", "190627.657500", "190628.657500", "190629.657500", "190630.657500", "190631.657500", "190632.657500", "190633.657500", "190634.657500", "190635.657500", "190636.657500", "190637.657500", "190638.657500", "190639.657500", "190640.657500", "190641.657500", "190642.657500", "190643.657500", "190644.657500", "190645.657500", "190646.657500", "190647.657500", "190648.657500", "190649.657500", "190650.657500", "190651.657500", "190652.657500", "190653.657500", "190654.657500", "190655.657500", "190656.657500", "190657.657500", "190658.657500", "190659.657500", "190700.657500", "190701.657500", "190702.657500", "190703.657500", "190704.657500", "190705.657500", "190706.657500", "190707.657500", "190708.657500", "190709.657500", "190710.657500", "190711.657500", "190712.657500", "190713.657500", "190714.657500", "190715.657500", "190716.657500", "190717.657500", "190718.657500", "190719.657500", "190720.657500", "190721.657500", "190722.657500", "190723.657500", "190724.657500", "190725.657500", "190726.657500", "190727.657500", "190728.657500", "190729.657500", "190730.657500", "190731.657500", "190732.657500", "190733.657500", "190734.657500", "190735.657500", "190736.657500", "190737.657500", "190738.657500", "190739.657500", "190740.657500", "190741.657500", "190742.657500", "190743.657500", "190744.657500", "190745.657500", "190746.657500", "190747.657500", "190748.657500", "190749.657500", "190750.657500", "190751.657500", "190752.657500", "190753.657500", "190754.657500", "190755.657500", "190756.657500", "190757.657500", "190758.657500", "190759.657500", "190800.657500", "190801.657500", "190802.657500", "190803.657500", "190804.657500", "190805.657500", "190806.657500", "190807.657500", "190808.657500", "190809.657500", "190810.657500", "190811.657500", "190812.657500", "190813.657500", "190814.657500", "190815.657500", "190816.657500", "190817.657500", "190818.657500", "190819.657500", "190820.657500", "190821.657500", "190822.657500", "190823.657500", "190824.657500", "190825.657500", "190826.657500", "190827.657500", "190828.657500", "190829.657500", "190830.657500", "190831.657500", "190832.657500", "190833.657500", "190834.657500", "190835.657500", "190836.657500", "190837.657500", "190838.657500", "190839.657500", "190840.657500", "190841.657500", "190842.657500", "190843.657500", "190844.657500", "190845.657500", "190846.657500", "190847.657500", "190848.657500", "190849.657500", "190850.657500", "190851.657500", "190852.657500", "190853.657500", "190854.657500", "190855.657500", "190856.657500", "190857.657500", "190858.657500", "190859.657500", "190900.657500", "190901.657500", "190902.657500", "190903.657500", "190904.657500", "190905.657500", "190906.657500", "190907.657500", "190908.657500", "190909.657500", "190910.657500", "190911.657500", "190912.657500", "190913.657500", "190914.657500", "190915.657500", "190916.657500", "190917.657500", "190918.657500", "190919.657500", "190920.657500", "190921.657500", "190922.657500", "190923.657500", "190924.657500", "190925.657500", "190926.657500", "190927.657500", "190928.657500", "190929.657500"],
      "ContentTime": ["190537.854000", "190537.857000", "190537.860000", "190537.862000", "190537.869000", "190537.871000", "190537.874000", "190537.876000", "190537.881000", "190537.884000", "190537.887000", "190537.889000", "190537.891000", "190537.894000", "190537.896000", "190537.899000", "190537.901000", "190537.904000", "190537.906000", "190537.909000", "190537.912000", "190537.914000", "190537.917000", "190537.919000", "190537.922000", "190537.925000", "190537.927000", "190537.930000", "190537.933000", "190537.935000", "190557.818000", "190557.821000", "190557.824000", "190557.827000", "190557.829000", "190557.832000", "190557.843000", "190557.845000", "190557.848000", "190557.850000", "190557.853000", "190557.855000", "190557.858000", "190557.860000", "190557.863000", "190557.866000", "190557.868000", "190557.871000", "190557.874000", "190557.876000", "190617.818000", "190617.821000", "190617.824000", "190617.826000", "190617.829000", "190617.831000", "190617.834000", "190617.836000", "190617.839000", "190617.841000", "190617.843000", "190617.846000", "190617.848000", "190617.851000", "190617.853000", "190617.856000", "190617.858000", "190617.869000", "190617.871000", "190617.874000", "190637.818000", "190637.859000", "190637.861000", "190637.864000", "190637.866000", "190637.869000", "190637.876000", "190637.878000", "190637.881000", "190637.883000", "190637.885000", "190637.888000", "190637.890000", "190637.893000", "190637.895000", "190637.898000", "190637.900000", "190637.903000", "190637.905000", "190637.908000", "190657.818000", "190657.821000", "190657.824000", "190657.827000", "190657.829000", "190657.832000", "190657.835000", "190657.837000", "190657.840000", "190657.843000", "190657.845000", "190657.848000", "190657.850000", "190657.853000", "190657.855000", "190657.858000", "190657.861000", "190657.863000", "190657.866000", "190657.868000", "190717.819000", "190717.834000", "190717.836000", "190717.839000", "190717.842000", "190717.844000", "190717.857000", "190717.860000", "190717.863000", "190717.865000", "190717.868000", "190717.870000", "190717.873000", "190717.875000", "190717.878000", "190717.880000", "190717.883000", "190717.885000", "190717.888000", "190717.890000", "190737.819000", "190737.821000", "190737.824000", "190737.826000", "190737.829000", "190737.831000", "190737.834000", "190737.836000", "190737.839000", "190737.841000", "190737.844000", "190737.846000", "190737.849000", "190737.851000", "190737.854000", "190737.856000", "190737.859000", "190737.869000", "190737.871000", "190737.874000", "190757.818000", "190757.828000", "190757.830000", "190757.833000", "190757.835000", "190757.838000", "190757.840000", "190757.843000", "190757.845000", "190757.848000", "190757.850000", "190757.853000", "190757.855000", "190757.858000", "190757.860000", "190757.863000", "190757.865000", "190757.868000", "190757.870000", "190757.873000", "190817.818000", "190817.821000", "190817.824000", "190817.826000", "190817.829000", "190817.832000", "190817.834000", "190817.837000", "190817.840000", "190817.843000", "190817.845000", "190817.848000", "190817.850000", "190817.853000", "190817.855000", "190817.858000", "190817.860000", "190817.863000", "190817.866000", "190817.868000", "190837.819000", "190837.821000", "190837.824000", "190837.827000", "190837.829000", "190837.832000", "190837.834000", "190837.837000", "190837.840000", "190837.843000", "190837.845000", "190837.848000", "190837.851000", "190837.853000", "190837.856000", "190837.859000", "190837.861000", "190837.864000", "190837.867000", "190837.869000", "190857.819000", "190857.821000", "190857.824000", "190857.826000", "190857.829000", "190857.831000", "190857.833000", "190857.836000", "190857.838000", "190857.841000", "190857.843000", "190857.846000", "190857.848000", "190857.851000", "190857.853000", "190857.855000", "190857.858000", "190857.861000", "190857.863000", "190857.866000", "190917.818000", "190917.821000", "190917.824000", "190917.826000", "190917.829000", "190917.831000", "190917.833000", "190917.836000", "190917.838000", "190917.841000", "190917.843000", "190917.846000", "190917.848000", "190917.851000", "190917.853000", "190917.856000", "190917.858000", "190917.861000", "190917.863000", "190917.865000", "190931.247000", "190931.251000", "190931.254000", "190931.257000", "190931.260000", "190931.263000", "190931.269000", "190931.272000", "190931.274000", "190931.277000", "190931.280000", "190931.283000", "190931.286000", "190931.289000"],
      "InstanceCreationTime": ["190537.854000", "190537.857000", "190537.860000", "190537.862000", "190537.869000", "190537.871000", "190537.874000", "190537.876000", "190537.881000", "190537.884000", "190537.887000", "190537.889000", "190537.891000", "190537.894000", "190537.896000", "190537.899000", "190537.901000", "190537.904000", "190537.906000", "190537.909000", "190537.912000", "190537.914000", "190537.917000", "190537.919000", "190537.922000", "190537.925000", "190537.927000", "190537.930000", "190537.933000", "190537.935000", "190557.818000", "190557.821000", "190557.824000", "190557.827000", "190557.829000", "190557.832000", "190557.843000", "190557.845000", "190557.848000", "190557.850000", "190557.853000", "190557.855000", "190557.858000", "190557.860000", "190557.863000", "190557.866000", "190557.868000", "190557.871000", "190557.874000", "190557.876000", "190617.818000", "190617.821000", "190617.824000", "190617.826000", "190617.829000", "190617.831000", "190617.834000", "190617.836000", "190617.839000", "190617.841000", "190617.843000", "190617.846000", "190617.848000", "190617.851000", "190617.853000", "190617.856000", "190617.858000", "190617.869000", "190617.871000", "190617.874000", "190637.818000", "190637.859000", "190637.861000", "190637.864000", "190637.866000", "190637.869000", "190637.876000", "190637.878000", "190637.881000", "190637.883000", "190637.885000", "190637.888000", "190637.890000", "190637.893000", "190637.895000", "190637.898000", "190637.900000", "190637.903000", "190637.905000", "190637.908000", "190657.818000", "190657.821000", "190657.824000", "190657.827000", "190657.829000", "190657.832000", "190657.835000", "190657.837000", "190657.840000", "190657.843000", "190657.845000", "190657.848000", "190657.850000", "190657.853000", "190657.855000", "190657.858000", "190657.861000", "190657.863000", "190657.866000", "190657.868000", "190717.819000", "190717.834000", "190717.836000", "190717.839000", "190717.842000", "190717.844000", "190717.857000", "190717.860000", "190717.863000", "190717.865000", "190717.868000", "190717.870000", "190717.873000", "190717.875000", "190717.878000", "190717.880000", "190717.883000", "190717.885000", "190717.888000", "190717.890000", "190737.819000", "190737.821000", "190737.824000", "190737.826000", "190737.829000", "190737.831000", "190737.834000", "190737.836000", "190737.839000", "190737.841000", "190737.844000", "190737.846000", "190737.849000", "190737.851000", "190737.854000", "190737.856000", "190737.859000", "190737.869000", "190737.871000", "190737.874000", "190757.818000", "190757.828000", "190757.830000", "190757.833000", "190757.835000", "190757.838000", "190757.840000", "190757.843000", "190757.845000", "190757.848000", "190757.850000", "190757.853000", "190757.855000", "190757.858000", "190757.860000", "190757.863000", "190757.865000", "190757.868000", "190757.870000", "190757.873000", "190817.818000", "190817.821000", "190817.824000", "190817.826000", "190817.829000", "190817.832000", "190817.834000", "190817.837000", "190817.840000", "190817.843000", "190817.845000", "190817.848000", "190817.850000", "190817.853000", "190817.855000", "190817.858000", "190817.860000", "190817.863000", "190817.866000", "190817.868000", "190837.819000", "190837.821000", "190837.824000", "190837.827000", "190837.829000", "190837.832000", "190837.834000", "190837.837000", "190837.840000", "190837.843000", "190837.845000", "190837.848000", "190837.851000", "190837.853000", "190837.856000", "190837.859000", "190837.861000", "190837.864000", "190837.867000", "190837.869000", "190857.819000", "190857.821000", "190857.824000", "190857.826000", "190857.829000", "190857.831000", "190857.833000", "190857.836000", "190857.838000", "190857.841000", "190857.843000", "190857.846000", "190857.848000", "190857.851000", "190857.853000", "190857.855000", "190857.858000", "190857.861000", "190857.863000", "190857.866000", "190917.818000", "190917.821000", "190917.824000", "190917.826000", "190917.829000", "190917.831000", "190917.833000", "190917.836000", "190917.838000", "190917.841000", "190917.843000", "190917.846000", "190917.848000", "190917.851000", "190917.853000", "190917.856000", "190917.858000", "190917.861000", "190917.863000", "190917.865000", "190931.247000", "190931.251000", "190931.254000", "190931.257000", "190931.260000", "190931.263000", "190931.269000", "190931.272000", "190931.274000", "190931.277000", "190931.280000", "190931.283000", "190931.286000", "190931.289000"],
      "InstanceNumber": [1, 2, 3, 4, 5, 6, 7, 8, 9, 10, 11, 12, 13, 14, 15, 16, 17, 18, 19, 20, 21, 22, 23, 24, 25, 26, 27, 28, 29, 30, 31, 32, 33, 34, 35, 36, 37, 38, 39, 40, 41, 42, 43, 44, 45, 46, 47, 48, 49, 50, 51, 52, 53, 54, 55, 56, 57, 58, 59, 60, 61, 62, 63, 64, 65, 66, 67, 68, 69, 70, 71, 72, 73, 74, 75, 76, 77, 78, 79, 80, 81, 82, 83, 84, 85, 86, 87, 88, 89, 90, 91, 92, 93, 94, 95, 96, 97, 98, 99, 100, 101, 102, 103, 104, 105, 106, 107, 108, 109, 110, 111, 112, 113, 114, 115, 116, 117, 118, 119, 120, 121, 122, 123, 124, 125, 126, 127, 128, 129, 130, 131, 132, 133, 134, 135, 136, 137, 138, 139, 140, 141, 142, 143, 144, 145, 146, 147, 148, 149, 150, 151, 152, 153, 154, 155, 156, 157, 158, 159, 160, 161, 162, 163, 164, 165, 166, 167, 168, 169, 170, 171, 172, 173, 174, 175, 176, 177, 178, 179, 180, 181, 182, 183, 184, 185, 186, 187, 188, 189, 190, 191, 192, 193, 194, 195, 196, 197, 198, 199, 200, 201, 202, 203, 204, 205, 206, 207, 208, 209, 210, 211, 212, 213, 214, 215, 216, 217, 218, 219, 220, 221, 222, 223, 224, 225, 226, 227, 228, 229, 230, 231, 232, 233, 234, 235, 236, 237, 238, 239, 240, 241, 242, 243, 244, 245, 246, 247, 248, 249, 250, 251, 252, 253, 254, 255, 256, 257, 258, 259, 260, 261, 262, 263, 264],
      "LargestImagePixelValue": [11811, 11477, 11411, 11289, 11167, 11223, 11232, 11095, 11059, 10968, 10950, 10935, 11026, 21017, 15849, 13220, 12430, 11812, 11538, 11503, 11406, 11444, 11487, 11665, 11499, 11432, 11375, 11429, 11436, 11499, 11421, 11531, 11636, 11691, 11522, 11690, 11774, 12431, 12070, 11898, 11797, 11668, 11587, 11569, 11549, 11546, 11453, 11391, 11405, 11263, 11332, 11509, 11483, 11387, 11573, 11508, 11527, 11404, 11436, 11493, 11495, 11419, 11553, 11544, 11499, 11405, 11509, 11520, 11478, 11608, 11626, 11646, 11501, 11608, 11536, 11532, 11475, 11550, 11390, 11399, 11410, 11394, 11494, 11283, 11477, 11420, 11387, 11196, 11490, 11611, 11666, 11538, 11231, 11363, 11287, 11274, 11222, 14852, 11917, 11967, 11262, 11529, 11553, 12086, 11545, 11522, 11677, 11549, 11719, 11799, 11839, 11743, 11768, 11824, 11743, 11746, 11819, 11809, 11667, 11664, 12327, 11792, 11569, 11670, 11556, 11658, 11494, 11577, 11583, 11558, 11601, 11748, 11622, 11605, 11487, 11602, 11664, 11520, 11589, 11627, 11581, 11456, 11551, 11602, 11393, 11561, 11590, 11670, 11599, 11566, 11661, 11491, 11618, 11634, 11507, 11537, 11628, 11791, 11462, 11848, 11797, 11646, 11681, 11798, 11646, 11632, 11630, 11689, 11662, 11505, 11568, 11616, 11304, 12824, 11411, 11452, 11383, 11226, 11256, 11239, 11321, 11199, 11353, 11348, 11211, 11068, 11293, 11380, 11220, 11163, 11325, 11396, 11281, 11137, 11479, 12729, 11669, 11494, 11441, 11337, 11439, 11373, 11151, 11320, 11466, 11360, 11312, 11376, 11604, 11398, 11317, 11347, 11362, 11247, 11392, 11542, 11414, 11322, 11633, 11486, 11501, 11423, 11502, 11484, 11501, 11330, 11312, 11111, 11143, 11272, 11243, 11304, 11414, 11373, 11330, 11398, 11357, 11248, 11227, 11299, 11257, 11204, 11161, 11196, 11297, 11282, 11179, 11168, 11329, 11410, 11191, 11192, 11221, 11240, 11209, 11360, 11227, 11301, 11169, 11210, 11364, 11310, 11365, 11277],
      "TriggerTime": [8102.5, 9102.5, 10102.5, 11102.5, 12102.5, 13102.5, 14102.5, 15102.5, 16102.5, 17102.5, 18102.5, 19102.5, 20102.5, 21102.5, 22102.5, 23102.5, 24102.5, 25102.5, 26102.5, 27102.5, 28102.5, 29102.5, 30102.5, 31102.5, 32102.5, 33102.5, 34102.5, 35102.5, 36102.5, 37102.5, 38102.5, 39102.5, 40102.5, 41102.5, 42102.5, 43102.5, 44102.5, 45102.5, 46102.5, 47102.5, 48102.5, 49102.5, 50102.5, 51102.5, 52102.5, 53102.5, 54102.5, 55102.5, 56102.5, 57102.5, 58102.5, 59102.5, 60102.5, 61102.5, 62102.5, 63102.5, 64102.5, 65102.5, 66102.5, 67102.5, 68102.5, 69102.5, 70102.5, 71102.5, 72102.5, 73102.5, 74102.5, 75102.5, 76102.5, 77102.5, 78102.5, 79102.5, 80102.5, 81102.5, 82102.5, 83102.5, 84102.5, 85102.5, 86102.5, 87102.5, 88102.5, 89102.5, 90102.5, 91102.5, 92102.5, 93102.5, 94102.5, 95102.5, 96102.5, 97102.5, 98102.5, 99102.5, 100102.5, 101102.5, 102102.5, 103102.5, 104102.5, 105102.5, 106102.5, 107102.5, 108102.5, 109102.5, 110102.5, 111102.5, 112102.5, 113102.5, 114102.5, 115102.5, 116102.5, 117102.5, 118102.5, 119102.5, 120102.5, 121102.5, 122102.5, 123102.5, 124102.5, 125102.5, 126102.5, 127102.5, 128102.5, 129102.5, 130102.5, 131102.5, 132102.5, 133102.5, 134102.5, 135102.5, 136102.5, 137102.5, 138102.5, 139102.5, 140102.5, 141102.5, 142102.5, 143102.5, 144102.5, 145102.5, 146102.5, 147102.5, 148102.5, 149102.5, 150102.5, 151102.5, 152102.5, 153102.5, 154102.5, 155102.5, 156102.5, 157102.5, 158102.5, 159102.5, 160102.5, 161102.5, 162102.5, 163102.5, 164102.5, 165102.5, 166102.5, 167102.5, 168102.5, 169102.5, 170102.5, 171102.5, 172102.5, 173102.5, 174102.5, 175102.5, 176102.5, 177102.5, 178102.5, 179102.5, 180102.5, 181102.5, 182102.5, 183102.5, 184102.5, 185102.5, 186102.5, 187102.5, 188102.5, 189102.5, 190102.5, 191102.5, 192102.5, 193102.5, 194102.5, 195102.5, 196102.5, 197102.5, 198102.5, 199102.5, 200102.5, 201102.5, 202102.5, 203102.5, 204102.5, 205102.5, 206102.5, 207102.5, 208102.5, 209102.5, 210102.5, 211102.5, 212102.5, 213102.5, 214102.5, 215102.5, 216102.5, 217102.5, 218102.5, 219102.5, 220102.5, 221102.5, 222102.5, 223102.5, 224102.5, 225102.5, 226102.5, 227102.5, 228102.5, 229102.5, 230102.5, 231102.5, 232102.5, 233102.5, 234102.5, 235102.5, 236102.5, 237102.5, 238102.5, 239102.5, 240102.5, 241102.5, 242102.5, 243102.5, 244102.5, 245102.5, 246102.5, 247102.5, 248102.5, 249102.5, 250102.5, 251102.5, 252102.5, 253102.5, 254102.5, 255102.5, 256102.5, 257102.5, 258102.5, 259102.5, 260102.5, 261102.5, 262102.5, 263102.5, 264102.5, 265102.5, 266102.5, 267102.5, 268102.5, 269102.5, 270102.5, 271102.5],
      "WindowCenter": [4336.0, 4328.0, 4321.0, 4307.0, 4306.0, 4303.0, 4315.0, 4314.0, 4320.0, 4304.0, 4309.0, 4310.0, 4309.0, 4420.0, 4394.0, 4347.0, 4351.0, 4340.0, 4334.0, 4333.0, 4333.0, 4332.0, 4332.0, 4332.0, 4329.0, 4334.0, 4330.0, 4331.0, 4343.0, 4342.0, 4345.0, 4342.0, 4332.0, 4341.0, 4331.0, 4343.0, 4337.0, 4351.0, 4354.0, 4341.0, 4341.0, 4329.0, 4331.0, 4329.0, 4330.0, 4341.0, 4342.0, 4343.0, 4332.0, 4333.0, 4334.0, 4329.0, 4331.0, 4332.0, 4327.0, 4333.0, 4334.0, 4343.0, 4335.0, 4331.0, 4332.0, 4335.0, 4332.0, 4330.0, 4332.0, 4335.0, 4330.0, 4316.0, 4320.0, 4318.0, 4318.0, 4314.0, 4318.0, 4327.0, 4327.0, 4326.0, 4328.0, 4332.0, 4329.0, 4329.0, 4330.0, 4333.0, 4336.0, 4331.0, 4341.0, 4330.0, 4330.0, 4334.0, 4345.0, 4345.0, 4346.0, 4331.0, 4320.0, 4329.0, 4317.0, 4320.0, 4318.0, 4358.0, 4330.0, 4316.0, 4301.0, 4312.0, 4284.0, 4337.0, 4314.0, 4309.0, 4313.0, 4314.0, 4327.0, 4337.0, 4340.0, 4337.0, 4341.0, 4337.0, 4342.0, 4342.0, 4339.0, 4341.0, 4329.0, 4339.0, 4352.0, 4341.0, 4329.0, 4327.0, 4323.0, 4324.0, 4328.0, 4329.0, 4329.0, 4314.0, 4329.0, 4323.0, 4324.0, 4315.0, 4323.0, 4312.0, 4315.0, 4313.0, 4314.0, 4316.0, 4325.0, 4328.0, 4329.0, 4328.0, 4325.0, 4326.0, 4327.0, 4317.0, 4314.0, 4319.0, 4314.0, 4315.0, 4329.0, 4328.0, 4316.0, 4320.0, 4323.0, 4325.0, 4316.0, 4324.0, 4349.0, 4342.0, 4342.0, 4338.0, 4325.0, 4314.0, 4312.0, 4313.0, 4310.0, 4313.0, 4316.0, 4315.0, 4320.0, 4348.0, 4316.0, 4317.0, 4314.0, 4306.0, 4309.0, 4316.0, 4317.0, 4317.0, 4320.0, 4318.0, 4314.0, 4310.0, 4311.0, 4314.0, 4315.0, 4321.0, 4318.0, 4330.0, 4320.0, 4320.0, 4307.0, 4365.0, 4330.0, 4327.0, 4331.0, 4324.0, 4332.0, 4329.0, 4319.0, 4322.0, 4331.0, 4327.0, 4322.0, 4329.0, 4319.0, 4319.0, 4320.0, 4320.0, 4328.0, 4321.0, 4334.0, 4335.0, 4332.0, 4335.0, 4345.0, 4338.0, 4331.0, 4316.0, 4317.0, 4314.0, 4318.0, 4308.0, 4306.0, 4305.0, 4301.0, 4294.0, 4291.0, 4292.0, 4299.0, 4302.0, 4301.0, 4317.0, 4305.0, 4312.0, 4322.0, 4317.0, 4320.0, 4320.0, 4320.0, 4322.0, 4317.0, 4321.0, 4318.0, 4321.0, 4319.0, 4333.0, 4333.0, 4333.0, 4319.0, 4318.0, 4320.0, 4319.0, 4319.0, 4309.0, 4319.0, 4305.0, 4315.0, 4306.0, 4315.0, 4307.0],
