{
  "AcquisitionMatrixPE": 106,
  "AcquisitionNumber": 1,
  "AcquisitionTime": "13:40:35.635000",
  "BandwidthPerPixelPhaseEncode": 16.846,
  "BaseResolution": 106,
  "BodyPartExamined": "BRAIN",
  "CoilCombinationMethod": "Sum of Squares",
  "ConsistencyInfo": "N4_VE11C_LATEST_20160120",
  "ConversionSoftware": "dcm2niix",
  "ConversionSoftwareVersion": "v1.0.20220720",
  "DerivedVendorReportedEchoSpacing": 0.000560012,
  "DeviceSerialNumber": "166108",
  "DwellTime": 1.8e-06,
  "EchoTime": 0.0352,
  "EchoTrainLength": 106,
  "EffectiveEchoSpacing": 0.000560012,
  "FlipAngle": 60,
  "HeudiconvVersion": "1.3.0",
  "ImageComments": "Unaliased MB4/PE3/LB",
  "ImageOrientationPatientDICOM": [1, 0, 0, 0, 0.910684, -0.413104],
  "ImageOrientationText": "Tra>Cor(-24.4)",
  "ImageType": [
    "ORIGINAL",
    "PRIMARY",
    "M",
    "MB",
    "ND",
    "MOSAIC"
],
  "ImagingFrequency": 123.244,
  "InPlanePhaseEncodingDirectionDICOM": "COL",
  "InstitutionAddress": "Bedford Way 26,London,London,GB,WC1H 0AP",
  "InstitutionName": "University College",
  "InstitutionalDepartmentName": "Department",
  "MRAcquisitionType": "2D",
  "MagneticFieldStrength": 3,
  "Manufacturer": "Siemens",
  "ManufacturersModelName": "Prisma",
  "MatrixCoilMode": "SENSE",
  "Modality": "MR",
  "MultibandAccelerationFactor": 4,
  "NonlinearGradientCorrection": false,
  "PartialFourier": 1,
  "PatientPosition": "HFS",
  "PercentPhaseFOV": 100,
  "PercentSampling": 100,
  "PhaseEncodingDirection": "j-",
  "PhaseEncodingSteps": 106,
  "PhaseResolution": 1,
  "PixelBandwidth": 2620,
  "ProcedureStepDescription": "Egor^MovieProject2",
  "ProtocolName": "func-bold_task-pRF_run-02",
  "PulseSequenceDetails": "%CustomerSeq%\\cmrr_mbep2d_bold",
  "ReceiveCoilActiveElements": "HEA;HEP",
  "ReceiveCoilName": "Head_32",
  "ReconMatrixPE": 106,
  "RepetitionTime": 1,
  "SAR": 0.0855757,
  "ScanOptions": "FS\\EXT",
  "ScanningSequence": "EP",
  "SequenceName": "epfid2d1_106",
  "SequenceVariant": "SK\\SS",
  "SeriesDescription": "func-bold_task-pRF_run-02",
  "SeriesNumber": 12,
  "ShimSetting": [-1541, 625, 7435, 356, -58, 97, 54, -72],
  "SliceThickness": 2,
  "SliceTiming": [0, 0.4075, 0.8175, 0.245, 0.6525, 0.0825, 0.49, 0.8975, 0.3275, 0.735, 0.1625, 0.5725, 0, 0.4075, 0.8175, 0.245, 0.6525, 0.0825, 0.49, 0.8975, 0.3275, 0.735, 0.1625, 0.5725, 0, 0.4075, 0.8175, 0.245, 0.6525, 0.0825, 0.49, 0.8975, 0.3275, 0.735, 0.1625, 0.5725, 0, 0.4075, 0.8175, 0.245, 0.6525, 0.0825, 0.49, 0.8975, 0.3275, 0.735, 0.1625, 0.5725],
  "SoftwareVersions": "syngo MR E11",
  "SpacingBetweenSlices": 2,
  "StationName": "AWP166108",
  "TaskName": "retinotopy",
  "TotalReadoutTime": 0.0588013,
  "TxRefAmp": 220.584,
  "WipMemBlock": "44c81cf2-10ee-4c91-9e7a-36a99b55d7b8||Sequence: R016 ve11c/master r/e634e98; Dec 19 2017 11:00:25 by eja",
  "dcmmeta_affine": [
    [-2.0, 0.0, 0.0, 106.0],
    [0.0, 1.8213672637939453, -0.8262088298797607, -76.5289306640625],
    [0.0, 0.8262088298797607, 1.8213672637939453, -51.8372802734375],
    [0.0, 0.0, 0.0, 1.0]
],
  "dcmmeta_reorient_transform": [
    [0.0, -1.0, 0.0, 105.0],
    [1.0, 0.0, 0.0, 0.0],
    [0.0, 0.0, 1.0, 0.0],
    [0.0, 0.0, 0.0, 1.0]
],
  "dcmmeta_shape": [106, 106, 48, 356],
  "dcmmeta_slice_dim": 2,
  "dcmmeta_version": 0.6,
  "global": {
    "const": {
      "AcquisitionMatrix": [106, 0, 0, 106],
      "AngioFlag": "N",
      "BitsAllocated": 16,
      "BitsStored": 16,
      "BodyPartExamined": "BRAIN",
      "CardiacNumberOfImages": 1,
      "Columns": 742,
      "EchoNumbers": 1,
      "EchoTime": 35.2,
      "EchoTrainLength": 106,
      "FlipAngle": 60.0,
      "HighBit": 15,
      "ImageOrientationPatient": [1.0, 0.0, 0.0, 0.0, 0.91068366101552, -0.413104429363],
      "ImagePositionPatient": [-742.0, -693.90944924878, 297.64906546769],
      "ImageType": [
        "ORIGINAL",
        "PRIMARY",
        "M",
        "MB",
        "ND",
        "MOSAIC"
],
      "ImagedNucleus": "1H",
      "ImagingFrequency": 123.243631,
      "InPlanePhaseEncodingDirection": "COL",
      "MRAcquisitionType": "2D",
      "MagneticFieldStrength": 3.0,
      "Manufacturer": "SIEMENS",
      "ManufacturerModelName": "Prisma",
      "Modality": "MR",
      "NominalInterval": 0,
      "NumberOfAverages": 1.0,
      "NumberOfPhaseEncodingSteps": 106,
      "PercentPhaseFieldOfView": 100.0,
      "PercentSampling": 100.0,
      "PerformedProcedureStepStartTime": "123743.674000",
      "PhotometricInterpretation": "MONOCHROME2",
      "PixelBandwidth": 2620.0,
      "PixelRepresentation": 0,
      "PixelSpacing": [2.0, 2.0],
      "ProtocolName": "func-bold_task-pRF_run-02",
      "RepetitionTime": 1000.0,
      "Rows": 742,
      "SAR": 0.08557568690682,
      "SamplesPerPixel": 1,
      "ScanOptions": [
        "FS",
        "EXT"
],
      "ScanningSequence": "EP",
      "SequenceName": "epfid2d1_106",
      "SequenceVariant": [
        "SK",
        "SS"
],
      "SeriesDescription": "func-bold_task-pRF_run-02",
      "SeriesNumber": 12,
      "SeriesTime": "134107.439000",
      "SliceLocation": -15.59292642358,
      "SliceThickness": 2.0,
      "SmallestImagePixelValue": 0,
      "SoftwareVersions": "syngo MR E11",
      "SpacingBetweenSlices": 1.9999999967705,
      "SpecificCharacterSet": "ISO_IR 100",
      "StudyID": "1",
      "StudyTime": "123743.529000",
      "TransmitCoilName": "Body",
      "VariableFlipAngleFlag": "N",
      "WindowCenterWidthExplanation": "Algo1",
      "dBdt": 0.0},
    "slices": {}
  },
  "time": {
    "samples": {
      "AcquisitionNumber": [1, 2, 3, 4, 5, 6, 7, 8, 9, 10, 11, 12, 13, 14, 15, 16, 17, 18, 19, 20, 21, 22, 23, 24, 25, 26, 27, 28, 29, 30, 31, 32, 33, 34, 35, 36, 37, 38, 39, 40, 41, 42, 43, 44, 45, 46, 47, 48, 49, 50, 51, 52, 53, 54, 55, 56, 57, 58, 59, 60, 61, 62, 63, 64, 65, 66, 67, 68, 69, 70, 71, 72, 73, 74, 75, 76, 77, 78, 79, 80, 81, 82, 83, 84, 85, 86, 87, 88, 89, 90, 91, 92, 93, 94, 95, 96, 97, 98, 99, 100, 101, 102, 103, 104, 105, 106, 107, 108, 109, 110, 111, 112, 113, 114, 115, 116, 117, 118, 119, 120, 121, 122, 123, 124, 125, 126, 127, 128, 129, 130, 131, 132, 133, 134, 135, 136, 137, 138, 139, 140, 141, 142, 143, 144, 145, 146, 147, 148, 149, 150, 151, 152, 153, 154, 155, 156, 157, 158, 159, 160, 161, 162, 163, 164, 165, 166, 167, 168, 169, 170, 171, 172, 173, 174, 175, 176, 177, 178, 179, 180, 181, 182, 183, 184, 185, 186, 187, 188, 189, 190, 191, 192, 193, 194, 195, 196, 197, 198, 199, 200, 201, 202, 203, 204, 205, 206, 207, 208, 209, 210, 211, 212, 213, 214, 215, 216, 217, 218, 219, 220, 221, 222, 223, 224, 225, 226, 227, 228, 229, 230, 231, 232, 233, 234, 235, 236, 237, 238, 239, 240, 241, 242, 243, 244, 245, 246, 247, 248, 249, 250, 251, 252, 253, 254, 255, 256, 257, 258, 259, 260, 261, 262, 263, 264, 265, 266, 267, 268, 269, 270, 271, 272, 273, 274, 275, 276, 277, 278, 279, 280, 281, 282, 283, 284, 285, 286, 287, 288, 289, 290, 291, 292, 293, 294, 295, 296, 297, 298, 299, 300, 301, 302, 303, 304, 305, 306, 307, 308, 309, 310, 311, 312, 313, 314, 315, 316, 317, 318, 319, 320, 321, 322, 323, 324, 325, 326, 327, 328, 329, 330, 331, 332, 333, 334, 335, 336, 337, 338, 339, 340, 341, 342, 343, 344, 345, 346, 347, 348, 349, 350, 351, 352, 353, 354, 355, 356],
      "AcquisitionTime": ["134035.635000", "134036.635000", "134037.635000", "134038.635000", "134039.635000", "134040.635000", "134041.635000", "134042.635000", "134043.635000", "134044.635000", "134045.635000", "134046.635000", "134047.635000", "134048.635000", "134049.635000", "134050.635000", "134051.635000", "134052.635000", "134053.635000", "134054.635000", "134055.635000", "134056.635000", "134057.635000", "134058.635000", "134059.635000", "134100.635000", "134101.635000", "134102.635000", "134103.635000", "134104.635000", "134105.635000", "134106.635000", "134107.635000", "134108.635000", "134109.635000", "134110.635000", "134111.635000", "134112.635000", "134113.635000", "134114.635000", "134115.635000", "134116.635000", "134117.635000", "134118.635000", "134119.635000", "134120.635000", "134121.635000", "134122.635000", "134123.635000", "134124.635000", "134125.635000", "134126.635000", "134127.635000", "134128.635000", "134129.635000", "134130.635000", "134131.635000", "134132.635000", "134133.635000", "134134.635000", "134135.635000", "134136.635000", "134137.635000", "134138.635000", "134139.635000", "134140.635000", "134141.635000", "134142.635000", "134143.635000", "134144.635000", "134145.635000", "134146.635000", "134147.635000", "134148.635000", "134149.635000", "134150.635000", "134151.635000", "134152.635000", "134153.635000", "134154.635000", "134155.635000", "134156.635000", "134157.635000", "134158.635000", "134159.635000", "134200.635000", "134201.635000", "134202.635000", "134203.635000", "134204.635000", "134205.635000", "134206.635000", "134207.635000", "134208.635000", "134209.635000", "134210.635000", "134211.635000", "134212.635000", "134213.635000", "134214.635000", "134215.635000", "134216.635000", "134217.635000", "134218.635000", "134219.635000", "134220.635000", "134221.635000", "134222.635000", "134223.635000", "134224.635000", "134225.635000", "134226.635000", "134227.635000", "134228.635000", "134229.635000", "134230.635000", "134231.635000", "134232.635000", "134233.635000", "134234.635000", "134235.635000", "134236.635000", "134237.635000", "134238.635000", "134239.635000", "134240.635000", "134241.635000", "134242.635000", "134243.635000", "134244.635000", "134245.635000", "134246.635000", "134247.635000", "134248.635000", "134249.635000", "134250.635000", "134251.635000", "134252.635000", "134253.635000", "134254.635000", "134255.635000", "134256.635000", "134257.635000", "134258.635000", "134259.635000", "134300.635000", "134301.635000", "134302.635000", "134303.635000", "134304.635000", "134305.635000", "134306.635000", "134307.635000", "134308.635000", "134309.635000", "134310.635000", "134311.635000", "134312.635000", "134313.635000", "134314.635000", "134315.635000", "134316.635000", "134317.635000", "134318.635000", "134319.635000", "134320.635000", "134321.635000", "134322.635000", "134323.635000", "134324.635000", "134325.635000", "134326.635000", "134327.635000", "134328.635000", "134329.635000", "134330.635000", "134331.635000", "134332.635000", "134333.635000", "134334.635000", "134335.635000", "134336.635000", "134337.635000", "134338.635000", "134339.635000", "134340.635000", "134341.635000", "134342.635000", "134343.635000", "134344.635000", "134345.635000", "134346.635000", "134347.635000", "134348.635000", "134349.635000", "134350.635000", "134351.635000", "134352.635000", "134353.635000", "134354.635000", "134355.635000", "134356.635000", "134357.635000", "134358.635000", "134359.635000", "134400.635000", "134401.635000", "134402.635000", "134403.635000", "134404.635000", "134405.635000", "134406.635000", "134407.635000", "134408.635000", "134409.635000", "134410.635000", "134411.635000", "134412.635000", "134413.635000", "134414.635000", "134415.635000", "134416.635000", "134417.635000", "134418.635000", "134419.635000", "134420.635000", "134421.635000", "134422.635000", "134423.635000", "134424.635000", "134425.635000", "134426.635000", "134427.635000", "134428.635000", "134429.635000", "134430.635000", "134431.635000", "134432.635000", "134433.635000", "134434.635000", "134435.635000", "134436.635000", "134437.635000", "134438.635000", "134439.635000", "134440.635000", "134441.635000", "134442.635000", "134443.635000", "134444.635000", "134445.635000", "134446.635000", "134447.635000", "134448.635000", "134449.635000", "134450.635000", "134451.635000", "134452.635000", "134453.635000", "134454.635000", "134455.635000", "134456.635000", "134457.635000", "134458.635000", "134459.635000", "134500.635000", "134501.635000", "134502.635000", "134503.635000", "134504.635000", "134505.635000", "134506.635000", "134507.635000", "134508.635000", "134509.635000", "134510.635000", "134511.635000", "134512.635000", "134513.635000", "134514.635000", "134515.635000", "134516.635000", "134517.635000", "134518.635000", "134519.635000", "134520.635000", "134521.635000", "134522.635000", "134523.635000", "134524.635000", "134525.635000", "134526.635000", "134527.635000", "134528.635000", "134529.635000", "134530.635000", "134531.635000", "134532.635000", "134533.635000", "134534.635000", "134535.635000", "134536.635000", "134537.635000", "134538.635000", "134539.635000", "134540.635000", "134541.635000", "134542.635000", "134543.635000", "134544.635000", "134545.635000", "134546.635000", "134547.635000", "134548.635000", "134549.635000", "134550.635000", "134551.635000", "134552.635000", "134553.635000", "134554.635000", "134555.635000", "134556.635000", "134557.635000", "134558.635000", "134559.635000", "134600.635000", "134601.635000", "134602.635000", "134603.635000", "134604.635000", "134605.635000", "134606.635000", "134607.635000", "134608.635000", "134609.635000", "134610.635000", "134611.635000", "134612.635000", "134613.635000", "134614.635000", "134615.635000", "134616.635000", "134617.635000", "134618.635000", "134619.635000", "134620.635000", "134621.635000", "134622.635000", "134623.635000", "134624.635000", "134625.635000", "134626.635000", "134627.635000", "134628.635000", "134629.635000", "134630.635000"],
      "ContentTime": ["134107.441000", "134107.444000", "134107.452000", "134107.455000", "134107.457000", "134107.460000", "134107.462000", "134107.465000", "134107.467000", "134107.470000", "134107.472000", "134107.475000", "134107.477000", "134107.479000", "134107.482000", "134107.485000", "134107.487000", "134107.490000", "134107.492000", "134107.502000", "134107.505000", "134107.507000", "134107.510000", "134107.512000", "134107.515000", "134107.517000", "134107.524000", "134107.527000", "134107.529000", "134107.532000", "134127.409000", "134127.412000", "134127.415000", "134127.417000", "134127.420000", "134127.422000", "134127.425000", "134127.427000", "134127.430000", "134127.432000", "134127.434000", "134127.437000", "134127.442000", "134127.445000", "134127.447000", "134127.450000", "134127.452000", "134127.455000", "134127.457000", "134127.460000", "134147.409000", "134147.412000", "134147.414000", "134147.417000", "134147.419000", "134147.422000", "134147.424000", "134147.427000", "134147.429000", "134147.432000", "134147.434000", "134147.437000", "134147.439000", "134147.442000", "134147.444000", "134147.447000", "134147.449000", "134147.452000", "134147.454000", "134147.457000", "134207.408000", "134207.411000", "134207.414000", "134207.428000", "134207.430000", "134207.433000", "134207.436000", "134207.438000", "134207.440000", "134207.443000", "134207.445000", "134207.448000", "134207.450000", "134207.453000", "134207.455000", "134207.458000", "134207.460000", "134207.463000", "134207.465000", "134207.467000", "134227.409000", "134227.413000", "134227.415000", "134227.418000", "134227.420000", "134227.423000", "134227.425000", "134227.428000", "134227.430000", "134227.433000", "134227.435000", "134227.438000", "134227.440000", "134227.443000", "134227.445000", "134227.448000", "134227.457000", "134227.459000", "134227.462000", "134227.464000", "134247.409000", "134247.412000", "134247.415000", "134247.418000", "134247.420000", "134247.423000", "134247.425000", "134247.428000", "134247.430000", "134247.433000", "134247.435000", "134247.438000", "134247.440000", "134247.443000", "134247.445000", "134247.448000", "134247.450000", "134247.452000", "134247.455000", "134247.457000", "134307.410000", "134307.412000", "134307.415000", "134307.418000", "134307.420000", "134307.423000", "134307.425000", "134307.428000", "134307.430000", "134307.433000", "134307.435000", "134307.438000", "134307.440000", "134307.443000", "134307.445000", "134307.448000", "134307.450000", "134307.452000", "134307.455000", "134307.457000", "134327.408000", "134327.411000", "134327.413000", "134327.416000", "134327.419000", "134327.421000", "134327.424000", "134327.426000", "134327.429000", "134327.432000", "134327.439000", "134327.442000", "134327.444000", "134327.447000", "134327.449000", "134327.452000", "134327.454000", "134327.457000", "134327.459000", "134327.462000", "134347.408000", "134347.411000", "134347.414000", "134347.417000", "134347.420000", "134347.422000", "134347.425000", "134347.427000", "134347.430000", "134347.432000", "134347.435000", "134347.437000", "134347.440000", "134347.442000", "134347.445000", "134347.447000", "134347.450000", "134347.452000", "134347.455000", "134347.457000", "134407.409000", "134407.411000", "134407.414000", "134407.417000", "134407.419000", "134407.422000", "134407.424000", "134407.427000", "134407.429000", "134407.432000", "134407.443000", "134407.445000", "134407.448000", "134407.450000", "134407.453000", "134407.455000", "134407.458000", "134407.460000", "134407.463000", "134407.465000", "134427.408000", "134427.411000", "134427.414000", "134427.417000", "134427.419000", "134427.422000", "134427.425000", "134427.427000", "134427.430000", "134427.432000", "134427.435000", "134427.437000", "134427.440000", "134427.442000", "134427.445000", "134427.447000", "134427.450000", "134427.452000", "134427.454000", "134427.457000", "134447.410000", "134447.412000", "134447.415000", "134447.417000", "134447.420000", "134447.423000", "134447.425000", "134447.428000", "134447.430000", "134447.433000", "134447.435000", "134447.438000", "134447.440000", "134447.443000", "134447.445000", "134447.448000", "134447.450000", "134447.453000", "134447.455000", "134447.458000", "134507.409000", "134507.412000", "134507.415000", "134507.417000", "134507.420000", "134507.423000", "134507.425000", "134507.428000", "134507.430000", "134507.432000", "134507.435000", "134507.438000", "134507.440000", "134507.443000", "134507.455000", "134507.458000", "134507.460000", "134507.463000", "134507.465000", "134507.468000", "134527.410000", "134527.413000", "134527.415000", "134527.418000", "134527.420000", "134527.423000", "134527.425000", "134527.428000", "134527.430000", "134527.433000", "134527.435000", "134527.438000", "134527.440000", "134527.443000", "134527.445000", "134527.448000", "134527.450000", "134527.453000", "134527.455000", "134527.458000", "134547.408000", "134547.411000", "134547.414000", "134547.417000", "134547.419000", "134547.422000", "134547.424000", "134547.427000", "134547.429000", "134547.432000", "134547.434000", "134547.437000", "134547.439000", "134547.442000", "134547.444000", "134547.447000", "134547.449000", "134547.452000", "134547.454000", "134547.457000", "134607.408000", "134607.411000", "134607.414000", "134607.417000", "134607.419000", "134607.422000", "134607.424000", "134607.427000", "134607.429000", "134607.432000", "134607.434000", "134607.436000", "134607.439000", "134607.442000", "134607.444000", "134607.447000", "134607.449000", "134607.451000", "134607.454000", "134607.456000", "134627.408000", "134627.412000", "134627.414000", "134627.417000", "134627.435000", "134627.438000", "134627.440000", "134627.443000", "134627.445000", "134627.448000", "134627.450000", "134627.453000", "134627.455000", "134627.458000", "134627.460000", "134627.463000", "134627.465000", "134627.468000", "134627.470000", "134627.472000", "134632.468000", "134632.471000", "134632.474000", "134632.476000", "134632.479000", "134632.481000"],
      "InstanceCreationTime": ["134107.441000", "134107.444000", "134107.452000", "134107.455000", "134107.457000", "134107.460000", "134107.462000", "134107.465000", "134107.467000", "134107.470000", "134107.472000", "134107.475000", "134107.477000", "134107.479000", "134107.482000", "134107.485000", "134107.487000", "134107.490000", "134107.492000", "134107.502000", "134107.505000", "134107.507000", "134107.510000", "134107.512000", "134107.515000", "134107.517000", "134107.524000", "134107.527000", "134107.529000", "134107.532000", "134127.409000", "134127.412000", "134127.415000", "134127.417000", "134127.420000", "134127.422000", "134127.425000", "134127.427000", "134127.430000", "134127.432000", "134127.434000", "134127.437000", "134127.442000", "134127.445000", "134127.447000", "134127.450000", "134127.452000", "134127.455000", "134127.457000", "134127.460000", "134147.409000", "134147.412000", "134147.414000", "134147.417000", "134147.419000", "134147.422000", "134147.424000", "134147.427000", "134147.429000", "134147.432000", "134147.434000", "134147.437000", "134147.439000", "134147.442000", "134147.444000", "134147.447000", "134147.449000", "134147.452000", "134147.454000", "134147.457000", "134207.408000", "134207.411000", "134207.414000", "134207.428000", "134207.430000", "134207.433000", "134207.436000", "134207.438000", "134207.440000", "134207.443000", "134207.445000", "134207.448000", "134207.450000", "134207.453000", "134207.455000", "134207.458000", "134207.460000", "134207.463000", "134207.465000", "134207.467000", "134227.409000", "134227.413000", "134227.415000", "134227.418000", "134227.420000", "134227.423000", "134227.425000", "134227.428000", "134227.430000", "134227.433000", "134227.435000", "134227.438000", "134227.440000", "134227.443000", "134227.445000", "134227.448000", "134227.457000", "134227.459000", "134227.462000", "134227.464000", "134247.409000", "134247.412000", "134247.415000", "134247.418000", "134247.420000", "134247.423000", "134247.425000", "134247.428000", "134247.430000", "134247.433000", "134247.435000", "134247.438000", "134247.440000", "134247.443000", "134247.445000", "134247.448000", "134247.450000", "134247.452000", "134247.455000", "134247.457000", "134307.410000", "134307.412000", "134307.415000", "134307.418000", "134307.420000", "134307.423000", "134307.425000", "134307.428000", "134307.430000", "134307.433000", "134307.435000", "134307.438000", "134307.440000", "134307.443000", "134307.445000", "134307.448000", "134307.450000", "134307.452000", "134307.455000", "134307.457000", "134327.408000", "134327.411000", "134327.413000", "134327.416000", "134327.419000", "134327.421000", "134327.424000", "134327.426000", "134327.429000", "134327.432000", "134327.439000", "134327.442000", "134327.444000", "134327.447000", "134327.449000", "134327.452000", "134327.454000", "134327.457000", "134327.459000", "134327.462000", "134347.408000", "134347.411000", "134347.414000", "134347.417000", "134347.420000", "134347.422000", "134347.425000", "134347.427000", "134347.430000", "134347.432000", "134347.435000", "134347.437000", "134347.440000", "134347.442000", "134347.445000", "134347.447000", "134347.450000", "134347.452000", "134347.455000", "134347.457000", "134407.409000", "134407.411000", "134407.414000", "134407.417000", "134407.419000", "134407.422000", "134407.424000", "134407.427000", "134407.429000", "134407.432000", "134407.443000", "134407.445000", "134407.448000", "134407.450000", "134407.453000", "134407.455000", "134407.458000", "134407.460000", "134407.463000", "134407.465000", "134427.408000", "134427.411000", "134427.414000", "134427.417000", "134427.419000", "134427.422000", "134427.425000", "134427.427000", "134427.430000", "134427.432000", "134427.435000", "134427.437000", "134427.440000", "134427.442000", "134427.445000", "134427.447000", "134427.450000", "134427.452000", "134427.454000", "134427.457000", "134447.410000", "134447.412000", "134447.415000", "134447.417000", "134447.420000", "134447.423000", "134447.425000", "134447.428000", "134447.430000", "134447.433000", "134447.435000", "134447.438000", "134447.440000", "134447.443000", "134447.445000", "134447.448000", "134447.450000", "134447.453000", "134447.455000", "134447.458000", "134507.409000", "134507.412000", "134507.415000", "134507.417000", "134507.420000", "134507.423000", "134507.425000", "134507.428000", "134507.430000", "134507.432000", "134507.435000", "134507.438000", "134507.440000", "134507.443000", "134507.455000", "134507.458000", "134507.460000", "134507.463000", "134507.465000", "134507.468000", "134527.410000", "134527.413000", "134527.415000", "134527.418000", "134527.420000", "134527.423000", "134527.425000", "134527.428000", "134527.430000", "134527.433000", "134527.435000", "134527.438000", "134527.440000", "134527.443000", "134527.445000", "134527.448000", "134527.450000", "134527.453000", "134527.455000", "134527.458000", "134547.408000", "134547.411000", "134547.414000", "134547.417000", "134547.419000", "134547.422000", "134547.424000", "134547.427000", "134547.429000", "134547.432000", "134547.434000", "134547.437000", "134547.439000", "134547.442000", "134547.444000", "134547.447000", "134547.449000", "134547.452000", "134547.454000", "134547.457000", "134607.408000", "134607.411000", "134607.414000", "134607.417000", "134607.419000", "134607.422000", "134607.424000", "134607.427000", "134607.429000", "134607.432000", "134607.434000", "134607.436000", "134607.439000", "134607.442000", "134607.444000", "134607.447000", "134607.449000", "134607.451000", "134607.454000", "134607.456000", "134627.408000", "134627.412000", "134627.414000", "134627.417000", "134627.435000", "134627.438000", "134627.440000", "134627.443000", "134627.445000", "134627.448000", "134627.450000", "134627.453000", "134627.455000", "134627.458000", "134627.460000", "134627.463000", "134627.465000", "134627.468000", "134627.470000", "134627.472000", "134632.468000", "134632.471000", "134632.474000", "134632.476000", "134632.479000", "134632.481000"],
      "InstanceNumber": [1, 2, 3, 4, 5, 6, 7, 8, 9, 10, 11, 12, 13, 14, 15, 16, 17, 18, 19, 20, 21, 22, 23, 24, 25, 26, 27, 28, 29, 30, 31, 32, 33, 34, 35, 36, 37, 38, 39, 40, 41, 42, 43, 44, 45, 46, 47, 48, 49, 50, 51, 52, 53, 54, 55, 56, 57, 58, 59, 60, 61, 62, 63, 64, 65, 66, 67, 68, 69, 70, 71, 72, 73, 74, 75, 76, 77, 78, 79, 80, 81, 82, 83, 84, 85, 86, 87, 88, 89, 90, 91, 92, 93, 94, 95, 96, 97, 98, 99, 100, 101, 102, 103, 104, 105, 106, 107, 108, 109, 110, 111, 112, 113, 114, 115, 116, 117, 118, 119, 120, 121, 122, 123, 124, 125, 126, 127, 128, 129, 130, 131, 132, 133, 134, 135, 136, 137, 138, 139, 140, 141, 142, 143, 144, 145, 146, 147, 148, 149, 150, 151, 152, 153, 154, 155, 156, 157, 158, 159, 160, 161, 162, 163, 164, 165, 166, 167, 168, 169, 170, 171, 172, 173, 174, 175, 176, 177, 178, 179, 180, 181, 182, 183, 184, 185, 186, 187, 188, 189, 190, 191, 192, 193, 194, 195, 196, 197, 198, 199, 200, 201, 202, 203, 204, 205, 206, 207, 208, 209, 210, 211, 212, 213, 214, 215, 216, 217, 218, 219, 220, 221, 222, 223, 224, 225, 226, 227, 228, 229, 230, 231, 232, 233, 234, 235, 236, 237, 238, 239, 240, 241, 242, 243, 244, 245, 246, 247, 248, 249, 250, 251, 252, 253, 254, 255, 256, 257, 258, 259, 260, 261, 262, 263, 264, 265, 266, 267, 268, 269, 270, 271, 272, 273, 274, 275, 276, 277, 278, 279, 280, 281, 282, 283, 284, 285, 286, 287, 288, 289, 290, 291, 292, 293, 294, 295, 296, 297, 298, 299, 300, 301, 302, 303, 304, 305, 306, 307, 308, 309, 310, 311, 312, 313, 314, 315, 316, 317, 318, 319, 320, 321, 322, 323, 324, 325, 326, 327, 328, 329, 330, 331, 332, 333, 334, 335, 336, 337, 338, 339, 340, 341, 342, 343, 344, 345, 346, 347, 348, 349, 350, 351, 352, 353, 354, 355, 356],
      "LargestImagePixelValue": [14048, 13468, 13325, 13040, 12984, 13015, 12976, 12964, 12887, 12871, 12839, 12805, 12933, 12978, 12895, 13056, 13029, 12920, 12843, 12960, 13013, 12901, 12918, 12818, 12841, 12823, 12854, 12856, 12924, 12963, 13028, 12997, 12948, 12962, 13044, 13014, 12963, 12879, 12980, 13127, 12962, 12920, 12952, 12927, 12912, 12974, 12954, 12964, 12939, 12949, 13029, 13145, 13000, 13042, 12922, 12907, 12953, 12926, 12940, 12953, 12900, 12830, 12941, 12921, 13016, 12930, 13001, 13066, 13010, 13024, 13076, 13155, 13009, 13049, 13096, 13014, 13123, 13029, 13010, 13008, 13021, 12972, 13029, 12944, 12906, 13008, 13103, 13044, 13006, 12959, 13174, 13129, 13025, 12933, 13030, 12979, 13083, 13089, 13048, 12907, 12962, 13020, 13013, 12980, 13022, 13049, 13027, 12952, 12988, 13016, 13033, 13056, 12981, 12934, 13143, 13062, 13013, 13043, 12927, 12917, 13087, 12989, 13018, 13102, 13004, 13132, 13026, 12953, 13040, 13127, 13019, 13063, 12919, 13044, 12957, 12996, 12988, 13132, 13120, 13016, 13055, 13078, 13091, 13004, 13004, 13053, 13142, 13096, 13125, 13167, 13131, 13150, 13054, 12983, 12888, 12987, 12984, 12972, 13045, 12999, 13065, 13087, 13114, 13059, 12942, 12976, 13022, 13096, 13036, 12945, 13135, 13063, 13024, 13041, 13010, 13017, 13016, 12957, 12939, 13061, 13046, 13022, 13022, 12979, 13083, 13063, 13254, 13135, 13150, 13008, 13132, 13131, 13011, 12992, 12832, 12978, 12958, 13086, 13034, 13088, 13022, 13057, 13103, 13003, 13097, 13090, 13094, 13084, 13028, 13049, 12981, 12930, 12942, 12919, 12982, 12900, 13035, 12948, 12892, 12905, 12967, 13126, 13153, 12997, 13078, 13108, 13077, 13176, 13124, 13119, 13119, 13044, 12928, 12947, 13111, 12936, 12956, 13043, 13135, 13033, 13068, 13029, 13051, 13093, 13133, 13079, 13182, 13174, 13076, 13092, 13218, 13130, 13131, 13182, 13119, 13092, 13019, 13263, 13118, 13052, 13267, 13113, 13220, 13159, 13170, 13143, 13108, 13123, 13224, 13148, 13166, 13101, 13003, 13056, 13179, 13144, 13073, 13000, 13081, 13046, 13137, 13191, 13057, 13230, 13049, 13120, 13034, 13136, 13026, 13033, 13032, 13141, 12980, 13054, 12944, 12961, 12973, 13079, 13068, 13048, 13128, 13070, 13042, 13060, 12980, 13044, 12983, 13037, 12992, 12989, 13010, 13003, 12967, 12880, 13086, 13004, 12997, 13130, 12968, 12975, 13123, 13061, 13074, 13051, 13104, 13170, 13104, 12996, 13104, 13075, 13168, 13141, 13292, 13035, 13120, 13059, 13030, 13107, 13140, 13128, 13255, 13160, 13080, 13153, 13143, 13128, 13217, 13086, 13151, 13242, 13169, 13167, 13088, 13158, 13036, 13144],
