{
  "AcquisitionMatrixPE": 106,
  "AcquisitionNumber": 1,
  "AcquisitionTime": "13:16:48.790000",
  "BandwidthPerPixelPhaseEncode": 13.477,
  "BaseResolution": 106,
  "BodyPartExamined": "BRAIN",
  "CoilCombinationMethod": "Sum of Squares",
  "ConsistencyInfo": "N4_VE11C_LATEST_20160120",
  "ConversionSoftware": "dcm2niix",
  "ConversionSoftwareVersion": "v1.0.20220720",
  "DerivedVendorReportedEchoSpacing": 0.000700005,
  "DeviceSerialNumber": "166108",
  "DwellTime": 2.6e-06,
  "EchoTime": 0.03,
  "EchoTrainLength": 80,
  "EffectiveEchoSpacing": 0.000700005,
  "FlipAngle": 62,
  "HeudiconvVersion": "1.3.0",
  "ImageComments": "Unaliased MB4/PE3/LB",
  "ImageOrientationPatientDICOM": [1, 0, 0, 0, 0.985109, -0.171929],
  "ImageOrientationText": "Tra>Cor(-9.9)",
  "ImageType": [
    "ORIGINAL",
    "PRIMARY",
    "M",
    "MB",
    "ND",
    "MOSAIC"
],
  "ImagingFrequency": 123.244,
  "InPlanePhaseEncodingDirectionDICOM": "COL",
  "InstitutionAddress": "Bedford Way 26,London,London,GB,WC1H 0AP",
  "InstitutionName": "University College",
  "InstitutionalDepartmentName": "Department",
  "MRAcquisitionType": "2D",
  "MagneticFieldStrength": 3,
  "Manufacturer": "Siemens",
  "ManufacturersModelName": "Prisma",
  "MatrixCoilMode": "SENSE",
  "Modality": "MR",
  "MultibandAccelerationFactor": 4,
  "NonlinearGradientCorrection": false,
  "PartialFourier": 0.75,
  "PatientPosition": "HFS",
  "PercentPhaseFOV": 100,
  "PercentSampling": 100,
  "PhaseEncodingDirection": "j-",
  "PhaseEncodingSteps": 80,
  "PhaseResolution": 1,
  "PixelBandwidth": 1815,
  "ProcedureStepDescription": "Egor^MovieProject2",
  "ProtocolName": "func-bold_task-motor_run-02",
  "PulseSequenceDetails": "%CustomerSeq%\\cmrr_mbep2d_bold",
  "ReceiveCoilActiveElements": "HEA;HEP",
  "ReceiveCoilName": "Head_32",
  "ReconMatrixPE": 106,
  "RepetitionTime": 1,
  "SAR": 0.047774,
  "ScanOptions": "PFP\\FS\\EXT",
  "ScanningSequence": "EP",
  "SequenceName": "epfid2d1_106",
  "SequenceVariant": "SK\\SS",
  "SeriesDescription": "func-bold_task-motor_run-02",
  "SeriesNumber": 6,
  "ShimSetting": [-1537, 617, 7396, 197, -45, 131, 8, -83],
  "SliceThickness": 2,
  "SliceTiming": [0, 0.535, 0.09, 0.6225, 0.1775, 0.7125, 0.2675, 0.8025, 0.355, 0.89, 0.445, 0, 0.535, 0.09, 0.6225, 0.1775, 0.7125, 0.2675, 0.8025, 0.355, 0.89, 0.445, 0, 0.535, 0.09, 0.6225, 0.1775, 0.7125, 0.2675, 0.8025, 0.355, 0.89, 0.445, 0, 0.535, 0.09, 0.6225, 0.1775, 0.7125, 0.2675, 0.8025, 0.355, 0.89, 0.445],
  "SoftwareVersions": "syngo MR E11",
  "SpacingBetweenSlices": 2,
  "StationName": "AWP166108",
  "TaskName": "somatotopy",
  "TotalReadoutTime": 0.0735005,
  "TxRefAmp": 220.584,
  "WipMemBlock": "f5c1772f-15f3-4ae0-86c2-bdafac4e395e||Sequence: R016 ve11c/master r/e634e98; Dec 19 2017 11:00:25 by eja",
  "dcmmeta_affine": [
    [-2.0, 0.0, 0.0, 106.0],
    [0.0, 1.9702186584472656, -0.3438582122325897, -92.64395904541016],
    [0.0, 0.3438582122325897, 1.9702186584472656, -16.771652221679688],
    [0.0, 0.0, 0.0, 1.0]
],
  "dcmmeta_reorient_transform": [
    [0.0, -1.0, 0.0, 105.0],
    [1.0, 0.0, 0.0, 0.0],
    [0.0, 0.0, 1.0, 0.0],
    [0.0, 0.0, 0.0, 1.0]
],
  "dcmmeta_shape": [106, 106, 44, 469],
  "dcmmeta_slice_dim": 2,
  "dcmmeta_version": 0.6,
  "global": {
    "const": {
      "AcquisitionMatrix": [106, 0, 0, 106],
      "AngioFlag": "N",
      "BitsAllocated": 16,
      "BitsStored": 16,
      "BodyPartExamined": "BRAIN",
      "CardiacNumberOfImages": 1,
      "Columns": 742,
      "EchoNumbers": 1,
      "EchoTime": 30.0,
      "EchoTrainLength": 80,
      "FlipAngle": 62.0,
      "HighBit": 15,
      "ImageOrientationPatient": [1.0, 0.0, 0.0, 0.0, 0.98510932620277, -0.1719291000044],
      "ImagePositionPatient": [-742.0, -740.75852932895, 128.68036582561],
      "ImageType": [
        "ORIGINAL",
        "PRIMARY",
        "M",
        "MB",
        "ND",
        "MOSAIC"
],
      "ImagedNucleus": "1H",
      "ImagingFrequency": 123.243638,
      "InPlanePhaseEncodingDirection": "COL",
      "MRAcquisitionType": "2D",
      "MagneticFieldStrength": 3.0,
      "Manufacturer": "SIEMENS",
      "ManufacturerModelName": "Prisma",
      "Modality": "MR",
      "NominalInterval": 0,
      "NumberOfAverages": 1.0,
      "NumberOfPhaseEncodingSteps": 80,
      "PercentPhaseFieldOfView": 100.0,
      "PercentSampling": 100.0,
      "PerformedProcedureStepStartTime": "123743.674000",
      "PhotometricInterpretation": "MONOCHROME2",
      "PixelBandwidth": 1815.0,
      "PixelRepresentation": 0,
      "PixelSpacing": [2.0, 2.0],
      "ProtocolName": "func-bold_task-motor_run-02",
      "RepetitionTime": 1000.0,
      "Rows": 742,
      "SAR": 0.0477740038896,
      "SamplesPerPixel": 1,
      "ScanOptions": [
        "PFP",
        "FS",
        "EXT"
],
      "ScanningSequence": "EP",
      "SequenceName": "epfid2d1_106",
      "SequenceVariant": [
        "SK",
        "SS"
],
      "SeriesDescription": "func-bold_task-motor_run-02",
      "SeriesNumber": 6,
      "SeriesTime": "131727.447000",
      "SliceLocation": -0.5937187941406,
      "SliceThickness": 2.0,
      "SmallestImagePixelValue": 0,
      "SoftwareVersions": "syngo MR E11",
      "SpacingBetweenSlices": 2.0000000265748,
      "SpecificCharacterSet": "ISO_IR 100",
      "StudyID": "1",
      "StudyTime": "123743.529000",
      "TransmitCoilName": "Body",
      "VariableFlipAngleFlag": "N",
      "WindowCenterWidthExplanation": "Algo1",
      "dBdt": 0.0},
    "slices": {}
  },
  "time": {
    "samples": {
      "AcquisitionNumber": [1, 2, 3, 4, 5, 6, 7, 8, 9, 10, 11, 12, 13, 14, 15, 16, 17, 18, 19, 20, 21, 22, 23, 24, 25, 26, 27, 28, 29, 30, 31, 32, 33, 34, 35, 36, 37, 38, 39, 40, 41, 42, 43, 44, 45, 46, 47, 48, 49, 50, 51, 52, 53, 54, 55, 56, 57, 58, 59, 60, 61, 62, 63, 64, 65, 66, 67, 68, 69, 70, 71, 72, 73, 74, 75, 76, 77, 78, 79, 80, 81, 82, 83, 84, 85, 86, 87, 88, 89, 90, 91, 92, 93, 94, 95, 96, 97, 98, 99, 100, 101, 102, 103, 104, 105, 106, 107, 108, 109, 110, 111, 112, 113, 114, 115, 116, 117, 118, 119, 120, 121, 122, 123, 124, 125, 126, 127, 128, 129, 130, 131, 132, 133, 134, 135, 136, 137, 138, 139, 140, 141, 142, 143, 144, 145, 146, 147, 148, 149, 150, 151, 152, 153, 154, 155, 156, 157, 158, 159, 160, 161, 162, 163, 164, 165, 166, 167, 168, 169, 170, 171, 172, 173, 174, 175, 176, 177, 178, 179, 180, 181, 182, 183, 184, 185, 186, 187, 188, 189, 190, 191, 192, 193, 194, 195, 196, 197, 198, 199, 200, 201, 202, 203, 204, 205, 206, 207, 208, 209, 210, 211, 212, 213, 214, 215, 216, 217, 218, 219, 220, 221, 222, 223, 224, 225, 226, 227, 228, 229, 230, 231, 232, 233, 234, 235, 236, 237, 238, 239, 240, 241, 242, 243, 244, 245, 246, 247, 248, 249, 250, 251, 252, 253, 254, 255, 256, 257, 258, 259, 260, 261, 262, 263, 264, 265, 266, 267, 268, 269, 270, 271, 272, 273, 274, 275, 276, 277, 278, 279, 280, 281, 282, 283, 284, 285, 286, 287, 288, 289, 290, 291, 292, 293, 294, 295, 296, 297, 298, 299, 300, 301, 302, 303, 304, 305, 306, 307, 308, 309, 310, 311, 312, 313, 314, 315, 316, 317, 318, 319, 320, 321, 322, 323, 324, 325, 326, 327, 328, 329, 330, 331, 332, 333, 334, 335, 336, 337, 338, 339, 340, 341, 342, 343, 344, 345, 346, 347, 348, 349, 350, 351, 352, 353, 354, 355, 356, 357, 358, 359, 360, 361, 362, 363, 364, 365, 366, 367, 368, 369, 370, 371, 372, 373, 374, 375, 376, 377, 378, 379, 380, 381, 382, 383, 384, 385, 386, 387, 388, 389, 390, 391, 392, 393, 394, 395, 396, 397, 398, 399, 400, 401, 402, 403, 404, 405, 406, 407, 408, 409, 410, 411, 412, 413, 414, 415, 416, 417, 418, 419, 420, 421, 422, 423, 424, 425, 426, 427, 428, 429, 430, 431, 432, 433, 434, 435, 436, 437, 438, 439, 440, 441, 442, 443, 444, 445, 446, 447, 448, 449, 450, 451, 452, 453, 454, 455, 456, 457, 458, 459, 460, 461, 462, 463, 464, 465, 466, 467, 468, 469],
      "AcquisitionTime": ["131648.790000", "131649.790000", "131650.790000", "131651.790000", "131652.790000", "131653.790000", "131654.790000", "131655.790000", "131656.790000", "131657.790000", "131658.790000", "131659.790000", "131700.790000", "131701.790000", "131702.790000", "131703.790000", "131704.790000", "131705.790000", "131706.790000", "131707.790000", "131708.790000", "131709.790000", "131710.790000", "131711.790000", "131712.790000", "131713.790000", "131714.790000", "131715.790000", "131716.790000", "131717.790000", "131718.790000", "131719.790000", "131720.790000", "131721.790000", "131722.790000", "131723.790000", "131724.790000", "131725.790000", "131726.790000", "131727.790000", "131728.790000", "131729.790000", "131730.790000", "131731.790000", "131732.790000", "131733.790000", "131734.790000", "131735.790000", "131736.790000", "131737.790000", "131738.790000", "131739.790000", "131740.790000", "131741.790000", "131742.790000", "131743.790000", "131744.790000", "131745.790000", "131746.790000", "131747.790000", "131748.790000", "131749.790000", "131750.790000", "131751.790000", "131752.790000", "131753.790000", "131754.790000", "131755.790000", "131756.790000", "131757.790000", "131758.790000", "131759.790000", "131800.790000", "131801.790000", "131802.790000", "131803.790000", "131804.790000", "131805.790000", "131806.790000", "131807.790000", "131808.790000", "131809.790000", "131810.790000", "131811.790000", "131812.790000", "131813.790000", "131814.790000", "131815.790000", "131816.790000", "131817.790000", "131818.790000", "131819.790000", "131820.790000", "131821.790000", "131822.790000", "131823.790000", "131824.790000", "131825.790000", "131826.790000", "131827.790000", "131828.790000", "131829.790000", "131830.790000", "131831.790000", "131832.790000", "131833.790000", "131834.790000", "131835.790000", "131836.790000", "131837.790000", "131838.790000", "131839.790000", "131840.790000", "131841.790000", "131842.790000", "131843.790000", "131844.790000", "131845.790000", "131846.790000", "131847.790000", "131848.790000", "131849.790000", "131850.790000", "131851.790000", "131852.790000", "131853.790000", "131854.790000", "131855.790000", "131856.790000", "131857.790000", "131858.790000", "131859.790000", "131900.790000", "131901.790000", "131902.790000", "131903.790000", "131904.790000", "131905.790000", "131906.790000", "131907.790000", "131908.790000", "131909.790000", "131910.790000", "131911.790000", "131912.790000", "131913.790000", "131914.790000", "131915.790000", "131916.790000", "131917.790000", "131918.790000", "131919.790000", "131920.790000", "131921.790000", "131922.790000", "131923.790000", "131924.790000", "131925.790000", "131926.790000", "131927.790000", "131928.790000", "131929.790000", "131930.790000", "131931.790000", "131932.790000", "131933.790000", "131934.790000", "131935.790000", "131936.790000", "131937.790000", "131938.790000", "131939.790000", "131940.790000", "131941.790000", "131942.790000", "131943.790000", "131944.790000", "131945.790000", "131946.790000", "131947.790000", "131948.790000", "131949.790000", "131950.790000", "131951.790000", "131952.790000", "131953.790000", "131954.790000", "131955.790000", "131956.790000", "131957.790000", "131958.790000", "131959.790000", "132000.790000", "132001.790000", "132002.790000", "132003.790000", "132004.790000", "132005.790000", "132006.790000", "132007.790000", "132008.790000", "132009.790000", "132010.790000", "132011.790000", "132012.790000", "132013.790000", "132014.790000", "132015.790000", "132016.790000", "132017.790000", "132018.790000", "132019.790000", "132020.790000", "132021.790000", "132022.790000", "132023.790000", "132024.790000", "132025.790000", "132026.790000", "132027.790000", "132028.790000", "132029.790000", "132030.790000", "132031.790000", "132032.790000", "132033.790000", "132034.790000", "132035.790000", "132036.790000", "132037.790000", "132038.790000", "132039.790000", "132040.790000", "132041.790000", "132042.790000", "132043.790000", "132044.790000", "132045.790000", "132046.790000", "132047.790000", "132048.790000", "132049.790000", "132050.790000", "132051.790000", "132052.790000", "132053.790000", "132054.790000", "132055.790000", "132056.790000", "132057.790000", "132058.790000", "132059.790000", "132100.790000", "132101.790000", "132102.790000", "132103.790000", "132104.790000", "132105.790000", "132106.790000", "132107.790000", "132108.790000", "132109.790000", "132110.790000", "132111.790000", "132112.790000", "132113.790000", "132114.790000", "132115.790000", "132116.790000", "132117.790000", "132118.790000", "132119.790000", "132120.790000", "132121.790000", "132122.790000", "132123.790000", "132124.790000", "132125.790000", "132126.790000", "132127.790000", "132128.790000", "132129.790000", "132130.790000", "132131.790000", "132132.790000", "132133.790000", "132134.790000", "132135.790000", "132136.790000", "132137.790000", "132138.790000", "132139.790000", "132140.790000", "132141.790000", "132142.790000", "132143.790000", "132144.790000", "132145.790000", "132146.790000", "132147.790000", "132148.790000", "132149.790000", "132150.790000", "132151.790000", "132152.790000", "132153.790000", "132154.790000", "132155.790000", "132156.790000", "132157.790000", "132158.790000", "132159.790000", "132200.790000", "132201.790000", "132202.790000", "132203.790000", "132204.790000", "132205.790000", "132206.790000", "132207.790000", "132208.790000", "132209.790000", "132210.790000", "132211.790000", "132212.790000", "132213.790000", "132214.790000", "132215.790000", "132216.790000", "132217.790000", "132218.790000", "132219.790000", "132220.790000", "132221.790000", "132222.790000", "132223.790000", "132224.790000", "132225.790000", "132226.790000", "132227.790000", "132228.790000", "132229.790000", "132230.790000", "132231.790000", "132232.790000", "132233.790000", "132234.790000", "132235.790000", "132236.790000", "132237.790000", "132238.790000", "132239.790000", "132240.790000", "132241.790000", "132242.790000", "132243.790000", "132244.790000", "132245.790000", "132246.790000", "132247.790000", "132248.790000", "132249.790000", "132250.790000", "132251.790000", "132252.790000", "132253.790000", "132254.790000", "132255.790000", "132256.790000", "132257.790000", "132258.790000", "132259.790000", "132300.790000", "132301.790000", "132302.790000", "132303.790000", "132304.790000", "132305.790000", "132306.790000", "132307.790000", "132308.790000", "132309.790000", "132310.790000", "132311.790000", "132312.790000", "132313.790000", "132314.790000", "132315.790000", "132316.790000", "132317.790000", "132318.790000", "132319.790000", "132320.790000", "132321.790000", "132322.790000", "132323.790000", "132324.790000", "132325.790000", "132326.790000", "132327.790000", "132328.790000", "132329.790000", "132330.790000", "132331.790000", "132332.790000", "132333.790000", "132334.790000", "132335.790000", "132336.790000", "132337.790000", "132338.790000", "132339.790000", "132340.790000", "132341.790000", "132342.790000", "132343.790000", "132344.790000", "132345.790000", "132346.790000", "132347.790000", "132348.790000", "132349.790000", "132350.790000", "132351.790000", "132352.790000", "132353.790000", "132354.790000", "132355.790000", "132356.790000", "132357.790000", "132358.790000", "132359.790000", "132400.790000", "132401.790000", "132402.790000", "132403.790000", "132404.790000", "132405.790000", "132406.790000", "132407.790000", "132408.790000", "132409.790000", "132410.790000", "132411.790000", "132412.790000", "132413.790000", "132414.790000", "132415.790000", "132416.790000", "132417.790000", "132418.790000", "132419.790000", "132420.790000", "132421.790000", "132422.790000", "132423.790000", "132424.790000", "132425.790000", "132426.790000", "132427.790000", "132428.790000", "132429.790000", "132430.790000", "132431.790000", "132432.790000", "132433.790000", "132434.790000", "132435.790000", "132436.790000"],
      "ContentTime": ["131727.450000", "131727.452000", "131727.455000", "131727.457000", "131727.460000", "131727.462000", "131727.465000", "131727.467000", "131727.469000", "131727.472000", "131727.474000", "131727.477000", "131727.479000", "131727.491000", "131727.493000", "131727.496000", "131727.498000", "131727.501000", "131727.513000", "131727.515000", "131727.518000", "131727.520000", "131727.522000", "131727.525000", "131727.527000", "131727.530000", "131727.532000", "131727.535000", "131727.537000", "131727.540000", "131727.542000", "131727.544000", "131727.547000", "131727.549000", "131727.552000", "131727.554000", "131727.557000", "131727.559000", "131747.409000", "131747.412000", "131747.415000", "131747.417000", "131747.420000", "131747.422000", "131747.424000", "131747.427000", "131747.432000", "131747.434000", "131747.437000", "131747.440000", "131747.442000", "131747.444000", "131747.447000", "131747.449000", "131747.452000", "131747.454000", "131747.457000", "131747.459000", "131807.408000", "131807.411000", "131807.413000", "131807.416000", "131807.418000", "131807.421000", "131807.423000", "131807.426000", "131807.458000", "131807.460000", "131807.463000", "131807.465000", "131807.468000", "131807.470000", "131807.472000", "131807.475000", "131807.477000", "131807.480000", "131807.482000", "131807.485000", "131827.408000", "131827.411000", "131827.413000", "131827.416000", "131827.418000", "131827.421000", "131827.423000", "131827.426000", "131827.428000", "131827.431000", "131827.433000", "131827.436000", "131827.438000", "131827.440000", "131827.443000", "131827.445000", "131827.448000", "131827.450000", "131827.452000", "131827.455000", "131847.408000", "131847.411000", "131847.414000", "131847.416000", "131847.418000", "131847.421000", "131847.423000", "131847.426000", "131847.428000", "131847.430000", "131847.440000", "131847.442000", "131847.445000", "131847.447000", "131847.449000", "131847.452000", "131847.454000", "131847.457000", "131847.459000", "131847.462000", "131907.409000", "131907.412000", "131907.415000", "131907.417000", "131907.419000", "131907.422000", "131907.424000", "131907.427000", "131907.429000", "131907.431000", "131907.434000", "131907.436000", "131907.439000", "131907.441000", "131907.444000", "131907.446000", "131907.448000", "131907.451000", "131907.453000", "131907.456000", "131927.409000", "131927.412000", "131927.414000", "131927.417000", "131927.419000", "131927.422000", "131927.424000", "131927.427000", "131927.429000", "131927.432000", "131927.434000", "131927.437000", "131927.439000", "131927.441000", "131927.444000", "131927.446000", "131927.449000", "131927.451000", "131927.453000", "131927.456000", "131947.409000", "131947.412000", "131947.415000", "131947.417000", "131947.419000", "131947.422000", "131947.424000", "131947.427000", "131947.429000", "131947.431000", "131947.434000", "131947.436000", "131947.439000", "131947.441000", "131947.444000", "131947.446000", "131947.449000", "131947.451000", "131947.453000", "131947.456000", "132007.409000", "132007.412000", "132007.414000", "132007.417000", "132007.419000", "132007.422000", "132007.424000", "132007.426000", "132007.429000", "132007.431000", "132007.434000", "132007.436000", "132007.439000", "132007.441000", "132007.443000", "132007.446000", "132007.448000", "132007.451000", "132007.453000", "132007.455000", "132027.409000", "132027.411000", "132027.414000", "132027.416000", "132027.419000", "132027.421000", "132027.423000", "132027.426000", "132027.428000", "132027.431000", "132027.433000", "132027.436000", "132027.438000", "132027.440000", "132027.443000", "132027.445000", "132027.448000", "132027.450000", "132027.453000", "132027.455000", "132047.408000", "132047.424000", "132047.427000", "132047.429000", "132047.431000", "132047.434000", "132047.436000", "132047.439000", "132047.441000", "132047.443000", "132047.446000", "132047.448000", "132047.451000", "132047.454000", "132047.456000", "132047.459000", "132047.461000", "132047.464000", "132047.466000", "132047.469000", "132107.409000", "132107.411000", "132107.414000", "132107.416000", "132107.418000", "132107.421000", "132107.423000", "132107.426000", "132107.428000", "132107.430000", "132107.433000", "132107.449000", "132107.451000", "132107.454000", "132107.456000", "132107.459000", "132107.461000", "132107.463000", "132107.466000", "132107.468000", "132127.409000", "132127.412000", "132127.414000", "132127.417000", "132127.419000", "132127.422000", "132127.424000", "132127.427000", "132127.429000", "132127.432000", "132127.434000", "132127.436000", "132127.439000", "132127.441000", "132127.444000", "132127.446000", "132127.448000", "132127.451000", "132127.453000", "132127.456000", "132147.409000", "132147.412000", "132147.414000", "132147.417000", "132147.419000", "132147.422000", "132147.424000", "132147.427000", "132147.429000", "132147.431000", "132147.434000", "132147.436000", "132147.439000", "132147.441000", "132147.443000", "132147.446000", "132147.448000", "132147.451000", "132147.453000", "132147.456000", "132207.409000", "132207.412000", "132207.414000", "132207.417000", "132207.419000", "132207.422000", "132207.424000", "132207.427000", "132207.429000", "132207.431000", "132207.434000", "132207.436000", "132207.439000", "132207.441000", "132207.444000", "132207.446000", "132207.448000", "132207.451000", "132207.453000", "132207.456000", "132227.409000", "132227.412000", "132227.415000", "132227.417000", "132227.419000", "132227.422000", "132227.424000", "132227.427000", "132227.429000", "132227.432000", "132227.434000", "132227.436000", "132227.439000", "132227.441000", "132227.444000", "132227.446000", "132227.449000", "132227.451000", "132227.453000", "132227.456000", "132247.408000", "132247.411000", "132247.414000", "132247.416000", "132247.418000", "132247.421000", "132247.423000", "132247.426000", "132247.428000", "132247.431000", "132247.433000", "132247.436000", "132247.438000", "132247.440000", "132247.443000", "132247.445000", "132247.448000", "132247.450000", "132247.452000", "132247.455000", "132307.409000", "132307.424000", "132307.427000", "132307.429000", "132307.431000", "132307.434000", "132307.436000", "132307.439000", "132307.441000", "132307.444000", "132307.446000", "132307.449000", "132307.451000", "132307.453000", "132307.456000", "132307.458000", "132307.461000", "132307.463000", "132307.466000", "132307.468000", "132327.409000", "132327.411000", "132327.414000", "132327.416000", "132327.419000", "132327.421000", "132327.423000", "132327.426000", "132327.428000", "132327.431000", "132327.433000", "132327.436000", "132327.438000", "132327.440000", "132327.443000", "132327.445000", "132327.448000", "132327.450000", "132327.452000", "132327.455000", "132347.410000", "132347.412000", "132347.415000", "132347.417000", "132347.420000", "132347.422000", "132347.425000", "132347.427000", "132347.429000", "132347.432000", "132347.434000", "132347.437000", "132347.439000", "132347.442000", "132347.444000", "132347.447000", "132347.449000", "132347.451000", "132347.454000", "132347.456000", "132407.410000", "132407.412000", "132407.415000", "132407.417000", "132407.420000", "132407.422000", "132407.425000", "132407.427000", "132407.430000", "132407.432000", "132407.434000", "132407.437000", "132407.439000", "132407.442000", "132407.444000", "132407.447000", "132407.449000", "132407.452000", "132407.454000", "132407.456000", "132427.409000", "132427.412000", "132427.414000", "132427.417000", "132427.419000", "132427.422000", "132427.424000", "132427.427000", "132427.429000", "132427.431000", "132427.434000", "132427.436000", "132427.439000", "132427.441000", "132427.444000", "132427.446000", "132427.449000", "132427.451000", "132427.453000", "132427.456000", "132438.079000", "132438.082000", "132438.084000", "132438.087000", "132438.089000", "132438.092000", "132438.094000", "132438.097000", "132438.099000", "132438.111000", "132438.113000"],
