{
  "AcquisitionMatrixPE": 106,
  "AcquisitionNumber": 1,
  "AcquisitionTime": "13:32:50.650000",
  "BandwidthPerPixelPhaseEncode": 16.846,
  "BaseResolution": 106,
  "BodyPartExamined": "BRAIN",
  "CoilCombinationMethod": "Sum of Squares",
  "ConsistencyInfo": "N4_VE11C_LATEST_20160120",
  "ConversionSoftware": "dcm2niix",
  "ConversionSoftwareVersion": "v1.0.20220720",
  "DerivedVendorReportedEchoSpacing": 0.000560012,
  "DeviceSerialNumber": "166108",
  "DwellTime": 1.8e-06,
  "EchoTime": 0.0352,
  "EchoTrainLength": 106,
  "EffectiveEchoSpacing": 0.000560012,
  "FlipAngle": 60,
  "HeudiconvVersion": "1.3.0",
  "ImageComments": "Unaliased MB4/PE3/LB",
  "ImageOrientationPatientDICOM": [1, 0, 0, 0, 0.910684, -0.413104],
  "ImageOrientationText": "Tra>Cor(-24.4)",
  "ImageType": [
    "ORIGINAL",
    "PRIMARY",
    "M",
    "MB",
    "ND",
    "MOSAIC"
],
  "ImagingFrequency": 123.244,
  "InPlanePhaseEncodingDirectionDICOM": "COL",
  "InstitutionAddress": "Bedford Way 26,London,London,GB,WC1H 0AP",
  "InstitutionName": "University College",
  "InstitutionalDepartmentName": "Department",
  "MRAcquisitionType": "2D",
  "MagneticFieldStrength": 3,
  "Manufacturer": "Siemens",
  "ManufacturersModelName": "Prisma",
  "MatrixCoilMode": "SENSE",
  "Modality": "MR",
  "MultibandAccelerationFactor": 4,
  "NonlinearGradientCorrection": false,
  "PartialFourier": 1,
  "PatientPosition": "HFS",
  "PercentPhaseFOV": 100,
  "PercentSampling": 100,
  "PhaseEncodingDirection": "j-",
  "PhaseEncodingSteps": 106,
  "PhaseResolution": 1,
  "PixelBandwidth": 2620,
  "ProcedureStepDescription": "Egor^MovieProject2",
  "ProtocolName": "func-bold_task-pRF_run-01",
  "PulseSequenceDetails": "%CustomerSeq%\\cmrr_mbep2d_bold",
  "ReceiveCoilActiveElements": "HEA;HEP",
  "ReceiveCoilName": "Head_32",
  "ReconMatrixPE": 106,
  "RepetitionTime": 1,
  "SAR": 0.0855757,
  "ScanOptions": "FS\\EXT",
  "ScanningSequence": "EP",
  "SequenceName": "epfid2d1_106",
  "SequenceVariant": "SK\\SS",
  "SeriesDescription": "func-bold_task-pRF_run-01",
  "SeriesNumber": 10,
  "ShimSetting": [-1541, 625, 7435, 356, -58, 97, 54, -72],
  "SliceThickness": 2,
  "SliceTiming": [0, 0.4075, 0.815, 0.245, 0.6525, 0.08, 0.49, 0.8975, 0.325, 0.735, 0.1625, 0.57, 0, 0.4075, 0.815, 0.245, 0.6525, 0.08, 0.49, 0.8975, 0.325, 0.735, 0.1625, 0.57, 0, 0.4075, 0.815, 0.245, 0.6525, 0.08, 0.49, 0.8975, 0.325, 0.735, 0.1625, 0.57, 0, 0.4075, 0.815, 0.245, 0.6525, 0.08, 0.49, 0.8975, 0.325, 0.735, 0.1625, 0.57],
  "SoftwareVersions": "syngo MR E11",
  "SpacingBetweenSlices": 2,
  "StationName": "AWP166108",
  "TaskName": "retinotopy",
  "TotalReadoutTime": 0.0588013,
  "TxRefAmp": 220.584,
  "WipMemBlock": "4a8947ae-6396-4725-81b9-f37077d6854a||Sequence: R016 ve11c/master r/e634e98; Dec 19 2017 11:00:25 by eja",
  "dcmmeta_affine": [
    [-2.0, 0.0, 0.0, 106.0],
    [0.0, 1.8213672637939453, -0.8262088298797607, -76.5289306640625],
    [0.0, 0.8262088298797607, 1.8213672637939453, -51.8372802734375],
    [0.0, 0.0, 0.0, 1.0]
],
  "dcmmeta_reorient_transform": [
    [0.0, -1.0, 0.0, 105.0],
    [1.0, 0.0, 0.0, 0.0],
    [0.0, 0.0, 1.0, 0.0],
    [0.0, 0.0, 0.0, 1.0]
],
  "dcmmeta_shape": [106, 106, 48, 356],
  "dcmmeta_slice_dim": 2,
  "dcmmeta_version": 0.6,
  "global": {
    "const": {
      "AcquisitionMatrix": [106, 0, 0, 106],
      "AngioFlag": "N",
      "BitsAllocated": 16,
      "BitsStored": 16,
      "BodyPartExamined": "BRAIN",
      "CardiacNumberOfImages": 1,
      "Columns": 742,
      "EchoNumbers": 1,
      "EchoTime": 35.2,
      "EchoTrainLength": 106,
      "FlipAngle": 60.0,
      "HighBit": 15,
      "ImageOrientationPatient": [1.0, 0.0, 0.0, 0.0, 0.91068366101552, -0.413104429363],
      "ImagePositionPatient": [-742.0, -693.90944924878, 297.64906546769],
      "ImageType": [
        "ORIGINAL",
        "PRIMARY",
        "M",
        "MB",
        "ND",
        "MOSAIC"
],
      "ImagedNucleus": "1H",
      "ImagingFrequency": 123.243628,
      "InPlanePhaseEncodingDirection": "COL",
      "MRAcquisitionType": "2D",
      "MagneticFieldStrength": 3.0,
      "Manufacturer": "SIEMENS",
      "ManufacturerModelName": "Prisma",
      "Modality": "MR",
      "NominalInterval": 0,
      "NumberOfAverages": 1.0,
      "NumberOfPhaseEncodingSteps": 106,
      "PercentPhaseFieldOfView": 100.0,
      "PercentSampling": 100.0,
      "PerformedProcedureStepStartTime": "123743.674000",
      "PhotometricInterpretation": "MONOCHROME2",
      "PixelBandwidth": 2620.0,
      "PixelRepresentation": 0,
      "PixelSpacing": [2.0, 2.0],
      "ProtocolName": "func-bold_task-pRF_run-01",
      "RepetitionTime": 1000.0,
      "Rows": 742,
      "SAR": 0.08557568690682,
      "SamplesPerPixel": 1,
      "ScanOptions": [
        "FS",
        "EXT"
],
      "ScanningSequence": "EP",
      "SequenceName": "epfid2d1_106",
      "SequenceVariant": [
        "SK",
        "SS"
],
      "SeriesDescription": "func-bold_task-pRF_run-01",
      "SeriesNumber": 10,
      "SeriesTime": "133316.938000",
      "SliceLocation": -15.59292642358,
      "SliceThickness": 2.0,
      "SmallestImagePixelValue": 0,
      "SoftwareVersions": "syngo MR E11",
      "SpacingBetweenSlices": 1.9999999967705,
      "SpecificCharacterSet": "ISO_IR 100",
      "StudyID": "1",
      "StudyTime": "123743.529000",
      "TransmitCoilName": "Body",
      "VariableFlipAngleFlag": "N",
      "WindowCenterWidthExplanation": "Algo1",
      "dBdt": 0.0},
    "slices": {}
  },
  "time": {
    "samples": {
      "AcquisitionNumber": [1, 2, 3, 4, 5, 6, 7, 8, 9, 10, 11, 12, 13, 14, 15, 16, 17, 18, 19, 20, 21, 22, 23, 24, 25, 26, 27, 28, 29, 30, 31, 32, 33, 34, 35, 36, 37, 38, 39, 40, 41, 42, 43, 44, 45, 46, 47, 48, 49, 50, 51, 52, 53, 54, 55, 56, 57, 58, 59, 60, 61, 62, 63, 64, 65, 66, 67, 68, 69, 70, 71, 72, 73, 74, 75, 76, 77, 78, 79, 80, 81, 82, 83, 84, 85, 86, 87, 88, 89, 90, 91, 92, 93, 94, 95, 96, 97, 98, 99, 100, 101, 102, 103, 104, 105, 106, 107, 108, 109, 110, 111, 112, 113, 114, 115, 116, 117, 118, 119, 120, 121, 122, 123, 124, 125, 126, 127, 128, 129, 130, 131, 132, 133, 134, 135, 136, 137, 138, 139, 140, 141, 142, 143, 144, 145, 146, 147, 148, 149, 150, 151, 152, 153, 154, 155, 156, 157, 158, 159, 160, 161, 162, 163, 164, 165, 166, 167, 168, 169, 170, 171, 172, 173, 174, 175, 176, 177, 178, 179, 180, 181, 182, 183, 184, 185, 186, 187, 188, 189, 190, 191, 192, 193, 194, 195, 196, 197, 198, 199, 200, 201, 202, 203, 204, 205, 206, 207, 208, 209, 210, 211, 212, 213, 214, 215, 216, 217, 218, 219, 220, 221, 222, 223, 224, 225, 226, 227, 228, 229, 230, 231, 232, 233, 234, 235, 236, 237, 238, 239, 240, 241, 242, 243, 244, 245, 246, 247, 248, 249, 250, 251, 252, 253, 254, 255, 256, 257, 258, 259, 260, 261, 262, 263, 264, 265, 266, 267, 268, 269, 270, 271, 272, 273, 274, 275, 276, 277, 278, 279, 280, 281, 282, 283, 284, 285, 286, 287, 288, 289, 290, 291, 292, 293, 294, 295, 296, 297, 298, 299, 300, 301, 302, 303, 304, 305, 306, 307, 308, 309, 310, 311, 312, 313, 314, 315, 316, 317, 318, 319, 320, 321, 322, 323, 324, 325, 326, 327, 328, 329, 330, 331, 332, 333, 334, 335, 336, 337, 338, 339, 340, 341, 342, 343, 344, 345, 346, 347, 348, 349, 350, 351, 352, 353, 354, 355, 356],
      "AcquisitionTime": ["133250.650000", "133251.650000", "133252.650000", "133253.650000", "133254.650000", "133255.650000", "133256.650000", "133257.650000", "133258.650000", "133259.650000", "133300.650000", "133301.650000", "133302.650000", "133303.650000", "133304.650000", "133305.650000", "133306.650000", "133307.650000", "133308.650000", "133309.650000", "133310.650000", "133311.650000", "133312.650000", "133313.650000", "133314.650000", "133315.650000", "133316.650000", "133317.650000", "133318.650000", "133319.650000", "133320.650000", "133321.650000", "133322.650000", "133323.650000", "133324.650000", "133325.650000", "133326.650000", "133327.650000", "133328.650000", "133329.650000", "133330.650000", "133331.650000", "133332.650000", "133333.650000", "133334.650000", "133335.650000", "133336.650000", "133337.650000", "133338.650000", "133339.650000", "133340.650000", "133341.650000", "133342.650000", "133343.650000", "133344.650000", "133345.650000", "133346.650000", "133347.650000", "133348.650000", "133349.650000", "133350.650000", "133351.650000", "133352.650000", "133353.650000", "133354.650000", "133355.650000", "133356.650000", "133357.650000", "133358.650000", "133359.650000", "133400.650000", "133401.650000", "133402.650000", "133403.650000", "133404.650000", "133405.650000", "133406.650000", "133407.650000", "133408.650000", "133409.650000", "133410.650000", "133411.650000", "133412.650000", "133413.650000", "133414.650000", "133415.650000", "133416.650000", "133417.650000", "133418.650000", "133419.650000", "133420.650000", "133421.650000", "133422.650000", "133423.650000", "133424.650000", "133425.650000", "133426.650000", "133427.650000", "133428.650000", "133429.650000", "133430.650000", "133431.650000", "133432.650000", "133433.650000", "133434.650000", "133435.650000", "133436.650000", "133437.650000", "133438.650000", "133439.650000", "133440.650000", "133441.650000", "133442.650000", "133443.650000", "133444.650000", "133445.650000", "133446.650000", "133447.650000", "133448.650000", "133449.650000", "133450.650000", "133451.650000", "133452.650000", "133453.650000", "133454.650000", "133455.650000", "133456.650000", "133457.650000", "133458.650000", "133459.650000", "133500.650000", "133501.650000", "133502.650000", "133503.650000", "133504.650000", "133505.650000", "133506.650000", "133507.650000", "133508.650000", "133509.650000", "133510.650000", "133511.650000", "133512.650000", "133513.650000", "133514.650000", "133515.650000", "133516.650000", "133517.650000", "133518.650000", "133519.650000", "133520.650000", "133521.650000", "133522.650000", "133523.650000", "133524.650000", "133525.650000", "133526.650000", "133527.650000", "133528.650000", "133529.650000", "133530.650000", "133531.650000", "133532.650000", "133533.650000", "133534.650000", "133535.650000", "133536.650000", "133537.650000", "133538.650000", "133539.650000", "133540.650000", "133541.650000", "133542.650000", "133543.650000", "133544.650000", "133545.650000", "133546.650000", "133547.650000", "133548.650000", "133549.650000", "133550.650000", "133551.650000", "133552.650000", "133553.650000", "133554.650000", "133555.650000", "133556.650000", "133557.650000", "133558.650000", "133559.650000", "133600.650000", "133601.650000", "133602.650000", "133603.650000", "133604.650000", "133605.650000", "133606.650000", "133607.650000", "133608.650000", "133609.650000", "133610.650000", "133611.650000", "133612.650000", "133613.650000", "133614.650000", "133615.650000", "133616.650000", "133617.650000", "133618.650000", "133619.650000", "133620.650000", "133621.650000", "133622.650000", "133623.650000", "133624.650000", "133625.650000", "133626.650000", "133627.650000", "133628.650000", "133629.650000", "133630.650000", "133631.650000", "133632.650000", "133633.650000", "133634.650000", "133635.650000", "133636.650000", "133637.650000", "133638.650000", "133639.650000", "133640.650000", "133641.650000", "133642.650000", "133643.650000", "133644.650000", "133645.650000", "133646.650000", "133647.650000", "133648.650000", "133649.650000", "133650.650000", "133651.650000", "133652.650000", "133653.650000", "133654.650000", "133655.650000", "133656.650000", "133657.650000", "133658.650000", "133659.650000", "133700.650000", "133701.650000", "133702.650000", "133703.650000", "133704.650000", "133705.650000", "133706.650000", "133707.650000", "133708.650000", "133709.650000", "133710.650000", "133711.650000", "133712.650000", "133713.650000", "133714.650000", "133715.650000", "133716.650000", "133717.650000", "133718.650000", "133719.650000", "133720.650000", "133721.650000", "133722.650000", "133723.650000", "133724.650000", "133725.650000", "133726.650000", "133727.650000", "133728.650000", "133729.650000", "133730.650000", "133731.650000", "133732.650000", "133733.650000", "133734.650000", "133735.650000", "133736.650000", "133737.650000", "133738.650000", "133739.650000", "133740.650000", "133741.650000", "133742.650000", "133743.650000", "133744.650000", "133745.650000", "133746.650000", "133747.650000", "133748.650000", "133749.650000", "133750.650000", "133751.650000", "133752.650000", "133753.650000", "133754.650000", "133755.650000", "133756.650000", "133757.650000", "133758.650000", "133759.650000", "133800.650000", "133801.650000", "133802.650000", "133803.650000", "133804.650000", "133805.650000", "133806.650000", "133807.650000", "133808.650000", "133809.650000", "133810.650000", "133811.650000", "133812.650000", "133813.650000", "133814.650000", "133815.650000", "133816.650000", "133817.650000", "133818.650000", "133819.650000", "133820.650000", "133821.650000", "133822.650000", "133823.650000", "133824.650000", "133825.650000", "133826.650000", "133827.650000", "133828.650000", "133829.650000", "133830.650000", "133831.650000", "133832.650000", "133833.650000", "133834.650000", "133835.650000", "133836.650000", "133837.650000", "133838.650000", "133839.650000", "133840.650000", "133841.650000", "133842.650000", "133843.650000", "133844.650000", "133845.650000"],
      "ContentTime": ["133316.941000", "133316.944000", "133316.947000", "133316.950000", "133316.952000", "133316.955000", "133316.957000", "133316.960000", "133316.962000", "133316.965000", "133316.967000", "133316.970000", "133316.972000", "133316.975000", "133316.977000", "133316.980000", "133316.982000", "133316.992000", "133316.995000", "133316.997000", "133317.001000", "133317.003000", "133317.006000", "133317.008000", "133317.011000", "133336.901000", "133336.904000", "133336.906000", "133336.909000", "133336.911000", "133336.914000", "133336.917000", "133336.919000", "133336.921000", "133336.924000", "133336.926000", "133336.929000", "133336.931000", "133336.934000", "133336.936000", "133336.939000", "133336.941000", "133336.944000", "133336.946000", "133336.955000", "133356.901000", "133356.904000", "133356.907000", "133356.909000", "133356.912000", "133356.914000", "133356.917000", "133356.919000", "133356.922000", "133356.924000", "133356.926000", "133356.929000", "133356.931000", "133356.934000", "133356.936000", "133356.939000", "133356.941000", "133356.947000", "133356.949000", "133356.952000", "133416.903000", "133416.905000", "133416.908000", "133416.910000", "133416.913000", "133416.915000", "133416.917000", "133416.920000", "133416.922000", "133416.925000", "133416.927000", "133416.930000", "133416.932000", "133416.935000", "133416.937000", "133416.940000", "133416.942000", "133416.945000", "133416.947000", "133416.949000", "133436.902000", "133436.905000", "133436.907000", "133436.910000", "133436.912000", "133436.915000", "133436.917000", "133436.920000", "133436.922000", "133436.925000", "133436.927000", "133436.930000", "133436.932000", "133436.934000", "133436.937000", "133436.939000", "133436.942000", "133436.944000", "133436.947000", "133436.949000", "133456.902000", "133456.905000", "133456.907000", "133456.910000", "133456.912000", "133456.915000", "133456.917000", "133456.920000", "133456.922000", "133456.925000", "133456.927000", "133456.929000", "133456.932000", "133456.934000", "133456.937000", "133456.939000", "133456.942000", "133456.944000", "133456.947000", "133456.949000", "133516.903000", "133516.918000", "133516.921000", "133516.923000", "133516.926000", "133516.928000", "133516.931000", "133516.933000", "133516.935000", "133516.938000", "133516.940000", "133516.943000", "133516.945000", "133516.948000", "133516.950000", "133516.953000", "133516.955000", "133516.958000", "133516.960000", "133516.962000", "133536.902000", "133536.905000", "133536.908000", "133536.910000", "133536.913000", "133536.915000", "133536.917000", "133536.920000", "133536.942000", "133536.945000", "133536.947000", "133536.950000", "133536.952000", "133536.954000", "133536.957000", "133536.959000", "133536.962000", "133536.965000", "133536.967000", "133536.969000", "133556.901000", "133556.904000", "133556.907000", "133556.909000", "133556.912000", "133556.914000", "133556.916000", "133556.919000", "133556.921000", "133556.924000", "133556.926000", "133556.929000", "133556.931000", "133556.934000", "133556.936000", "133556.939000", "133556.941000", "133556.943000", "133556.946000", "133556.949000", "133616.902000", "133616.904000", "133616.907000", "133616.909000", "133616.912000", "133616.914000", "133616.917000", "133616.919000", "133616.922000", "133616.924000", "133616.926000", "133616.929000", "133616.931000", "133616.934000", "133616.936000", "133616.939000", "133616.941000", "133616.944000", "133616.946000", "133616.949000", "133636.902000", "133636.905000", "133636.908000", "133636.910000", "133636.913000", "133636.915000", "133636.918000", "133636.920000", "133636.922000", "133636.925000", "133636.927000", "133636.930000", "133636.932000", "133636.935000", "133636.937000", "133636.940000", "133636.942000", "133636.945000", "133636.947000", "133636.950000", "133656.902000", "133656.905000", "133656.907000", "133656.910000", "133656.912000", "133656.915000", "133656.917000", "133656.920000", "133656.922000", "133656.925000", "133656.927000", "133656.930000", "133656.932000", "133656.935000", "133656.937000", "133656.940000", "133656.942000", "133656.944000", "133656.947000", "133656.949000", "133716.902000", "133716.905000", "133716.908000", "133716.910000", "133716.912000", "133716.915000", "133716.917000", "133716.920000", "133716.922000", "133716.925000", "133716.927000", "133716.930000", "133716.932000", "133716.940000", "133716.943000", "133716.945000", "133716.948000", "133716.950000", "133716.952000", "133716.955000", "133736.902000", "133736.905000", "133736.907000", "133736.910000", "133736.912000", "133736.915000", "133736.917000", "133736.920000", "133736.922000", "133736.925000", "133736.927000", "133736.930000", "133736.932000", "133736.935000", "133736.937000", "133736.940000", "133736.942000", "133736.945000", "133736.947000", "133736.950000", "133756.902000", "133756.905000", "133756.908000", "133756.910000", "133756.913000", "133756.915000", "133756.918000", "133756.920000", "133756.923000", "133756.925000", "133756.928000", "133756.930000", "133756.932000", "133756.935000", "133756.937000", "133756.940000", "133756.942000", "133756.945000", "133756.947000", "133756.950000", "133816.901000", "133816.904000", "133816.906000", "133816.909000", "133816.911000", "133816.914000", "133816.916000", "133816.919000", "133816.921000", "133816.924000", "133816.926000", "133816.929000", "133816.931000", "133816.934000", "133816.936000", "133816.939000", "133816.941000", "133816.943000", "133816.946000", "133816.948000", "133836.902000", "133836.904000", "133836.907000", "133836.909000", "133836.912000", "133836.914000", "133836.917000", "133836.919000", "133836.922000", "133836.924000", "133836.927000", "133836.929000", "133836.932000", "133836.934000", "133836.937000", "133836.939000", "133836.942000", "133836.944000", "133836.946000", "133836.949000", "133847.351000", "133847.354000", "133847.356000", "133847.359000", "133847.361000", "133847.364000", "133847.366000", "133847.369000", "133847.371000", "133847.374000", "133847.376000"],
      "InstanceCreationTime": ["133316.941000", "133316.944000", "133316.947000", "133316.950000", "133316.952000", "133316.955000", "133316.957000", "133316.960000", "133316.962000", "133316.965000", "133316.967000", "133316.970000", "133316.972000", "133316.975000", "133316.977000", "133316.980000", "133316.982000", "133316.992000", "133316.995000", "133316.997000", "133317.001000", "133317.003000", "133317.006000", "133317.008000", "133317.011000", "133336.901000", "133336.904000", "133336.906000", "133336.909000", "133336.911000", "133336.914000", "133336.917000", "133336.919000", "133336.921000", "133336.924000", "133336.926000", "133336.929000", "133336.931000", "133336.934000", "133336.936000", "133336.939000", "133336.941000", "133336.944000", "133336.946000", "133336.955000", "133356.901000", "133356.904000", "133356.907000", "133356.909000", "133356.912000", "133356.914000", "133356.917000", "133356.919000", "133356.922000", "133356.924000", "133356.926000", "133356.929000", "133356.931000", "133356.934000", "133356.936000", "133356.939000", "133356.941000", "133356.947000", "133356.949000", "133356.952000", "133416.903000", "133416.905000", "133416.908000", "133416.910000", "133416.913000", "133416.915000", "133416.917000", "133416.920000", "133416.922000", "133416.925000", "133416.927000", "133416.930000", "133416.932000", "133416.935000", "133416.937000", "133416.940000", "133416.942000", "133416.945000", "133416.947000", "133416.949000", "133436.902000", "133436.905000", "133436.907000", "133436.910000", "133436.912000", "133436.915000", "133436.917000", "133436.920000", "133436.922000", "133436.925000", "133436.927000", "133436.930000", "133436.932000", "133436.934000", "133436.937000", "133436.939000", "133436.942000", "133436.944000", "133436.947000", "133436.949000", "133456.902000", "133456.905000", "133456.907000", "133456.910000", "133456.912000", "133456.915000", "133456.917000", "133456.920000", "133456.922000", "133456.925000", "133456.927000", "133456.929000", "133456.932000", "133456.934000", "133456.937000", "133456.939000", "133456.942000", "133456.944000", "133456.947000", "133456.949000", "133516.903000", "133516.918000", "133516.921000", "133516.923000", "133516.926000", "133516.928000", "133516.931000", "133516.933000", "133516.935000", "133516.938000", "133516.940000", "133516.943000", "133516.945000", "133516.948000", "133516.950000", "133516.953000", "133516.955000", "133516.958000", "133516.960000", "133516.962000", "133536.902000", "133536.905000", "133536.908000", "133536.910000", "133536.913000", "133536.915000", "133536.917000", "133536.920000", "133536.942000", "133536.945000", "133536.947000", "133536.950000", "133536.952000", "133536.954000", "133536.957000", "133536.959000", "133536.962000", "133536.965000", "133536.967000", "133536.969000", "133556.901000", "133556.904000", "133556.907000", "133556.909000", "133556.912000", "133556.914000", "133556.916000", "133556.919000", "133556.921000", "133556.924000", "133556.926000", "133556.929000", "133556.931000", "133556.934000", "133556.936000", "133556.939000", "133556.941000", "133556.943000", "133556.946000", "133556.949000", "133616.902000", "133616.904000", "133616.907000", "133616.909000", "133616.912000", "133616.914000", "133616.917000", "133616.919000", "133616.922000", "133616.924000", "133616.926000", "133616.929000", "133616.931000", "133616.934000", "133616.936000", "133616.939000", "133616.941000", "133616.944000", "133616.946000", "133616.949000", "133636.902000", "133636.905000", "133636.908000", "133636.910000", "133636.913000", "133636.915000", "133636.918000", "133636.920000", "133636.922000", "133636.925000", "133636.927000", "133636.930000", "133636.932000", "133636.935000", "133636.937000", "133636.940000", "133636.942000", "133636.945000", "133636.947000", "133636.950000", "133656.902000", "133656.905000", "133656.907000", "133656.910000", "133656.912000", "133656.915000", "133656.917000", "133656.920000", "133656.922000", "133656.925000", "133656.927000", "133656.930000", "133656.932000", "133656.935000", "133656.937000", "133656.940000", "133656.942000", "133656.944000", "133656.947000", "133656.949000", "133716.902000", "133716.905000", "133716.908000", "133716.910000", "133716.912000", "133716.915000", "133716.917000", "133716.920000", "133716.922000", "133716.925000", "133716.927000", "133716.930000", "133716.932000", "133716.940000", "133716.943000", "133716.945000", "133716.948000", "133716.950000", "133716.952000", "133716.955000", "133736.902000", "133736.905000", "133736.907000", "133736.910000", "133736.912000", "133736.915000", "133736.917000", "133736.920000", "133736.922000", "133736.925000", "133736.927000", "133736.930000", "133736.932000", "133736.935000", "133736.937000", "133736.940000", "133736.942000", "133736.945000", "133736.947000", "133736.950000", "133756.902000", "133756.905000", "133756.908000", "133756.910000", "133756.913000", "133756.915000", "133756.918000", "133756.920000", "133756.923000", "133756.925000", "133756.928000", "133756.930000", "133756.932000", "133756.935000", "133756.937000", "133756.940000", "133756.942000", "133756.945000", "133756.947000", "133756.950000", "133816.901000", "133816.904000", "133816.906000", "133816.909000", "133816.911000", "133816.914000", "133816.916000", "133816.919000", "133816.921000", "133816.924000", "133816.926000", "133816.929000", "133816.931000", "133816.934000", "133816.936000", "133816.939000", "133816.941000", "133816.943000", "133816.946000", "133816.948000", "133836.902000", "133836.904000", "133836.907000", "133836.909000", "133836.912000", "133836.914000", "133836.917000", "133836.919000", "133836.922000", "133836.924000", "133836.927000", "133836.929000", "133836.932000", "133836.934000", "133836.937000", "133836.939000", "133836.942000", "133836.944000", "133836.946000", "133836.949000", "133847.351000", "133847.354000", "133847.356000", "133847.359000", "133847.361000", "133847.364000", "133847.366000", "133847.369000", "133847.371000", "133847.374000", "133847.376000"],
      "InstanceNumber": [1, 2, 3, 4, 5, 6, 7, 8, 9, 10, 11, 12, 13, 14, 15, 16, 17, 18, 19, 20, 21, 22, 23, 24, 25, 26, 27, 28, 29, 30, 31, 32, 33, 34, 35, 36, 37, 38, 39, 40, 41, 42, 43, 44, 45, 46, 47, 48, 49, 50, 51, 52, 53, 54, 55, 56, 57, 58, 59, 60, 61, 62, 63, 64, 65, 66, 67, 68, 69, 70, 71, 72, 73, 74, 75, 76, 77, 78, 79, 80, 81, 82, 83, 84, 85, 86, 87, 88, 89, 90, 91, 92, 93, 94, 95, 96, 97, 98, 99, 100, 101, 102, 103, 104, 105, 106, 107, 108, 109, 110, 111, 112, 113, 114, 115, 116, 117, 118, 119, 120, 121, 122, 123, 124, 125, 126, 127, 128, 129, 130, 131, 132, 133, 134, 135, 136, 137, 138, 139, 140, 141, 142, 143, 144, 145, 146, 147, 148, 149, 150, 151, 152, 153, 154, 155, 156, 157, 158, 159, 160, 161, 162, 163, 164, 165, 166, 167, 168, 169, 170, 171, 172, 173, 174, 175, 176, 177, 178, 179, 180, 181, 182, 183, 184, 185, 186, 187, 188, 189, 190, 191, 192, 193, 194, 195, 196, 197, 198, 199, 200, 201, 202, 203, 204, 205, 206, 207, 208, 209, 210, 211, 212, 213, 214, 215, 216, 217, 218, 219, 220, 221, 222, 223, 224, 225, 226, 227, 228, 229, 230, 231, 232, 233, 234, 235, 236, 237, 238, 239, 240, 241, 242, 243, 244, 245, 246, 247, 248, 249, 250, 251, 252, 253, 254, 255, 256, 257, 258, 259, 260, 261, 262, 263, 264, 265, 266, 267, 268, 269, 270, 271, 272, 273, 274, 275, 276, 277, 278, 279, 280, 281, 282, 283, 284, 285, 286, 287, 288, 289, 290, 291, 292, 293, 294, 295, 296, 297, 298, 299, 300, 301, 302, 303, 304, 305, 306, 307, 308, 309, 310, 311, 312, 313, 314, 315, 316, 317, 318, 319, 320, 321, 322, 323, 324, 325, 326, 327, 328, 329, 330, 331, 332, 333, 334, 335, 336, 337, 338, 339, 340, 341, 342, 343, 344, 345, 346, 347, 348, 349, 350, 351, 352, 353, 354, 355, 356],
      "LargestImagePixelValue": [13705, 13363, 13037, 12874, 13058, 12841, 12790, 12878, 12915, 12684, 12754, 12795, 12708, 12700, 12770, 12671, 12654, 12633, 12616, 12521, 12656, 12592, 12672, 12783, 12547, 12657, 12632, 12620, 12675, 12692, 12733, 12748, 12784, 12569, 12624, 12568, 12654, 12629, 12688, 12699, 12620, 12710, 12613, 12581, 12615, 12616, 12655, 12572, 12607, 12616, 12608, 12622, 12621, 12476, 12567, 12550, 12630, 12642, 12636, 12531, 12560, 12581, 12671, 12565, 12535, 12697, 12617, 12691, 12675, 12818, 12600, 12670, 12589, 12593, 12688, 12685, 12690, 12657, 12763, 12507, 12757, 12613, 12524, 12580, 12623, 12649, 12631, 12641, 12696, 12662, 12643, 12667, 12599, 12694, 12598, 12585, 12741, 12723, 12777, 12677, 12742, 12677, 12752, 12728, 12598, 12649, 12790, 12823, 12595, 12787, 12592, 12652, 12588, 12589, 12548, 12632, 12581, 12656, 12661, 12669, 12724, 12685, 12759, 12815, 12604, 12755, 12687, 12650, 12753, 12614, 12660, 12693, 12682, 12599, 12752, 12671, 12596, 12620, 12697, 12492, 12603, 12715, 12664, 12608, 12705, 12622, 12634, 12736, 12629, 12788, 12684, 12659, 12643, 12599, 12657, 12596, 12626, 12528, 12636, 12602, 12637, 12576, 12637, 12586, 12640, 12623, 12592, 12589, 12663, 12583, 12611, 12686, 12654, 12637, 12648, 12662, 12854, 12715, 12685, 12769, 12643, 12727, 12557, 12663, 12694, 12603, 12556, 12615, 12516, 12555, 12625, 12561, 12570, 12634, 12573, 12614, 12614, 12585, 12704, 12703, 12648, 12684, 12647, 12564, 12613, 12610, 12605, 12644, 12569, 12681, 12568, 12606, 12608, 12726, 12648, 12640, 12862, 12709, 12624, 12927, 12816, 12696, 12742, 12667, 12686, 12650, 12643, 12580, 12660, 12694, 12712, 12751, 12644, 12590, 12700, 12719, 12849, 12550, 12646, 12686, 12686, 12854, 12751, 12554, 12765, 12695, 12668, 12702, 12788, 12853, 12755, 12849, 12696, 12695, 12690, 12615, 12647, 12588, 12721, 12756, 12717, 12665, 12662, 12654, 12699, 12618, 12690, 12702, 12624, 12774, 12710, 12734, 12711, 12662, 12735, 12809, 12697, 12812, 12897, 12690, 12900, 12947, 12966, 13005, 12809, 12738, 12783, 12731, 12742, 12735, 12712, 12524, 12705, 12832, 12753, 12808, 12667, 12707, 12700, 12727, 12874, 12829, 12771, 12763, 12620, 12778, 12637, 12711, 12557, 12818, 12704, 12488, 12669, 12653, 12649, 12743, 12670, 12929, 12657, 12665, 12942, 12793, 12755, 12801, 12732, 12707, 12872, 12782, 12744, 12981, 12869, 12760, 13028, 12877, 12793, 12861, 12845, 12965, 12728, 12580, 12706, 12931, 12722, 12742, 12691, 12690, 12719, 12766, 12750, 12731, 12721, 12884, 12787, 12701, 12894, 12837],
