{
  "AcquisitionMatrixPE": 106,
  "AcquisitionNumber": 1,
  "AcquisitionTime": "13:47:58.917500",
  "BandwidthPerPixelPhaseEncode": 16.846,
  "BaseResolution": 106,
  "BodyPartExamined": "BRAIN",
  "CoilCombinationMethod": "Sum of Squares",
  "ConsistencyInfo": "N4_VE11C_LATEST_20160120",
  "ConversionSoftware": "dcm2niix",
  "ConversionSoftwareVersion": "v1.0.20220720",
  "DerivedVendorReportedEchoSpacing": 0.000560012,
  "DeviceSerialNumber": "166108",
  "DwellTime": 1.8e-06,
  "EchoTime": 0.0352,
  "EchoTrainLength": 106,
  "EffectiveEchoSpacing": 0.000560012,
  "FlipAngle": 60,
  "HeudiconvVersion": "1.3.0",
  "ImageComments": "Unaliased MB4/PE3/LB",
  "ImageOrientationPatientDICOM": [1, 0, 0, 0, 0.910684, -0.413104],
  "ImageOrientationText": "Tra>Cor(-24.4)",
  "ImageType": [
    "ORIGINAL",
    "PRIMARY",
    "M",
    "MB",
    "ND",
    "MOSAIC"
],
  "ImagingFrequency": 123.244,
  "InPlanePhaseEncodingDirectionDICOM": "COL",
  "InstitutionAddress": "Bedford Way 26,London,London,GB,WC1H 0AP",
  "InstitutionName": "University College",
  "InstitutionalDepartmentName": "Department",
  "MRAcquisitionType": "2D",
  "MagneticFieldStrength": 3,
  "Manufacturer": "Siemens",
  "ManufacturersModelName": "Prisma",
  "MatrixCoilMode": "SENSE",
  "Modality": "MR",
  "MultibandAccelerationFactor": 4,
  "NonlinearGradientCorrection": false,
  "PartialFourier": 1,
  "PatientPosition": "HFS",
  "PercentPhaseFOV": 100,
  "PercentSampling": 100,
  "PhaseEncodingDirection": "j-",
  "PhaseEncodingSteps": 106,
  "PhaseResolution": 1,
  "PixelBandwidth": 2620,
  "ProcedureStepDescription": "Egor^MovieProject2",
  "ProtocolName": "func-bold_task-pRF_run-03",
  "PulseSequenceDetails": "%CustomerSeq%\\cmrr_mbep2d_bold",
  "ReceiveCoilActiveElements": "HEA;HEP",
  "ReceiveCoilName": "Head_32",
  "ReconMatrixPE": 106,
  "RepetitionTime": 1,
  "SAR": 0.0855757,
  "ScanOptions": "FS\\EXT",
  "ScanningSequence": "EP",
  "SequenceName": "epfid2d1_106",
  "SequenceVariant": "SK\\SS",
  "SeriesDescription": "func-bold_task-pRF_run-03",
  "SeriesNumber": 14,
  "ShimSetting": [-1541, 625, 7435, 356, -58, 97, 54, -72],
  "SliceThickness": 2,
  "SliceTiming": [0, 0.41, 0.8175, 0.245, 0.655, 0.0825, 0.49, 0.9, 0.3275, 0.735, 0.165, 0.5725, 0, 0.41, 0.8175, 0.245, 0.655, 0.0825, 0.49, 0.9, 0.3275, 0.735, 0.165, 0.5725, 0, 0.41, 0.8175, 0.245, 0.655, 0.0825, 0.49, 0.9, 0.3275, 0.735, 0.165, 0.5725, 0, 0.41, 0.8175, 0.245, 0.655, 0.0825, 0.49, 0.9, 0.3275, 0.735, 0.165, 0.5725],
  "SoftwareVersions": "syngo MR E11",
  "SpacingBetweenSlices": 2,
  "StationName": "AWP166108",
  "TaskName": "retinotopy",
  "TotalReadoutTime": 0.0588013,
  "TxRefAmp": 220.584,
  "WipMemBlock": "bafc16cb-0162-480e-a2bd-39bcbb2f594f||Sequence: R016 ve11c/master r/e634e98; Dec 19 2017 11:00:25 by eja",
  "dcmmeta_affine": [
    [-2.0, 0.0, 0.0, 106.0],
    [0.0, 1.8213672637939453, -0.8262088298797607, -76.5289306640625],
    [0.0, 0.8262088298797607, 1.8213672637939453, -51.8372802734375],
    [0.0, 0.0, 0.0, 1.0]
],
  "dcmmeta_reorient_transform": [
    [0.0, -1.0, 0.0, 105.0],
    [1.0, 0.0, 0.0, 0.0],
    [0.0, 0.0, 1.0, 0.0],
    [0.0, 0.0, 0.0, 1.0]
],
  "dcmmeta_shape": [106, 106, 48, 356],
  "dcmmeta_slice_dim": 2,
  "dcmmeta_version": 0.6,
  "global": {
    "const": {
      "AcquisitionMatrix": [106, 0, 0, 106],
      "AngioFlag": "N",
      "BitsAllocated": 16,
      "BitsStored": 16,
      "BodyPartExamined": "BRAIN",
      "CardiacNumberOfImages": 1,
      "Columns": 742,
      "EchoNumbers": 1,
      "EchoTime": 35.2,
      "EchoTrainLength": 106,
      "FlipAngle": 60.0,
      "HighBit": 15,
      "ImageOrientationPatient": [1.0, 0.0, 0.0, 0.0, 0.91068366101552, -0.413104429363],
      "ImagePositionPatient": [-742.0, -693.90944924878, 297.64906546769],
      "ImageType": [
        "ORIGINAL",
        "PRIMARY",
        "M",
        "MB",
        "ND",
        "MOSAIC"
],
      "ImagedNucleus": "1H",
      "ImagingFrequency": 123.243635,
      "InPlanePhaseEncodingDirection": "COL",
      "MRAcquisitionType": "2D",
      "MagneticFieldStrength": 3.0,
      "Manufacturer": "SIEMENS",
      "ManufacturerModelName": "Prisma",
      "Modality": "MR",
      "NominalInterval": 0,
      "NumberOfAverages": 1.0,
      "NumberOfPhaseEncodingSteps": 106,
      "PercentPhaseFieldOfView": 100.0,
      "PercentSampling": 100.0,
      "PerformedProcedureStepStartTime": "123743.674000",
      "PhotometricInterpretation": "MONOCHROME2",
      "PixelBandwidth": 2620.0,
      "PixelRepresentation": 0,
      "PixelSpacing": [2.0, 2.0],
      "ProtocolName": "func-bold_task-pRF_run-03",
      "RepetitionTime": 1000.0,
      "Rows": 742,
      "SAR": 0.08557568690682,
      "SamplesPerPixel": 1,
      "ScanOptions": [
        "FS",
        "EXT"
],
      "ScanningSequence": "EP",
      "SequenceName": "epfid2d1_106",
      "SequenceVariant": [
        "SK",
        "SS"
],
      "SeriesDescription": "func-bold_task-pRF_run-03",
      "SeriesNumber": 14,
      "SeriesTime": "134827.499000",
      "SliceLocation": -15.59292642358,
      "SliceThickness": 2.0,
      "SmallestImagePixelValue": 0,
      "SoftwareVersions": "syngo MR E11",
      "SpacingBetweenSlices": 1.9999999967705,
      "SpecificCharacterSet": "ISO_IR 100",
      "StudyID": "1",
      "StudyTime": "123743.529000",
      "TransmitCoilName": "Body",
      "VariableFlipAngleFlag": "N",
      "WindowCenterWidthExplanation": "Algo1",
      "dBdt": 0.0},
    "slices": {}
  },
  "time": {
    "samples": {
      "AcquisitionNumber": [1, 2, 3, 4, 5, 6, 7, 8, 9, 10, 11, 12, 13, 14, 15, 16, 17, 18, 19, 20, 21, 22, 23, 24, 25, 26, 27, 28, 29, 30, 31, 32, 33, 34, 35, 36, 37, 38, 39, 40, 41, 42, 43, 44, 45, 46, 47, 48, 49, 50, 51, 52, 53, 54, 55, 56, 57, 58, 59, 60, 61, 62, 63, 64, 65, 66, 67, 68, 69, 70, 71, 72, 73, 74, 75, 76, 77, 78, 79, 80, 81, 82, 83, 84, 85, 86, 87, 88, 89, 90, 91, 92, 93, 94, 95, 96, 97, 98, 99, 100, 101, 102, 103, 104, 105, 106, 107, 108, 109, 110, 111, 112, 113, 114, 115, 116, 117, 118, 119, 120, 121, 122, 123, 124, 125, 126, 127, 128, 129, 130, 131, 132, 133, 134, 135, 136, 137, 138, 139, 140, 141, 142, 143, 144, 145, 146, 147, 148, 149, 150, 151, 152, 153, 154, 155, 156, 157, 158, 159, 160, 161, 162, 163, 164, 165, 166, 167, 168, 169, 170, 171, 172, 173, 174, 175, 176, 177, 178, 179, 180, 181, 182, 183, 184, 185, 186, 187, 188, 189, 190, 191, 192, 193, 194, 195, 196, 197, 198, 199, 200, 201, 202, 203, 204, 205, 206, 207, 208, 209, 210, 211, 212, 213, 214, 215, 216, 217, 218, 219, 220, 221, 222, 223, 224, 225, 226, 227, 228, 229, 230, 231, 232, 233, 234, 235, 236, 237, 238, 239, 240, 241, 242, 243, 244, 245, 246, 247, 248, 249, 250, 251, 252, 253, 254, 255, 256, 257, 258, 259, 260, 261, 262, 263, 264, 265, 266, 267, 268, 269, 270, 271, 272, 273, 274, 275, 276, 277, 278, 279, 280, 281, 282, 283, 284, 285, 286, 287, 288, 289, 290, 291, 292, 293, 294, 295, 296, 297, 298, 299, 300, 301, 302, 303, 304, 305, 306, 307, 308, 309, 310, 311, 312, 313, 314, 315, 316, 317, 318, 319, 320, 321, 322, 323, 324, 325, 326, 327, 328, 329, 330, 331, 332, 333, 334, 335, 336, 337, 338, 339, 340, 341, 342, 343, 344, 345, 346, 347, 348, 349, 350, 351, 352, 353, 354, 355, 356],
      "AcquisitionTime": ["134758.917500", "134759.917500", "134800.917500", "134801.917500", "134802.917500", "134803.917500", "134804.917500", "134805.917500", "134806.917500", "134807.917500", "134808.917500", "134809.917500", "134810.917500", "134811.917500", "134812.917500", "134813.917500", "134814.917500", "134815.917500", "134816.917500", "134817.917500", "134818.917500", "134819.917500", "134820.917500", "134821.917500", "134822.917500", "134823.917500", "134824.917500", "134825.917500", "134826.917500", "134827.917500", "134828.917500", "134829.917500", "134830.917500", "134831.917500", "134832.917500", "134833.917500", "134834.917500", "134835.917500", "134836.917500", "134837.917500", "134838.917500", "134839.917500", "134840.917500", "134841.917500", "134842.917500", "134843.917500", "134844.917500", "134845.917500", "134846.917500", "134847.917500", "134848.917500", "134849.917500", "134850.917500", "134851.917500", "134852.917500", "134853.917500", "134854.917500", "134855.917500", "134856.917500", "134857.917500", "134858.917500", "134859.917500", "134900.917500", "134901.917500", "134902.917500", "134903.917500", "134904.917500", "134905.917500", "134906.917500", "134907.917500", "134908.917500", "134909.917500", "134910.917500", "134911.917500", "134912.917500", "134913.917500", "134914.917500", "134915.917500", "134916.917500", "134917.917500", "134918.917500", "134919.917500", "134920.917500", "134921.917500", "134922.917500", "134923.917500", "134924.917500", "134925.917500", "134926.917500", "134927.917500", "134928.917500", "134929.917500", "134930.917500", "134931.917500", "134932.917500", "134933.917500", "134934.917500", "134935.917500", "134936.917500", "134937.917500", "134938.917500", "134939.917500", "134940.917500", "134941.917500", "134942.917500", "134943.917500", "134944.917500", "134945.917500", "134946.917500", "134947.917500", "134948.917500", "134949.917500", "134950.917500", "134951.917500", "134952.917500", "134953.917500", "134954.917500", "134955.917500", "134956.917500", "134957.917500", "134958.917500", "134959.917500", "135000.917500", "135001.917500", "135002.917500", "135003.917500", "135004.917500", "135005.917500", "135006.917500", "135007.917500", "135008.917500", "135009.917500", "135010.917500", "135011.917500", "135012.917500", "135013.917500", "135014.917500", "135015.917500", "135016.917500", "135017.917500", "135018.917500", "135019.917500", "135020.917500", "135021.917500", "135022.917500", "135023.917500", "135024.917500", "135025.917500", "135026.917500", "135027.917500", "135028.917500", "135029.917500", "135030.917500", "135031.917500", "135032.917500", "135033.917500", "135034.917500", "135035.917500", "135036.917500", "135037.917500", "135038.917500", "135039.917500", "135040.917500", "135041.917500", "135042.917500", "135043.917500", "135044.917500", "135045.917500", "135046.917500", "135047.917500", "135048.917500", "135049.917500", "135050.917500", "135051.917500", "135052.917500", "135053.917500", "135054.917500", "135055.917500", "135056.917500", "135057.917500", "135058.917500", "135059.917500", "135100.917500", "135101.917500", "135102.917500", "135103.917500", "135104.917500", "135105.917500", "135106.917500", "135107.917500", "135108.917500", "135109.917500", "135110.917500", "135111.917500", "135112.917500", "135113.917500", "135114.917500", "135115.917500", "135116.917500", "135117.917500", "135118.917500", "135119.917500", "135120.917500", "135121.917500", "135122.917500", "135123.917500", "135124.917500", "135125.917500", "135126.917500", "135127.917500", "135128.917500", "135129.917500", "135130.917500", "135131.917500", "135132.917500", "135133.917500", "135134.917500", "135135.917500", "135136.917500", "135137.917500", "135138.917500", "135139.917500", "135140.917500", "135141.917500", "135142.917500", "135143.917500", "135144.917500", "135145.917500", "135146.917500", "135147.917500", "135148.917500", "135149.917500", "135150.917500", "135151.917500", "135152.917500", "135153.917500", "135154.917500", "135155.917500", "135156.917500", "135157.917500", "135158.917500", "135159.917500", "135200.917500", "135201.917500", "135202.917500", "135203.917500", "135204.917500", "135205.917500", "135206.917500", "135207.917500", "135208.917500", "135209.917500", "135210.917500", "135211.917500", "135212.917500", "135213.917500", "135214.917500", "135215.917500", "135216.917500", "135217.917500", "135218.917500", "135219.917500", "135220.917500", "135221.917500", "135222.917500", "135223.917500", "135224.917500", "135225.917500", "135226.917500", "135227.917500", "135228.917500", "135229.917500", "135230.917500", "135231.917500", "135232.917500", "135233.917500", "135234.917500", "135235.917500", "135236.917500", "135237.917500", "135238.917500", "135239.917500", "135240.917500", "135241.917500", "135242.917500", "135243.917500", "135244.917500", "135245.917500", "135246.917500", "135247.917500", "135248.917500", "135249.917500", "135250.917500", "135251.917500", "135252.917500", "135253.917500", "135254.917500", "135255.917500", "135256.917500", "135257.917500", "135258.917500", "135259.917500", "135300.917500", "135301.917500", "135302.917500", "135303.917500", "135304.917500", "135305.917500", "135306.917500", "135307.917500", "135308.917500", "135309.917500", "135310.917500", "135311.917500", "135312.917500", "135313.917500", "135314.917500", "135315.917500", "135316.917500", "135317.917500", "135318.917500", "135319.917500", "135320.917500", "135321.917500", "135322.917500", "135323.917500", "135324.917500", "135325.917500", "135326.917500", "135327.917500", "135328.917500", "135329.917500", "135330.917500", "135331.917500", "135332.917500", "135333.917500", "135334.917500", "135335.917500", "135336.917500", "135337.917500", "135338.917500", "135339.917500", "135340.917500", "135341.917500", "135342.917500", "135343.917500", "135344.917500", "135345.917500", "135346.917500", "135347.917500", "135348.917500", "135349.917500", "135350.917500", "135351.917500", "135352.917500", "135353.917500"],
      "ContentTime": ["134827.501000", "134827.504000", "134827.507000", "134827.509000", "134827.512000", "134827.514000", "134827.517000", "134827.520000", "134827.522000", "134827.525000", "134827.538000", "134827.540000", "134827.543000", "134827.545000", "134827.548000", "134827.551000", "134827.554000", "134827.556000", "134827.559000", "134827.561000", "134827.564000", "134827.567000", "134827.569000", "134827.572000", "134827.575000", "134827.577000", "134827.580000", "134847.470000", "134847.473000", "134847.484000", "134847.486000", "134847.489000", "134847.491000", "134847.493000", "134847.496000", "134847.498000", "134847.501000", "134847.503000", "134847.513000", "134847.516000", "134847.518000", "134847.521000", "134847.523000", "134847.525000", "134847.528000", "134847.530000", "134847.533000", "134907.471000", "134907.474000", "134907.476000", "134907.479000", "134907.481000", "134907.484000", "134907.486000", "134907.489000", "134907.491000", "134907.494000", "134907.496000", "134907.498000", "134907.501000", "134907.503000", "134907.506000", "134907.508000", "134907.511000", "134907.513000", "134907.516000", "134907.518000", "134927.472000", "134927.474000", "134927.477000", "134927.479000", "134927.482000", "134927.492000", "134927.495000", "134927.497000", "134927.500000", "134927.502000", "134927.505000", "134927.507000", "134927.509000", "134927.512000", "134927.514000", "134927.517000", "134927.519000", "134927.522000", "134927.524000", "134927.527000", "134947.471000", "134947.474000", "134947.476000", "134947.479000", "134947.481000", "134947.484000", "134947.486000", "134947.489000", "134947.491000", "134947.493000", "134947.496000", "134947.498000", "134947.501000", "134947.503000", "134947.506000", "134947.508000", "134947.511000", "134947.513000", "134947.515000", "134947.518000", "135007.472000", "135007.474000", "135007.477000", "135007.479000", "135007.482000", "135007.484000", "135007.487000", "135007.489000", "135007.492000", "135007.494000", "135007.497000", "135007.499000", "135007.501000", "135007.504000", "135007.506000", "135007.509000", "135007.511000", "135007.514000", "135007.516000", "135007.519000", "135027.471000", "135027.473000", "135027.476000", "135027.478000", "135027.481000", "135027.483000", "135027.486000", "135027.488000", "135027.490000", "135027.493000", "135027.495000", "135027.506000", "135027.509000", "135027.511000", "135027.514000", "135027.516000", "135027.518000", "135027.521000", "135027.523000", "135027.526000", "135047.470000", "135047.473000", "135047.476000", "135047.478000", "135047.480000", "135047.483000", "135047.485000", "135047.488000", "135047.490000", "135047.493000", "135047.495000", "135047.498000", "135047.500000", "135047.502000", "135047.505000", "135047.507000", "135047.510000", "135047.512000", "135047.515000", "135047.517000", "135107.470000", "135107.473000", "135107.475000", "135107.478000", "135107.480000", "135107.483000", "135107.485000", "135107.488000", "135107.490000", "135107.493000", "135107.495000", "135107.497000", "135107.500000", "135107.502000", "135107.505000", "135107.507000", "135107.510000", "135107.512000", "135107.515000", "135107.517000", "135127.471000", "135127.475000", "135127.477000", "135127.480000", "135127.482000", "135127.485000", "135127.487000", "135127.490000", "135127.492000", "135127.494000", "135127.497000", "135127.499000", "135127.502000", "135127.504000", "135127.507000", "135127.509000", "135127.512000", "135127.514000", "135127.517000", "135127.519000", "135147.471000", "135147.474000", "135147.477000", "135147.479000", "135147.481000", "135147.484000", "135147.486000", "135147.489000", "135147.491000", "135147.494000", "135147.496000", "135147.499000", "135147.501000", "135147.504000", "135147.506000", "135147.509000", "135147.511000", "135147.513000", "135147.516000", "135147.518000", "135207.471000", "135207.474000", "135207.476000", "135207.479000", "135207.481000", "135207.484000", "135207.486000", "135207.489000", "135207.491000", "135207.494000", "135207.496000", "135207.498000", "135207.501000", "135207.503000", "135207.506000", "135207.508000", "135207.511000", "135207.513000", "135207.516000", "135207.518000", "135227.471000", "135227.474000", "135227.477000", "135227.479000", "135227.482000", "135227.484000", "135227.486000", "135227.489000", "135227.491000", "135227.494000", "135227.496000", "135227.499000", "135227.501000", "135227.504000", "135227.517000", "135227.526000", "135227.528000", "135227.531000", "135227.533000", "135227.536000", "135247.470000", "135247.473000", "135247.476000", "135247.478000", "135247.480000", "135247.483000", "135247.485000", "135247.488000", "135247.490000", "135247.493000", "135247.495000", "135247.498000", "135247.500000", "135247.503000", "135247.505000", "135247.508000", "135247.510000", "135247.513000", "135247.515000", "135247.518000", "135307.470000", "135307.473000", "135307.475000", "135307.478000", "135307.480000", "135307.483000", "135307.485000", "135307.488000", "135307.490000", "135307.493000", "135307.495000", "135307.497000", "135307.500000", "135307.502000", "135307.505000", "135307.507000", "135307.510000", "135307.512000", "135307.515000", "135307.517000", "135327.471000", "135327.473000", "135327.476000", "135327.478000", "135327.481000", "135327.483000", "135327.486000", "135327.488000", "135327.490000", "135327.493000", "135327.495000", "135327.498000", "135327.500000", "135327.503000", "135327.505000", "135327.508000", "135327.510000", "135327.513000", "135327.515000", "135327.518000", "135347.472000", "135347.474000", "135347.477000", "135347.479000", "135347.482000", "135347.484000", "135347.487000", "135347.489000", "135347.492000", "135347.494000", "135347.497000", "135347.499000", "135347.502000", "135347.504000", "135347.506000", "135347.509000", "135347.511000", "135347.514000", "135347.516000", "135347.519000", "135355.805000", "135355.808000", "135355.810000", "135355.813000", "135355.816000", "135355.819000", "135355.822000", "135355.825000", "135355.828000"],
      "InstanceCreationTime": ["134827.501000", "134827.504000", "134827.507000", "134827.509000", "134827.512000", "134827.514000", "134827.517000", "134827.520000", "134827.522000", "134827.525000", "134827.538000", "134827.540000", "134827.543000", "134827.545000", "134827.548000", "134827.551000", "134827.554000", "134827.556000", "134827.559000", "134827.561000", "134827.564000", "134827.567000", "134827.569000", "134827.572000", "134827.575000", "134827.577000", "134827.580000", "134847.470000", "134847.473000", "134847.484000", "134847.486000", "134847.489000", "134847.491000", "134847.493000", "134847.496000", "134847.498000", "134847.501000", "134847.503000", "134847.513000", "134847.516000", "134847.518000", "134847.521000", "134847.523000", "134847.525000", "134847.528000", "134847.530000", "134847.533000", "134907.471000", "134907.474000", "134907.476000", "134907.479000", "134907.481000", "134907.484000", "134907.486000", "134907.489000", "134907.491000", "134907.494000", "134907.496000", "134907.498000", "134907.501000", "134907.503000", "134907.506000", "134907.508000", "134907.511000", "134907.513000", "134907.516000", "134907.518000", "134927.472000", "134927.474000", "134927.477000", "134927.479000", "134927.482000", "134927.492000", "134927.495000", "134927.497000", "134927.500000", "134927.502000", "134927.505000", "134927.507000", "134927.509000", "134927.512000", "134927.514000", "134927.517000", "134927.519000", "134927.522000", "134927.524000", "134927.527000", "134947.471000", "134947.474000", "134947.476000", "134947.479000", "134947.481000", "134947.484000", "134947.486000", "134947.489000", "134947.491000", "134947.493000", "134947.496000", "134947.498000", "134947.501000", "134947.503000", "134947.506000", "134947.508000", "134947.511000", "134947.513000", "134947.515000", "134947.518000", "135007.472000", "135007.474000", "135007.477000", "135007.479000", "135007.482000", "135007.484000", "135007.487000", "135007.489000", "135007.492000", "135007.494000", "135007.497000", "135007.499000", "135007.501000", "135007.504000", "135007.506000", "135007.509000", "135007.511000", "135007.514000", "135007.516000", "135007.519000", "135027.471000", "135027.473000", "135027.476000", "135027.478000", "135027.481000", "135027.483000", "135027.486000", "135027.488000", "135027.490000", "135027.493000", "135027.495000", "135027.506000", "135027.509000", "135027.511000", "135027.514000", "135027.516000", "135027.518000", "135027.521000", "135027.523000", "135027.526000", "135047.470000", "135047.473000", "135047.476000", "135047.478000", "135047.480000", "135047.483000", "135047.485000", "135047.488000", "135047.490000", "135047.493000", "135047.495000", "135047.498000", "135047.500000", "135047.502000", "135047.505000", "135047.507000", "135047.510000", "135047.512000", "135047.515000", "135047.517000", "135107.470000", "135107.473000", "135107.475000", "135107.478000", "135107.480000", "135107.483000", "135107.485000", "135107.488000", "135107.490000", "135107.493000", "135107.495000", "135107.497000", "135107.500000", "135107.502000", "135107.505000", "135107.507000", "135107.510000", "135107.512000", "135107.515000", "135107.517000", "135127.471000", "135127.475000", "135127.477000", "135127.480000", "135127.482000", "135127.485000", "135127.487000", "135127.490000", "135127.492000", "135127.494000", "135127.497000", "135127.499000", "135127.502000", "135127.504000", "135127.507000", "135127.509000", "135127.512000", "135127.514000", "135127.517000", "135127.519000", "135147.471000", "135147.474000", "135147.477000", "135147.479000", "135147.481000", "135147.484000", "135147.486000", "135147.489000", "135147.491000", "135147.494000", "135147.496000", "135147.499000", "135147.501000", "135147.504000", "135147.506000", "135147.509000", "135147.511000", "135147.513000", "135147.516000", "135147.518000", "135207.471000", "135207.474000", "135207.476000", "135207.479000", "135207.481000", "135207.484000", "135207.486000", "135207.489000", "135207.491000", "135207.494000", "135207.496000", "135207.498000", "135207.501000", "135207.503000", "135207.506000", "135207.508000", "135207.511000", "135207.513000", "135207.516000", "135207.518000", "135227.471000", "135227.474000", "135227.477000", "135227.479000", "135227.482000", "135227.484000", "135227.486000", "135227.489000", "135227.491000", "135227.494000", "135227.496000", "135227.499000", "135227.501000", "135227.504000", "135227.517000", "135227.526000", "135227.528000", "135227.531000", "135227.533000", "135227.536000", "135247.470000", "135247.473000", "135247.476000", "135247.478000", "135247.480000", "135247.483000", "135247.485000", "135247.488000", "135247.490000", "135247.493000", "135247.495000", "135247.498000", "135247.500000", "135247.503000", "135247.505000", "135247.508000", "135247.510000", "135247.513000", "135247.515000", "135247.518000", "135307.470000", "135307.473000", "135307.475000", "135307.478000", "135307.480000", "135307.483000", "135307.485000", "135307.488000", "135307.490000", "135307.493000", "135307.495000", "135307.497000", "135307.500000", "135307.502000", "135307.505000", "135307.507000", "135307.510000", "135307.512000", "135307.515000", "135307.517000", "135327.471000", "135327.473000", "135327.476000", "135327.478000", "135327.481000", "135327.483000", "135327.486000", "135327.488000", "135327.490000", "135327.493000", "135327.495000", "135327.498000", "135327.500000", "135327.503000", "135327.505000", "135327.508000", "135327.510000", "135327.513000", "135327.515000", "135327.518000", "135347.472000", "135347.474000", "135347.477000", "135347.479000", "135347.482000", "135347.484000", "135347.487000", "135347.489000", "135347.492000", "135347.494000", "135347.497000", "135347.499000", "135347.502000", "135347.504000", "135347.506000", "135347.509000", "135347.511000", "135347.514000", "135347.516000", "135347.519000", "135355.805000", "135355.808000", "135355.810000", "135355.813000", "135355.816000", "135355.819000", "135355.822000", "135355.825000", "135355.828000"],
      "InstanceNumber": [1, 2, 3, 4, 5, 6, 7, 8, 9, 10, 11, 12, 13, 14, 15, 16, 17, 18, 19, 20, 21, 22, 23, 24, 25, 26, 27, 28, 29, 30, 31, 32, 33, 34, 35, 36, 37, 38, 39, 40, 41, 42, 43, 44, 45, 46, 47, 48, 49, 50, 51, 52, 53, 54, 55, 56, 57, 58, 59, 60, 61, 62, 63, 64, 65, 66, 67, 68, 69, 70, 71, 72, 73, 74, 75, 76, 77, 78, 79, 80, 81, 82, 83, 84, 85, 86, 87, 88, 89, 90, 91, 92, 93, 94, 95, 96, 97, 98, 99, 100, 101, 102, 103, 104, 105, 106, 107, 108, 109, 110, 111, 112, 113, 114, 115, 116, 117, 118, 119, 120, 121, 122, 123, 124, 125, 126, 127, 128, 129, 130, 131, 132, 133, 134, 135, 136, 137, 138, 139, 140, 141, 142, 143, 144, 145, 146, 147, 148, 149, 150, 151, 152, 153, 154, 155, 156, 157, 158, 159, 160, 161, 162, 163, 164, 165, 166, 167, 168, 169, 170, 171, 172, 173, 174, 175, 176, 177, 178, 179, 180, 181, 182, 183, 184, 185, 186, 187, 188, 189, 190, 191, 192, 193, 194, 195, 196, 197, 198, 199, 200, 201, 202, 203, 204, 205, 206, 207, 208, 209, 210, 211, 212, 213, 214, 215, 216, 217, 218, 219, 220, 221, 222, 223, 224, 225, 226, 227, 228, 229, 230, 231, 232, 233, 234, 235, 236, 237, 238, 239, 240, 241, 242, 243, 244, 245, 246, 247, 248, 249, 250, 251, 252, 253, 254, 255, 256, 257, 258, 259, 260, 261, 262, 263, 264, 265, 266, 267, 268, 269, 270, 271, 272, 273, 274, 275, 276, 277, 278, 279, 280, 281, 282, 283, 284, 285, 286, 287, 288, 289, 290, 291, 292, 293, 294, 295, 296, 297, 298, 299, 300, 301, 302, 303, 304, 305, 306, 307, 308, 309, 310, 311, 312, 313, 314, 315, 316, 317, 318, 319, 320, 321, 322, 323, 324, 325, 326, 327, 328, 329, 330, 331, 332, 333, 334, 335, 336, 337, 338, 339, 340, 341, 342, 343, 344, 345, 346, 347, 348, 349, 350, 351, 352, 353, 354, 355, 356],
      "LargestImagePixelValue": [14080, 13674, 13496, 13425, 13323, 13241, 13147, 13134, 13305, 13282, 13106, 13131, 13106, 13141, 13023, 13014, 13066, 12944, 12933, 13017, 12885, 12796, 12907, 13106, 12953, 13036, 13142, 13157, 13121, 13200, 13135, 13180, 13159, 13183, 13184, 13187, 13258, 13161, 12964, 13243, 13138, 12990, 13028, 13020, 12938, 12987, 13166, 13128, 13305, 13113, 13233, 13223, 13353, 13264, 13195, 13213, 13222, 13338, 13154, 13283, 13215, 13233, 13023, 13205, 13218, 13073, 13034, 13137, 13106, 13308, 13175, 13236, 13103, 13074, 13102, 13255, 13139, 13158, 13167, 13092, 13044, 13055, 13259, 13221, 13073, 13018, 12962, 12942, 12805, 12830, 12891, 12855, 12883, 12841, 12817, 12923, 12976, 13069, 12895, 12910, 12840, 12969, 12888, 12849, 12962, 12981, 12976, 13040, 13001, 13003, 13175, 12991, 12930, 13198, 13001, 12994, 13210, 13195, 13179, 13146, 13254, 13217, 13124, 13321, 13220, 13306, 13035, 12974, 12905, 12993, 12925, 12909, 12991, 12924, 12958, 12962, 12935, 13165, 12905, 13195, 12925, 12981, 13136, 13102, 12994, 13038, 13086, 13221, 13177, 13159, 13201, 13226, 13210, 13275, 13306, 13232, 13262, 13243, 13319, 13406, 13192, 13173, 13082, 13117, 13015, 13011, 13124, 13190, 13111, 13122, 13328, 13197, 13310, 13341, 13268, 13204, 13426, 13180, 13326, 13225, 13294, 13310, 13200, 13291, 13224, 13268, 13203, 13311, 13043, 13166, 13257, 13200, 13129, 13255, 13215, 13152, 12880, 13025, 13098, 12958, 12989, 13100, 13056, 13013, 13115, 12874, 12955, 13025, 12875, 12833, 13011, 12982, 13012, 12977, 12727, 12986, 12872, 12771, 12953, 12871, 12788, 13101, 12915, 12975, 12884, 12883, 12889, 13162, 12974, 12971, 13108, 12994, 13038, 13114, 13189, 12966, 13109, 12774, 12840, 12934, 13048, 12879, 13069, 12948, 13088, 13065, 13023, 13122, 13124, 13181, 12984, 13095, 13111, 12857, 13006, 12919, 12885, 12919, 12923, 13007, 12807, 13106, 13043, 13190, 13077, 13146, 13239, 13285, 13330, 13334, 13286, 13125, 13266, 13206, 13095, 13125, 13070, 12959, 12891, 12862, 12934, 12992, 12978, 13109, 12957, 13074, 12975, 12890, 13039, 13166, 13049, 13025, 13151, 13150, 13093, 13076, 13038, 13122, 13076, 12938, 12908, 13016, 13076, 12937, 13137, 12971, 12953, 12953, 12904, 12856, 12983, 12900, 12877, 12994, 12943, 12925, 12870, 12986, 13092, 13026, 13002, 13061, 13059, 13065, 13025, 13127, 12986, 12991, 13001, 13077, 12872, 12800, 12934, 13060, 12981, 12934, 12853, 12925, 12905, 12889, 12945, 12749, 12942, 12767, 12904, 13045, 12961, 13057, 13262, 13258, 13061, 13188, 13030, 13253, 13179, 13352],
