{
  "AcquisitionMatrixPE": 106,
  "AcquisitionNumber": 1,
  "AcquisitionTime": "14:03:59.195000",
  "BandwidthPerPixelPhaseEncode": 13.477,
  "BaseResolution": 106,
  "BodyPartExamined": "BRAIN",
  "CoilCombinationMethod": "Sum of Squares",
  "ConsistencyInfo": "N4_VE11C_LATEST_20160120",
  "ConversionSoftware": "dcm2niix",
  "ConversionSoftwareVersion": "v1.0.20220720",
  "DerivedVendorReportedEchoSpacing": 0.000700005,
  "DeviceSerialNumber": "166108",
  "DwellTime": 2.6e-06,
  "EchoTime": 0.03,
  "EchoTrainLength": 80,
  "EffectiveEchoSpacing": 0.000700005,
  "FlipAngle": 62,
  "HeudiconvVersion": "1.3.0",
  "ImageComments": "Unaliased MB4/PE3/LB",
  "ImageOrientationPatientDICOM": [1, 0, 0, 0, 0.941471, -0.337095],
  "ImageOrientationText": "Tra>Cor(-19.7)",
  "ImageType": [
    "ORIGINAL",
    "PRIMARY",
    "M",
    "MB",
    "ND",
    "MOSAIC"
],
  "ImagingFrequency": 123.244,
  "InPlanePhaseEncodingDirectionDICOM": "COL",
  "InstitutionAddress": "Bedford Way 26,London,London,GB,WC1H 0AP",
  "InstitutionName": "University College",
  "InstitutionalDepartmentName": "Department",
  "MRAcquisitionType": "2D",
  "MagneticFieldStrength": 3,
  "Manufacturer": "Siemens",
  "ManufacturersModelName": "Prisma",
  "MatrixCoilMode": "SENSE",
  "Modality": "MR",
  "MultibandAccelerationFactor": 4,
  "NonlinearGradientCorrection": false,
  "PartialFourier": 0.75,
  "PatientPosition": "HFS",
  "PercentPhaseFOV": 100,
  "PercentSampling": 100,
  "PhaseEncodingDirection": "j-",
  "PhaseEncodingSteps": 80,
  "PhaseResolution": 1,
  "PixelBandwidth": 1815,
  "ProcedureStepDescription": "Egor^MovieProject2",
  "ProtocolName": "func-bold_task-tono_run-02",
  "PulseSequenceDetails": "%CustomerSeq%\\cmrr_mbep2d_bold",
  "ReceiveCoilActiveElements": "HEA;HEP",
  "ReceiveCoilName": "Head_32",
  "ReconMatrixPE": 106,
  "RepetitionTime": 1,
  "SAR": 0.0476135,
  "ScanOptions": "PFP\\FS\\EXT",
  "ScanningSequence": "EP",
  "SequenceName": "epfid2d1_106",
  "SequenceVariant": "SK\\SS",
  "SeriesDescription": "func-bold_task-tono_run-02",
  "SeriesNumber": 20,
  "ShimSetting": [-1546, 634, 7436, 407, -51, 160, 72, -45],
  "SliceThickness": 2,
  "SliceTiming": [0, 0.535, 0.0875, 0.6225, 0.1775, 0.7125, 0.2675, 0.8025, 0.355, 0.89, 0.445, 0, 0.535, 0.0875, 0.6225, 0.1775, 0.7125, 0.2675, 0.8025, 0.355, 0.89, 0.445, 0, 0.535, 0.0875, 0.6225, 0.1775, 0.7125, 0.2675, 0.8025, 0.355, 0.89, 0.445, 0, 0.535, 0.0875, 0.6225, 0.1775, 0.7125, 0.2675, 0.8025, 0.355, 0.89, 0.445],
  "SoftwareVersions": "syngo MR E11",
  "SpacingBetweenSlices": 2,
  "StationName": "AWP166108",
  "TaskName": "tonotopy",
  "TotalReadoutTime": 0.0735005,
  "TxRefAmp": 220.584,
  "WipMemBlock": "d7528d25-a243-4627-b06d-baf858ddd1bf||Sequence: R016 ve11c/master r/e634e98; Dec 19 2017 11:00:25 by eja",
  "dcmmeta_affine": [
    [-2.0, 0.0, 0.0, 106.0],
    [0.0, 1.8829411268234253, -0.6741905808448792, -74.22769165039062],
    [0.0, 0.6741905808448792, 1.8829411268234253, -51.15618133544922],
    [0.0, 0.0, 0.0, 1.0]
],
  "dcmmeta_reorient_transform": [
    [0.0, -1.0, 0.0, 105.0],
    [1.0, 0.0, 0.0, 0.0],
    [0.0, 0.0, 1.0, 0.0],
    [0.0, 0.0, 0.0, 1.0]
],
  "dcmmeta_shape": [106, 106, 44, 264],
  "dcmmeta_slice_dim": 2,
  "dcmmeta_version": 0.6,
  "global": {
    "const": {
      "AcquisitionMatrix": [106, 0, 0, 106],
      "AngioFlag": "N",
      "BitsAllocated": 16,
      "BitsStored": 16,
      "BodyPartExamined": "BRAIN",
      "CardiacNumberOfImages": 1,
      "Columns": 742,
      "EchoNumbers": 1,
      "EchoTime": 30.0,
      "EchoTrainLength": 80,
      "FlipAngle": 62.0,
      "HighBit": 15,
      "ImageOrientationPatient": [1.0, 0.0, 0.0, 0.0, 0.94147053802673, -0.3370952773737],
      "ImagePositionPatient": [-742.0, -722.2563866371, 234.02642158034],
      "ImageType": [
        "ORIGINAL",
        "PRIMARY",
        "M",
        "MB",
        "ND",
        "MOSAIC"
],
      "ImagedNucleus": "1H",
      "ImagingFrequency": 123.243639,
      "InPlanePhaseEncodingDirection": "COL",
      "MRAcquisitionType": "2D",
      "MagneticFieldStrength": 3.0,
      "Manufacturer": "SIEMENS",
      "ManufacturerModelName": "Prisma",
      "Modality": "MR",
      "NominalInterval": 0,
      "NumberOfAverages": 1.0,
      "NumberOfPhaseEncodingSteps": 80,
      "PercentPhaseFieldOfView": 100.0,
      "PercentSampling": 100.0,
      "PerformedProcedureStepStartTime": "123743.674000",
      "PhotometricInterpretation": "MONOCHROME2",
      "PixelBandwidth": 1815.0,
      "PixelRepresentation": 0,
      "PixelSpacing": [2.0, 2.0],
      "ProtocolName": "func-bold_task-tono_run-02",
      "RepetitionTime": 1000.0,
      "Rows": 742,
      "SAR": 0.04761354310623,
      "SamplesPerPixel": 1,
      "ScanOptions": [
        "PFP",
        "FS",
        "EXT"
],
      "ScanningSequence": "EP",
      "SequenceName": "epfid2d1_106",
      "SequenceVariant": [
        "SK",
        "SS"
],
      "SeriesDescription": "func-bold_task-tono_run-02",
      "SeriesNumber": 20,
      "SeriesTime": "140427.503000",
      "SliceLocation": -23.140235950657,
      "SliceThickness": 2.0,
      "SmallestImagePixelValue": 0,
      "SoftwareVersions": "syngo MR E11",
      "SpacingBetweenSlices": 2.0000000405953,
      "SpecificCharacterSet": "ISO_IR 100",
      "StudyID": "1",
      "StudyTime": "123743.529000",
      "TransmitCoilName": "Body",
      "VariableFlipAngleFlag": "N",
      "WindowCenterWidthExplanation": "Algo1",
      "dBdt": 0.0},
    "slices": {}
  },
  "time": {
    "samples": {
      "AcquisitionNumber": [1, 2, 3, 4, 5, 6, 7, 8, 9, 10, 11, 12, 13, 14, 15, 16, 17, 18, 19, 20, 21, 22, 23, 24, 25, 26, 27, 28, 29, 30, 31, 32, 33, 34, 35, 36, 37, 38, 39, 40, 41, 42, 43, 44, 45, 46, 47, 48, 49, 50, 51, 52, 53, 54, 55, 56, 57, 58, 59, 60, 61, 62, 63, 64, 65, 66, 67, 68, 69, 70, 71, 72, 73, 74, 75, 76, 77, 78, 79, 80, 81, 82, 83, 84, 85, 86, 87, 88, 89, 90, 91, 92, 93, 94, 95, 96, 97, 98, 99, 100, 101, 102, 103, 104, 105, 106, 107, 108, 109, 110, 111, 112, 113, 114, 115, 116, 117, 118, 119, 120, 121, 122, 123, 124, 125, 126, 127, 128, 129, 130, 131, 132, 133, 134, 135, 136, 137, 138, 139, 140, 141, 142, 143, 144, 145, 146, 147, 148, 149, 150, 151, 152, 153, 154, 155, 156, 157, 158, 159, 160, 161, 162, 163, 164, 165, 166, 167, 168, 169, 170, 171, 172, 173, 174, 175, 176, 177, 178, 179, 180, 181, 182, 183, 184, 185, 186, 187, 188, 189, 190, 191, 192, 193, 194, 195, 196, 197, 198, 199, 200, 201, 202, 203, 204, 205, 206, 207, 208, 209, 210, 211, 212, 213, 214, 215, 216, 217, 218, 219, 220, 221, 222, 223, 224, 225, 226, 227, 228, 229, 230, 231, 232, 233, 234, 235, 236, 237, 238, 239, 240, 241, 242, 243, 244, 245, 246, 247, 248, 249, 250, 251, 252, 253, 254, 255, 256, 257, 258, 259, 260, 261, 262, 263, 264],
      "AcquisitionTime": ["140359.195000", "140400.195000", "140401.195000", "140402.195000", "140403.195000", "140404.195000", "140405.195000", "140406.195000", "140407.195000", "140408.195000", "140409.195000", "140410.195000", "140411.195000", "140412.195000", "140413.195000", "140414.195000", "140415.195000", "140416.195000", "140417.195000", "140418.195000", "140419.195000", "140420.195000", "140421.195000", "140422.195000", "140423.195000", "140424.195000", "140425.195000", "140426.195000", "140427.195000", "140428.195000", "140429.195000", "140430.195000", "140431.195000", "140432.195000", "140433.195000", "140434.195000", "140435.195000", "140436.195000", "140437.195000", "140438.195000", "140439.195000", "140440.195000", "140441.195000", "140442.195000", "140443.195000", "140444.195000", "140445.195000", "140446.195000", "140447.195000", "140448.195000", "140449.195000", "140450.195000", "140451.195000", "140452.195000", "140453.195000", "140454.195000", "140455.195000", "140456.195000", "140457.195000", "140458.195000", "140459.195000", "140500.195000", "140501.195000", "140502.195000", "140503.195000", "140504.195000", "140505.195000", "140506.195000", "140507.195000", "140508.195000", "140509.195000", "140510.195000", "140511.195000", "140512.195000", "140513.195000", "140514.195000", "140515.195000", "140516.195000", "140517.195000", "140518.195000", "140519.195000", "140520.195000", "140521.195000", "140522.195000", "140523.195000", "140524.195000", "140525.195000", "140526.195000", "140527.195000", "140528.195000", "140529.195000", "140530.195000", "140531.195000", "140532.195000", "140533.195000", "140534.195000", "140535.195000", "140536.195000", "140537.195000", "140538.195000", "140539.195000", "140540.195000", "140541.195000", "140542.195000", "140543.195000", "140544.195000", "140545.195000", "140546.195000", "140547.195000", "140548.195000", "140549.195000", "140550.195000", "140551.195000", "140552.195000", "140553.195000", "140554.195000", "140555.195000", "140556.195000", "140557.195000", "140558.195000", "140559.195000", "140600.195000", "140601.195000", "140602.195000", "140603.195000", "140604.195000", "140605.195000", "140606.195000", "140607.195000", "140608.195000", "140609.195000", "140610.195000", "140611.195000", "140612.195000", "140613.195000", "140614.195000", "140615.195000", "140616.195000", "140617.195000", "140618.195000", "140619.195000", "140620.195000", "140621.195000", "140622.195000", "140623.195000", "140624.195000", "140625.195000", "140626.195000", "140627.195000", "140628.195000", "140629.195000", "140630.195000", "140631.195000", "140632.195000", "140633.195000", "140634.195000", "140635.195000", "140636.195000", "140637.195000", "140638.195000", "140639.195000", "140640.195000", "140641.195000", "140642.195000", "140643.195000", "140644.195000", "140645.195000", "140646.195000", "140647.195000", "140648.195000", "140649.195000", "140650.195000", "140651.195000", "140652.195000", "140653.195000", "140654.195000", "140655.195000", "140656.195000", "140657.195000", "140658.195000", "140659.195000", "140700.195000", "140701.195000", "140702.195000", "140703.195000", "140704.195000", "140705.195000", "140706.195000", "140707.195000", "140708.195000", "140709.195000", "140710.195000", "140711.195000", "140712.195000", "140713.195000", "140714.195000", "140715.195000", "140716.195000", "140717.195000", "140718.195000", "140719.195000", "140720.195000", "140721.195000", "140722.195000", "140723.195000", "140724.195000", "140725.195000", "140726.195000", "140727.195000", "140728.195000", "140729.195000", "140730.195000", "140731.195000", "140732.195000", "140733.195000", "140734.195000", "140735.195000", "140736.195000", "140737.195000", "140738.195000", "140739.195000", "140740.195000", "140741.195000", "140742.195000", "140743.195000", "140744.195000", "140745.195000", "140746.195000", "140747.195000", "140748.195000", "140749.195000", "140750.195000", "140751.195000", "140752.195000", "140753.195000", "140754.195000", "140755.195000", "140756.195000", "140757.195000", "140758.195000", "140759.195000", "140800.195000", "140801.195000", "140802.195000", "140803.195000", "140804.195000", "140805.195000", "140806.195000", "140807.195000", "140808.195000", "140809.195000", "140810.195000", "140811.195000", "140812.195000", "140813.195000", "140814.195000", "140815.195000", "140816.195000", "140817.195000", "140818.195000", "140819.195000", "140820.195000", "140821.195000", "140822.195000"],
      "ContentTime": ["140427.505000", "140427.508000", "140427.510000", "140427.513000", "140427.517000", "140427.520000", "140427.522000", "140427.525000", "140427.527000", "140427.529000", "140427.532000", "140427.534000", "140427.537000", "140427.539000", "140427.542000", "140427.544000", "140427.547000", "140427.549000", "140427.552000", "140427.554000", "140427.556000", "140427.559000", "140427.561000", "140427.564000", "140427.566000", "140427.569000", "140427.571000", "140427.574000", "140447.470000", "140447.473000", "140447.475000", "140447.478000", "140447.480000", "140447.490000", "140447.492000", "140447.495000", "140447.497000", "140447.499000", "140447.502000", "140447.504000", "140447.507000", "140447.509000", "140447.512000", "140447.514000", "140447.517000", "140447.519000", "140447.521000", "140447.524000", "140507.470000", "140507.473000", "140507.475000", "140507.478000", "140507.480000", "140507.483000", "140507.485000", "140507.488000", "140507.490000", "140507.493000", "140507.506000", "140507.509000", "140507.511000", "140507.514000", "140507.516000", "140507.518000", "140507.521000", "140507.523000", "140507.526000", "140507.528000", "140527.471000", "140527.474000", "140527.477000", "140527.479000", "140527.481000", "140527.484000", "140527.486000", "140527.489000", "140527.491000", "140527.494000", "140527.496000", "140527.498000", "140527.501000", "140527.503000", "140527.506000", "140527.508000", "140527.511000", "140527.519000", "140527.522000", "140527.524000", "140547.471000", "140547.474000", "140547.477000", "140547.479000", "140547.481000", "140547.484000", "140547.486000", "140547.489000", "140547.491000", "140547.494000", "140547.496000", "140547.499000", "140547.501000", "140547.503000", "140547.506000", "140547.508000", "140547.511000", "140547.513000", "140547.516000", "140547.518000", "140607.471000", "140607.474000", "140607.476000", "140607.479000", "140607.481000", "140607.484000", "140607.486000", "140607.489000", "140607.491000", "140607.494000", "140607.496000", "140607.498000", "140607.501000", "140607.503000", "140607.506000", "140607.508000", "140607.511000", "140607.513000", "140607.516000", "140607.518000", "140627.471000", "140627.474000", "140627.476000", "140627.479000", "140627.481000", "140627.484000", "140627.486000", "140627.489000", "140627.491000", "140627.494000", "140627.496000", "140627.498000", "140627.501000", "140627.503000", "140627.506000", "140627.508000", "140627.511000", "140627.513000", "140627.516000", "140627.518000", "140647.470000", "140647.473000", "140647.476000", "140647.478000", "140647.480000", "140647.483000", "140647.485000", "140647.488000", "140647.490000", "140647.493000", "140647.495000", "140647.497000", "140647.500000", "140647.502000", "140647.505000", "140647.507000", "140647.510000", "140647.512000", "140647.515000", "140647.517000", "140707.471000", "140707.473000", "140707.476000", "140707.478000", "140707.480000", "140707.483000", "140707.485000", "140707.488000", "140707.490000", "140707.493000", "140707.495000", "140707.498000", "140707.500000", "140707.503000", "140707.505000", "140707.507000", "140707.510000", "140707.512000", "140707.515000", "140707.517000", "140727.470000", "140727.473000", "140727.476000", "140727.478000", "140727.481000", "140727.483000", "140727.486000", "140727.488000", "140727.491000", "140727.493000", "140727.495000", "140727.498000", "140727.500000", "140727.503000", "140727.505000", "140727.508000", "140727.510000", "140727.512000", "140727.515000", "140727.517000", "140747.471000", "140747.474000", "140747.476000", "140747.479000", "140747.481000", "140747.484000", "140747.486000", "140747.489000", "140747.491000", "140747.494000", "140747.496000", "140747.499000", "140747.501000", "140747.503000", "140747.506000", "140747.508000", "140747.511000", "140747.513000", "140747.516000", "140747.518000", "140807.471000", "140807.488000", "140807.491000", "140807.493000", "140807.496000", "140807.498000", "140807.501000", "140807.503000", "140807.505000", "140807.508000", "140807.510000", "140807.513000", "140807.515000", "140807.518000", "140807.520000", "140807.522000", "140807.525000", "140807.527000", "140807.530000", "140807.532000", "140823.310000", "140823.313000", "140823.316000", "140823.319000", "140823.321000", "140823.324000", "140823.327000", "140823.330000", "140823.333000", "140823.335000", "140823.338000", "140823.341000", "140823.351000", "140823.354000", "140823.356000", "140823.359000"],
      "InstanceCreationTime": ["140427.505000", "140427.508000", "140427.510000", "140427.513000", "140427.517000", "140427.520000", "140427.522000", "140427.525000", "140427.527000", "140427.529000", "140427.532000", "140427.534000", "140427.537000", "140427.539000", "140427.542000", "140427.544000", "140427.547000", "140427.549000", "140427.552000", "140427.554000", "140427.556000", "140427.559000", "140427.561000", "140427.564000", "140427.566000", "140427.569000", "140427.571000", "140427.574000", "140447.470000", "140447.473000", "140447.475000", "140447.478000", "140447.480000", "140447.490000", "140447.492000", "140447.495000", "140447.497000", "140447.499000", "140447.502000", "140447.504000", "140447.507000", "140447.509000", "140447.512000", "140447.514000", "140447.517000", "140447.519000", "140447.521000", "140447.524000", "140507.470000", "140507.473000", "140507.475000", "140507.478000", "140507.480000", "140507.483000", "140507.485000", "140507.488000", "140507.490000", "140507.493000", "140507.506000", "140507.509000", "140507.511000", "140507.514000", "140507.516000", "140507.518000", "140507.521000", "140507.523000", "140507.526000", "140507.528000", "140527.471000", "140527.474000", "140527.477000", "140527.479000", "140527.481000", "140527.484000", "140527.486000", "140527.489000", "140527.491000", "140527.494000", "140527.496000", "140527.498000", "140527.501000", "140527.503000", "140527.506000", "140527.508000", "140527.511000", "140527.519000", "140527.522000", "140527.524000", "140547.471000", "140547.474000", "140547.477000", "140547.479000", "140547.481000", "140547.484000", "140547.486000", "140547.489000", "140547.491000", "140547.494000", "140547.496000", "140547.499000", "140547.501000", "140547.503000", "140547.506000", "140547.508000", "140547.511000", "140547.513000", "140547.516000", "140547.518000", "140607.471000", "140607.474000", "140607.476000", "140607.479000", "140607.481000", "140607.484000", "140607.486000", "140607.489000", "140607.491000", "140607.494000", "140607.496000", "140607.498000", "140607.501000", "140607.503000", "140607.506000", "140607.508000", "140607.511000", "140607.513000", "140607.516000", "140607.518000", "140627.471000", "140627.474000", "140627.476000", "140627.479000", "140627.481000", "140627.484000", "140627.486000", "140627.489000", "140627.491000", "140627.494000", "140627.496000", "140627.498000", "140627.501000", "140627.503000", "140627.506000", "140627.508000", "140627.511000", "140627.513000", "140627.516000", "140627.518000", "140647.470000", "140647.473000", "140647.476000", "140647.478000", "140647.480000", "140647.483000", "140647.485000", "140647.488000", "140647.490000", "140647.493000", "140647.495000", "140647.497000", "140647.500000", "140647.502000", "140647.505000", "140647.507000", "140647.510000", "140647.512000", "140647.515000", "140647.517000", "140707.471000", "140707.473000", "140707.476000", "140707.478000", "140707.480000", "140707.483000", "140707.485000", "140707.488000", "140707.490000", "140707.493000", "140707.495000", "140707.498000", "140707.500000", "140707.503000", "140707.505000", "140707.507000", "140707.510000", "140707.512000", "140707.515000", "140707.517000", "140727.470000", "140727.473000", "140727.476000", "140727.478000", "140727.481000", "140727.483000", "140727.486000", "140727.488000", "140727.491000", "140727.493000", "140727.495000", "140727.498000", "140727.500000", "140727.503000", "140727.505000", "140727.508000", "140727.510000", "140727.512000", "140727.515000", "140727.517000", "140747.471000", "140747.474000", "140747.476000", "140747.479000", "140747.481000", "140747.484000", "140747.486000", "140747.489000", "140747.491000", "140747.494000", "140747.496000", "140747.499000", "140747.501000", "140747.503000", "140747.506000", "140747.508000", "140747.511000", "140747.513000", "140747.516000", "140747.518000", "140807.471000", "140807.488000", "140807.491000", "140807.493000", "140807.496000", "140807.498000", "140807.501000", "140807.503000", "140807.505000", "140807.508000", "140807.510000", "140807.513000", "140807.515000", "140807.518000", "140807.520000", "140807.522000", "140807.525000", "140807.527000", "140807.530000", "140807.532000", "140823.310000", "140823.313000", "140823.316000", "140823.319000", "140823.321000", "140823.324000", "140823.327000", "140823.330000", "140823.333000", "140823.335000", "140823.338000", "140823.341000", "140823.351000", "140823.354000", "140823.356000", "140823.359000"],
      "InstanceNumber": [1, 2, 3, 4, 5, 6, 7, 8, 9, 10, 11, 12, 13, 14, 15, 16, 17, 18, 19, 20, 21, 22, 23, 24, 25, 26, 27, 28, 29, 30, 31, 32, 33, 34, 35, 36, 37, 38, 39, 40, 41, 42, 43, 44, 45, 46, 47, 48, 49, 50, 51, 52, 53, 54, 55, 56, 57, 58, 59, 60, 61, 62, 63, 64, 65, 66, 67, 68, 69, 70, 71, 72, 73, 74, 75, 76, 77, 78, 79, 80, 81, 82, 83, 84, 85, 86, 87, 88, 89, 90, 91, 92, 93, 94, 95, 96, 97, 98, 99, 100, 101, 102, 103, 104, 105, 106, 107, 108, 109, 110, 111, 112, 113, 114, 115, 116, 117, 118, 119, 120, 121, 122, 123, 124, 125, 126, 127, 128, 129, 130, 131, 132, 133, 134, 135, 136, 137, 138, 139, 140, 141, 142, 143, 144, 145, 146, 147, 148, 149, 150, 151, 152, 153, 154, 155, 156, 157, 158, 159, 160, 161, 162, 163, 164, 165, 166, 167, 168, 169, 170, 171, 172, 173, 174, 175, 176, 177, 178, 179, 180, 181, 182, 183, 184, 185, 186, 187, 188, 189, 190, 191, 192, 193, 194, 195, 196, 197, 198, 199, 200, 201, 202, 203, 204, 205, 206, 207, 208, 209, 210, 211, 212, 213, 214, 215, 216, 217, 218, 219, 220, 221, 222, 223, 224, 225, 226, 227, 228, 229, 230, 231, 232, 233, 234, 235, 236, 237, 238, 239, 240, 241, 242, 243, 244, 245, 246, 247, 248, 249, 250, 251, 252, 253, 254, 255, 256, 257, 258, 259, 260, 261, 262, 263, 264],
      "LargestImagePixelValue": [14763, 14363, 14230, 14017, 13865, 13859, 13860, 13687, 13784, 13854, 13753, 13916, 13883, 13826, 13853, 13825, 13797, 13782, 13842, 13772, 13827, 13911, 13804, 13933, 13979, 14022, 14006, 13901, 13802, 13781, 13995, 13853, 13887, 14009, 13851, 13948, 13863, 13806, 13818, 13881, 13872, 13857, 13807, 13819, 13853, 13862, 13803, 13863, 13837, 13807, 13926, 13946, 14006, 14002, 13929, 14044, 14049, 13983, 13979, 13867, 13800, 13943, 13925, 13897, 13986, 13935, 13936, 13899, 14010, 13903, 13922, 13891, 13895, 13887, 13959, 13854, 13858, 13805, 13960, 13926, 13953, 13896, 13994, 13929, 13947, 13892, 13821, 13849, 13911, 13884, 13940, 13768, 13877, 13822, 13831, 13859, 13835, 13907, 13870, 13940, 13985, 14005, 13972, 13998, 13918, 13919, 13876, 13817, 13811, 13785, 13764, 13725, 13898, 13948, 13853, 13965, 13921, 13893, 13878, 13868, 13890, 13943, 13850, 13843, 13952, 13843, 13749, 13914, 13915, 13800, 13955, 13911, 13789, 13730, 13815, 13795, 13817, 13952, 14019, 13854, 13852, 13906, 13944, 13930, 13921, 13956, 13912, 13980, 13980, 13999, 14012, 14011, 13940, 13871, 13970, 13970, 13916, 13898, 13948, 13763, 13836, 13806, 13851, 13814, 13863, 13868, 13918, 13826, 13840, 13844, 13797, 13819, 13906, 13910, 13885, 13942, 13895, 13901, 13757, 13783, 13815, 13814, 13887, 13875, 13841, 13796, 13752, 13804, 13888, 13771, 13818, 13897, 13682, 13714, 13812, 13719, 13772, 13864, 13954, 13918, 13912, 13937, 13878, 13846, 13894, 13755, 13817, 13977, 13915, 13913, 13777, 13794, 13867, 13820, 13717, 13709, 13643, 13778, 13691, 13797, 13734, 13772, 13806, 13820, 13796, 13818, 13760, 13755, 13881, 13798, 13965, 13862, 13851, 13820, 13903, 13905, 13755, 13790, 13805, 13887, 13774, 13766, 13767, 13791, 13750, 13767, 13770, 13836, 14024, 13915, 13836, 13888, 13786, 13867, 13795, 13868, 13761, 13896, 13793, 13894, 13888, 13856, 13919, 13895],
      "TriggerTime": [8100.0, 9100.0, 10100.0, 11100.0, 12100.0, 13100.0, 14100.0, 15100.0, 16100.0, 17100.0, 18100.0, 19100.0, 20100.0, 21100.0, 22100.0, 23100.0, 24100.0, 25100.0, 26100.0, 27100.0, 28100.0, 29100.0, 30100.0, 31100.0, 32100.0, 33100.0, 34100.0, 35100.0, 36100.0, 37100.0, 38100.0, 39100.0, 40100.0, 41100.0, 42100.0, 43100.0, 44100.0, 45100.0, 46100.0, 47100.0, 48100.0, 49100.0, 50100.0, 51100.0, 52100.0, 53100.0, 54100.0, 55100.0, 56100.0, 57100.0, 58100.0, 59100.0, 60100.0, 61100.0, 62100.0, 63100.0, 64100.0, 65100.0, 66100.0, 67100.0, 68100.0, 69100.0, 70100.0, 71100.0, 72100.0, 73100.0, 74100.0, 75100.0, 76100.0, 77100.0, 78100.0, 79100.0, 80100.0, 81100.0, 82100.0, 83100.0, 84100.0, 85100.0, 86100.0, 87100.0, 88100.0, 89100.0, 90100.0, 91100.0, 92100.0, 93100.0, 94100.0, 95100.0, 96100.0, 97100.0, 98100.0, 99100.0, 100100.0, 101100.0, 102100.0, 103100.0, 104100.0, 105100.0, 106100.0, 107100.0, 108100.0, 109100.0, 110100.0, 111100.0, 112100.0, 113100.0, 114100.0, 115100.0, 116100.0, 117100.0, 118100.0, 119100.0, 120100.0, 121100.0, 122100.0, 123100.0, 124100.0, 125100.0, 126100.0, 127100.0, 128100.0, 129100.0, 130100.0, 131100.0, 132100.0, 133100.0, 134100.0, 135100.0, 136100.0, 137100.0, 138100.0, 139100.0, 140100.0, 141100.0, 142100.0, 143100.0, 144100.0, 145100.0, 146100.0, 147100.0, 148100.0, 149100.0, 150100.0, 151100.0, 152100.0, 153100.0, 154100.0, 155100.0, 156100.0, 157100.0, 158100.0, 159100.0, 160100.0, 161100.0, 162100.0, 163100.0, 164100.0, 165100.0, 166100.0, 167100.0, 168100.0, 169100.0, 170100.0, 171100.0, 172100.0, 173100.0, 174100.0, 175100.0, 176100.0, 177100.0, 178100.0, 179100.0, 180100.0, 181100.0, 182100.0, 183100.0, 184100.0, 185100.0, 186100.0, 187100.0, 188100.0, 189100.0, 190100.0, 191100.0, 192100.0, 193100.0, 194100.0, 195100.0, 196100.0, 197100.0, 198100.0, 199100.0, 200100.0, 201100.0, 202100.0, 203100.0, 204100.0, 205100.0, 206100.0, 207100.0, 208100.0, 209100.0, 210100.0, 211100.0, 212100.0, 213100.0, 214100.0, 215100.0, 216100.0, 217100.0, 218100.0, 219100.0, 220100.0, 221100.0, 222100.0, 223100.0, 224100.0, 225100.0, 226100.0, 227100.0, 228100.0, 229100.0, 230100.0, 231100.0, 232100.0, 233100.0, 234100.0, 235100.0, 236100.0, 237100.0, 238100.0, 239100.0, 240100.0, 241100.0, 242100.0, 243100.0, 244100.0, 245100.0, 246100.0, 247100.0, 248100.0, 249100.0, 250100.0, 251100.0, 252100.0, 253100.0, 254100.0, 255100.0, 256100.0, 257100.0, 258100.0, 259100.0, 260100.0, 261100.0, 262100.0, 263100.0, 264100.0, 265100.0, 266100.0, 267100.0, 268100.0, 269100.0, 270100.0, 271100.0],
      "WindowCenter": [5044.0, 5015.0, 5005.0, 4989.0, 4980.0, 4989.0, 4994.0, 4978.0, 4981.0, 4981.0, 4988.0, 4980.0, 4977.0, 4988.0, 4989.0, 4976.0, 4990.0, 4989.0, 4989.0, 4990.0, 4982.0, 4991.0, 4989.0, 4988.0, 4987.0, 4988.0, 4988.0, 4989.0, 4990.0, 4994.0, 5002.0, 4987.0, 4989.0, 4999.0, 4989.0, 5003.0, 5007.0, 5003.0, 5004.0, 5002.0, 4992.0, 4995.0, 5005.0, 4993.0, 4994.0, 4993.0, 4992.0, 4991.0, 4993.0, 4992.0, 5001.0, 5003.0, 4999.0, 5000.0, 5002.0, 5000.0, 5002.0, 5004.0, 5002.0, 4991.0, 4991.0, 4987.0, 4992.0, 4991.0, 4999.0, 4992.0, 4999.0, 4993.0, 4990.0, 4990.0, 5002.0, 4995.0, 5004.0, 5002.0, 5004.0, 5002.0, 5005.0, 4991.0, 5002.0, 5005.0, 5002.0, 5002.0, 5005.0, 5003.0, 5000.0, 4992.0, 4990.0, 4989.0, 5004.0, 4993.0, 5004.0, 5006.0, 4994.0, 4995.0, 5007.0, 5004.0, 5003.0, 5002.0, 5002.0, 5002.0, 5004.0, 5001.0, 5000.0, 5000.0, 4992.0, 4993.0, 5004.0, 4995.0, 4990.0, 4996.0, 4991.0, 4991.0, 4988.0, 4992.0, 4994.0, 4999.0, 5000.0, 5002.0, 5005.0, 5005.0, 5004.0, 5008.0, 4994.0, 5003.0, 5002.0, 4992.0, 4994.0, 4992.0, 4990.0, 4996.0, 5005.0, 4995.0, 5002.0, 5007.0, 4995.0, 5006.0, 5003.0, 5003.0, 5012.0, 5003.0, 4993.0, 4994.0, 5006.0, 5001.0, 5004.0, 5002.0, 4993.0, 5001.0, 4990.0, 4993.0, 4989.0, 4998.0, 4991.0, 4992.0, 5003.0, 4992.0, 4989.0, 4989.0, 4990.0, 4992.0, 4990.0, 4992.0, 4991.0, 4989.0, 4988.0, 4988.0, 4990.0, 4990.0, 4987.0, 4992.0, 4988.0, 4994.0, 4991.0, 4990.0, 4991.0, 4991.0, 4989.0, 4990.0, 4989.0, 4995.0, 4995.0, 4995.0, 4993.0, 4999.0, 4993.0, 4996.0, 4994.0, 4996.0, 4993.0, 4994.0, 4992.0, 5004.0, 5002.0, 5003.0, 4996.0, 4991.0, 4992.0, 4988.0, 5002.0, 4994.0, 4995.0, 5003.0, 5004.0, 5002.0, 5006.0, 4997.0, 4991.0, 5000.0, 5006.0, 4993.0, 4991.0, 5001.0, 4995.0, 4993.0, 4992.0, 4991.0, 4988.0, 4989.0, 4994.0, 4995.0, 4997.0, 4994.0, 4994.0, 5003.0, 4992.0, 4988.0, 4993.0, 4993.0, 4996.0, 5003.0, 5002.0, 5002.0, 5006.0, 5004.0, 5000.0, 4999.0, 4990.0, 4990.0, 4992.0, 4991.0, 4992.0, 4994.0, 5001.0, 5008.0, 5007.0, 5004.0, 5003.0, 5004.0, 5014.0, 5001.0, 4995.0, 5004.0, 4993.0, 4991.0, 4989.0, 4992.0, 4992.0, 4991.0, 4993.0, 4990.0, 4991.0, 4992.0, 4992.0, 4992.0],
