{
  "AcquisitionMatrixPE": 106,
  "AcquisitionNumber": 1,
  "AcquisitionTime": "13:58:13.855000",
  "BandwidthPerPixelPhaseEncode": 13.477,
  "BaseResolution": 106,
  "BodyPartExamined": "BRAIN",
  "CoilCombinationMethod": "Sum of Squares",
  "ConsistencyInfo": "N4_VE11C_LATEST_20160120",
  "ConversionSoftware": "dcm2niix",
  "ConversionSoftwareVersion": "v1.0.20220720",
  "DerivedVendorReportedEchoSpacing": 0.000700005,
  "DeviceSerialNumber": "166108",
  "DwellTime": 2.6e-06,
  "EchoTime": 0.03,
  "EchoTrainLength": 80,
  "EffectiveEchoSpacing": 0.000700005,
  "FlipAngle": 62,
  "HeudiconvVersion": "1.3.0",
  "ImageComments": "Unaliased MB4/PE3/LB",
  "ImageOrientationPatientDICOM": [1, 0, 0, 0, 0.941471, -0.337095],
  "ImageOrientationText": "Tra>Cor(-19.7)",
  "ImageType": [
    "ORIGINAL",
    "PRIMARY",
    "M",
    "MB",
    "ND",
    "MOSAIC"
],
  "ImagingFrequency": 123.244,
  "InPlanePhaseEncodingDirectionDICOM": "COL",
  "InstitutionAddress": "Bedford Way 26,London,London,GB,WC1H 0AP",
  "InstitutionName": "University College",
  "InstitutionalDepartmentName": "Department",
  "MRAcquisitionType": "2D",
  "MagneticFieldStrength": 3,
  "Manufacturer": "Siemens",
  "ManufacturersModelName": "Prisma",
  "MatrixCoilMode": "SENSE",
  "Modality": "MR",
  "MultibandAccelerationFactor": 4,
  "NonlinearGradientCorrection": false,
  "PartialFourier": 0.75,
  "PatientPosition": "HFS",
  "PercentPhaseFOV": 100,
  "PercentSampling": 100,
  "PhaseEncodingDirection": "j-",
  "PhaseEncodingSteps": 80,
  "PhaseResolution": 1,
  "PixelBandwidth": 1815,
  "ProcedureStepDescription": "Egor^MovieProject2",
  "ProtocolName": "func-bold_task-tono_run-01",
  "PulseSequenceDetails": "%CustomerSeq%\\cmrr_mbep2d_bold",
  "ReceiveCoilActiveElements": "HEA;HEP",
  "ReceiveCoilName": "Head_32",
  "ReconMatrixPE": 106,
  "RepetitionTime": 1,
  "SAR": 0.0476135,
  "ScanOptions": "PFP\\FS\\EXT",
  "ScanningSequence": "EP",
  "SequenceName": "epfid2d1_106",
  "SequenceVariant": "SK\\SS",
  "SeriesDescription": "func-bold_task-tono_run-01",
  "SeriesNumber": 18,
  "ShimSetting": [-1546, 634, 7436, 407, -51, 160, 72, -45],
  "SliceThickness": 2,
  "SliceTiming": [0, 0.535, 0.09, 0.625, 0.18, 0.715, 0.2675, 0.8025, 0.3575, 0.8925, 0.4475, 0, 0.535, 0.09, 0.625, 0.18, 0.715, 0.2675, 0.8025, 0.3575, 0.8925, 0.4475, 0, 0.535, 0.09, 0.625, 0.18, 0.715, 0.2675, 0.8025, 0.3575, 0.8925, 0.4475, 0, 0.535, 0.09, 0.625, 0.18, 0.715, 0.2675, 0.8025, 0.3575, 0.8925, 0.4475],
  "SoftwareVersions": "syngo MR E11",
  "SpacingBetweenSlices": 2,
  "StationName": "AWP166108",
  "TaskName": "tonotopy",
  "TotalReadoutTime": 0.0735005,
  "TxRefAmp": 220.584,
  "WipMemBlock": "f2d0bf44-ebe1-48d6-8b88-8ed3eaed3a63||Sequence: R016 ve11c/master r/e634e98; Dec 19 2017 11:00:25 by eja",
  "dcmmeta_affine": [
    [-2.0, 0.0, 0.0, 106.0],
    [0.0, 1.8829411268234253, -0.6741905808448792, -74.22769165039062],
    [0.0, 0.6741905808448792, 1.8829411268234253, -51.15618133544922],
    [0.0, 0.0, 0.0, 1.0]
],
  "dcmmeta_reorient_transform": [
    [0.0, -1.0, 0.0, 105.0],
    [1.0, 0.0, 0.0, 0.0],
    [0.0, 0.0, 1.0, 0.0],
    [0.0, 0.0, 0.0, 1.0]
],
  "dcmmeta_shape": [106, 106, 44, 264],
  "dcmmeta_slice_dim": 2,
  "dcmmeta_version": 0.6,
  "global": {
    "const": {
      "AcquisitionMatrix": [106, 0, 0, 106],
      "AngioFlag": "N",
      "BitsAllocated": 16,
      "BitsStored": 16,
      "BodyPartExamined": "BRAIN",
      "CardiacNumberOfImages": 1,
      "Columns": 742,
      "EchoNumbers": 1,
      "EchoTime": 30.0,
      "EchoTrainLength": 80,
      "FlipAngle": 62.0,
      "HighBit": 15,
      "ImageOrientationPatient": [1.0, 0.0, 0.0, 0.0, 0.94147053802673, -0.3370952773737],
      "ImagePositionPatient": [-742.0, -722.2563866371, 234.02642158034],
      "ImageType": [
        "ORIGINAL",
        "PRIMARY",
        "M",
        "MB",
        "ND",
        "MOSAIC"
],
      "ImagedNucleus": "1H",
      "ImagingFrequency": 123.243639,
      "InPlanePhaseEncodingDirection": "COL",
      "MRAcquisitionType": "2D",
      "MagneticFieldStrength": 3.0,
      "Manufacturer": "SIEMENS",
      "ManufacturerModelName": "Prisma",
      "Modality": "MR",
      "NominalInterval": 0,
      "NumberOfAverages": 1.0,
      "NumberOfPhaseEncodingSteps": 80,
      "PercentPhaseFieldOfView": 100.0,
      "PercentSampling": 100.0,
      "PerformedProcedureStepStartTime": "123743.674000",
      "PhotometricInterpretation": "MONOCHROME2",
      "PixelBandwidth": 1815.0,
      "PixelRepresentation": 0,
      "PixelSpacing": [2.0, 2.0],
      "ProtocolName": "func-bold_task-tono_run-01",
      "RepetitionTime": 1000.0,
      "Rows": 742,
      "SAR": 0.04761354310623,
      "SamplesPerPixel": 1,
      "ScanOptions": [
        "PFP",
        "FS",
        "EXT"
],
      "ScanningSequence": "EP",
      "SequenceName": "epfid2d1_106",
      "SequenceVariant": [
        "SK",
        "SS"
],
      "SeriesDescription": "func-bold_task-tono_run-01",
      "SeriesNumber": 18,
      "SeriesTime": "135847.448000",
      "SliceLocation": -23.140235950657,
      "SliceThickness": 2.0,
      "SmallestImagePixelValue": 0,
      "SoftwareVersions": "syngo MR E11",
      "SpacingBetweenSlices": 2.0000000405953,
      "SpecificCharacterSet": "ISO_IR 100",
      "StudyID": "1",
      "StudyTime": "123743.529000",
      "TransmitCoilName": "Body",
      "VariableFlipAngleFlag": "N",
      "WindowCenterWidthExplanation": "Algo1",
      "dBdt": 0.0},
    "slices": {}
  },
  "time": {
    "samples": {
      "AcquisitionNumber": [1, 2, 3, 4, 5, 6, 7, 8, 9, 10, 11, 12, 13, 14, 15, 16, 17, 18, 19, 20, 21, 22, 23, 24, 25, 26, 27, 28, 29, 30, 31, 32, 33, 34, 35, 36, 37, 38, 39, 40, 41, 42, 43, 44, 45, 46, 47, 48, 49, 50, 51, 52, 53, 54, 55, 56, 57, 58, 59, 60, 61, 62, 63, 64, 65, 66, 67, 68, 69, 70, 71, 72, 73, 74, 75, 76, 77, 78, 79, 80, 81, 82, 83, 84, 85, 86, 87, 88, 89, 90, 91, 92, 93, 94, 95, 96, 97, 98, 99, 100, 101, 102, 103, 104, 105, 106, 107, 108, 109, 110, 111, 112, 113, 114, 115, 116, 117, 118, 119, 120, 121, 122, 123, 124, 125, 126, 127, 128, 129, 130, 131, 132, 133, 134, 135, 136, 137, 138, 139, 140, 141, 142, 143, 144, 145, 146, 147, 148, 149, 150, 151, 152, 153, 154, 155, 156, 157, 158, 159, 160, 161, 162, 163, 164, 165, 166, 167, 168, 169, 170, 171, 172, 173, 174, 175, 176, 177, 178, 179, 180, 181, 182, 183, 184, 185, 186, 187, 188, 189, 190, 191, 192, 193, 194, 195, 196, 197, 198, 199, 200, 201, 202, 203, 204, 205, 206, 207, 208, 209, 210, 211, 212, 213, 214, 215, 216, 217, 218, 219, 220, 221, 222, 223, 224, 225, 226, 227, 228, 229, 230, 231, 232, 233, 234, 235, 236, 237, 238, 239, 240, 241, 242, 243, 244, 245, 246, 247, 248, 249, 250, 251, 252, 253, 254, 255, 256, 257, 258, 259, 260, 261, 262, 263, 264],
      "AcquisitionTime": ["135813.855000", "135814.855000", "135815.855000", "135816.855000", "135817.855000", "135818.855000", "135819.855000", "135820.855000", "135821.855000", "135822.855000", "135823.855000", "135824.855000", "135825.855000", "135826.855000", "135827.855000", "135828.855000", "135829.855000", "135830.855000", "135831.855000", "135832.855000", "135833.855000", "135834.855000", "135835.855000", "135836.855000", "135837.855000", "135838.855000", "135839.855000", "135840.855000", "135841.855000", "135842.855000", "135843.855000", "135844.855000", "135845.855000", "135846.855000", "135847.855000", "135848.855000", "135849.855000", "135850.855000", "135851.855000", "135852.855000", "135853.855000", "135854.855000", "135855.855000", "135856.855000", "135857.855000", "135858.855000", "135859.855000", "135900.855000", "135901.855000", "135902.855000", "135903.855000", "135904.855000", "135905.855000", "135906.855000", "135907.855000", "135908.855000", "135909.855000", "135910.855000", "135911.855000", "135912.855000", "135913.855000", "135914.855000", "135915.855000", "135916.855000", "135917.855000", "135918.855000", "135919.855000", "135920.855000", "135921.855000", "135922.855000", "135923.855000", "135924.855000", "135925.855000", "135926.855000", "135927.855000", "135928.855000", "135929.855000", "135930.855000", "135931.855000", "135932.855000", "135933.855000", "135934.855000", "135935.855000", "135936.855000", "135937.855000", "135938.855000", "135939.855000", "135940.855000", "135941.855000", "135942.855000", "135943.855000", "135944.855000", "135945.855000", "135946.855000", "135947.855000", "135948.855000", "135949.855000", "135950.855000", "135951.855000", "135952.855000", "135953.855000", "135954.855000", "135955.855000", "135956.855000", "135957.855000", "135958.855000", "135959.855000", "140000.855000", "140001.855000", "140002.855000", "140003.855000", "140004.855000", "140005.855000", "140006.855000", "140007.855000", "140008.855000", "140009.855000", "140010.855000", "140011.855000", "140012.855000", "140013.855000", "140014.855000", "140015.855000", "140016.855000", "140017.855000", "140018.855000", "140019.855000", "140020.855000", "140021.855000", "140022.855000", "140023.855000", "140024.855000", "140025.855000", "140026.855000", "140027.855000", "140028.855000", "140029.855000", "140030.855000", "140031.855000", "140032.855000", "140033.855000", "140034.855000", "140035.855000", "140036.855000", "140037.855000", "140038.855000", "140039.855000", "140040.855000", "140041.855000", "140042.855000", "140043.855000", "140044.855000", "140045.855000", "140046.855000", "140047.855000", "140048.855000", "140049.855000", "140050.855000", "140051.855000", "140052.855000", "140053.855000", "140054.855000", "140055.855000", "140056.855000", "140057.855000", "140058.855000", "140059.855000", "140100.855000", "140101.855000", "140102.855000", "140103.855000", "140104.855000", "140105.855000", "140106.855000", "140107.855000", "140108.855000", "140109.855000", "140110.855000", "140111.855000", "140112.855000", "140113.855000", "140114.855000", "140115.855000", "140116.855000", "140117.855000", "140118.855000", "140119.855000", "140120.855000", "140121.855000", "140122.855000", "140123.855000", "140124.855000", "140125.855000", "140126.855000", "140127.855000", "140128.855000", "140129.855000", "140130.855000", "140131.855000", "140132.855000", "140133.855000", "140134.855000", "140135.855000", "140136.855000", "140137.855000", "140138.855000", "140139.855000", "140140.855000", "140141.855000", "140142.855000", "140143.855000", "140144.855000", "140145.855000", "140146.855000", "140147.855000", "140148.855000", "140149.855000", "140150.855000", "140151.855000", "140152.855000", "140153.855000", "140154.855000", "140155.855000", "140156.855000", "140157.855000", "140158.855000", "140159.855000", "140200.855000", "140201.855000", "140202.855000", "140203.855000", "140204.855000", "140205.855000", "140206.855000", "140207.855000", "140208.855000", "140209.855000", "140210.855000", "140211.855000", "140212.855000", "140213.855000", "140214.855000", "140215.855000", "140216.855000", "140217.855000", "140218.855000", "140219.855000", "140220.855000", "140221.855000", "140222.855000", "140223.855000", "140224.855000", "140225.855000", "140226.855000", "140227.855000", "140228.855000", "140229.855000", "140230.855000", "140231.855000", "140232.855000", "140233.855000", "140234.855000", "140235.855000", "140236.855000"],
      "ContentTime": ["135847.450000", "135847.453000", "135847.456000", "135847.465000", "135847.467000", "135847.470000", "135847.472000", "135847.475000", "135847.477000", "135847.480000", "135847.483000", "135847.485000", "135847.488000", "135847.491000", "135847.493000", "135847.496000", "135847.498000", "135847.501000", "135847.505000", "135847.508000", "135847.511000", "135847.513000", "135847.516000", "135847.519000", "135847.529000", "135847.532000", "135847.534000", "135847.537000", "135847.539000", "135847.542000", "135847.544000", "135847.547000", "135847.549000", "135907.410000", "135907.413000", "135907.415000", "135907.425000", "135907.427000", "135907.430000", "135907.432000", "135907.435000", "135907.437000", "135907.439000", "135907.442000", "135907.444000", "135907.447000", "135907.449000", "135907.452000", "135907.472000", "135907.474000", "135907.476000", "135907.479000", "135907.481000", "135927.409000", "135927.412000", "135927.414000", "135927.417000", "135927.419000", "135927.422000", "135927.424000", "135927.426000", "135927.429000", "135927.431000", "135927.434000", "135927.436000", "135927.439000", "135927.441000", "135927.444000", "135927.446000", "135927.448000", "135927.451000", "135927.453000", "135927.456000", "135947.408000", "135947.411000", "135947.414000", "135947.416000", "135947.418000", "135947.421000", "135947.423000", "135947.426000", "135947.428000", "135947.431000", "135947.433000", "135947.436000", "135947.438000", "135947.441000", "135947.443000", "135947.445000", "135947.448000", "135947.450000", "135947.453000", "135947.455000", "140007.408000", "140007.411000", "140007.413000", "140007.416000", "140007.418000", "140007.421000", "140007.423000", "140007.426000", "140007.428000", "140007.430000", "140007.433000", "140007.435000", "140007.438000", "140007.440000", "140007.443000", "140007.445000", "140007.447000", "140007.450000", "140007.452000", "140007.465000", "140027.408000", "140027.411000", "140027.414000", "140027.416000", "140027.418000", "140027.421000", "140027.423000", "140027.426000", "140027.428000", "140027.431000", "140027.433000", "140027.435000", "140027.438000", "140027.440000", "140027.443000", "140027.445000", "140027.447000", "140027.450000", "140027.452000", "140027.455000", "140047.410000", "140047.412000", "140047.415000", "140047.417000", "140047.420000", "140047.422000", "140047.424000", "140047.427000", "140047.429000", "140047.432000", "140047.434000", "140047.437000", "140047.439000", "140047.442000", "140047.444000", "140047.446000", "140047.449000", "140047.451000", "140047.454000", "140047.456000", "140107.409000", "140107.412000", "140107.415000", "140107.417000", "140107.419000", "140107.422000", "140107.424000", "140107.427000", "140107.429000", "140107.432000", "140107.434000", "140107.437000", "140107.439000", "140107.442000", "140107.444000", "140107.447000", "140107.449000", "140107.452000", "140107.454000", "140107.457000", "140127.409000", "140127.412000", "140127.415000", "140127.417000", "140127.420000", "140127.422000", "140127.425000", "140127.427000", "140127.430000", "140127.432000", "140127.434000", "140127.437000", "140127.439000", "140127.442000", "140127.444000", "140127.447000", "140127.449000", "140127.452000", "140127.454000", "140127.456000", "140147.410000", "140147.412000", "140147.415000", "140147.417000", "140147.420000", "140147.422000", "140147.424000", "140147.427000", "140147.429000", "140147.432000", "140147.434000", "140147.437000", "140147.439000", "140147.441000", "140147.444000", "140147.446000", "140147.449000", "140147.451000", "140147.454000", "140147.456000", "140207.408000", "140207.411000", "140207.414000", "140207.416000", "140207.419000", "140207.421000", "140207.423000", "140207.426000", "140207.428000", "140207.431000", "140207.433000", "140207.436000", "140207.438000", "140207.441000", "140207.443000", "140207.445000", "140207.448000", "140207.451000", "140207.453000", "140207.456000", "140227.408000", "140227.411000", "140227.414000", "140227.416000", "140227.419000", "140227.421000", "140227.423000", "140227.426000", "140227.428000", "140227.431000", "140227.433000", "140227.436000", "140227.438000", "140227.441000", "140227.443000", "140227.445000", "140227.448000", "140227.450000", "140227.453000", "140227.456000", "140238.021000", "140238.024000", "140238.027000", "140238.029000", "140238.032000", "140238.035000", "140238.037000", "140238.040000", "140238.043000", "140238.045000", "140238.048000"],
      "InstanceCreationTime": ["135847.450000", "135847.453000", "135847.456000", "135847.465000", "135847.467000", "135847.470000", "135847.472000", "135847.475000", "135847.477000", "135847.480000", "135847.483000", "135847.485000", "135847.488000", "135847.491000", "135847.493000", "135847.496000", "135847.498000", "135847.501000", "135847.505000", "135847.508000", "135847.511000", "135847.513000", "135847.516000", "135847.519000", "135847.529000", "135847.532000", "135847.534000", "135847.537000", "135847.539000", "135847.542000", "135847.544000", "135847.547000", "135847.549000", "135907.410000", "135907.413000", "135907.415000", "135907.425000", "135907.427000", "135907.430000", "135907.432000", "135907.435000", "135907.437000", "135907.439000", "135907.442000", "135907.444000", "135907.447000", "135907.449000", "135907.452000", "135907.472000", "135907.474000", "135907.476000", "135907.479000", "135907.481000", "135927.409000", "135927.412000", "135927.414000", "135927.417000", "135927.419000", "135927.422000", "135927.424000", "135927.426000", "135927.429000", "135927.431000", "135927.434000", "135927.436000", "135927.439000", "135927.441000", "135927.444000", "135927.446000", "135927.448000", "135927.451000", "135927.453000", "135927.456000", "135947.408000", "135947.411000", "135947.414000", "135947.416000", "135947.418000", "135947.421000", "135947.423000", "135947.426000", "135947.428000", "135947.431000", "135947.433000", "135947.436000", "135947.438000", "135947.441000", "135947.443000", "135947.445000", "135947.448000", "135947.450000", "135947.453000", "135947.455000", "140007.408000", "140007.411000", "140007.413000", "140007.416000", "140007.418000", "140007.421000", "140007.423000", "140007.426000", "140007.428000", "140007.430000", "140007.433000", "140007.435000", "140007.438000", "140007.440000", "140007.443000", "140007.445000", "140007.447000", "140007.450000", "140007.452000", "140007.465000", "140027.408000", "140027.411000", "140027.414000", "140027.416000", "140027.418000", "140027.421000", "140027.423000", "140027.426000", "140027.428000", "140027.431000", "140027.433000", "140027.435000", "140027.438000", "140027.440000", "140027.443000", "140027.445000", "140027.447000", "140027.450000", "140027.452000", "140027.455000", "140047.410000", "140047.412000", "140047.415000", "140047.417000", "140047.420000", "140047.422000", "140047.424000", "140047.427000", "140047.429000", "140047.432000", "140047.434000", "140047.437000", "140047.439000", "140047.442000", "140047.444000", "140047.446000", "140047.449000", "140047.451000", "140047.454000", "140047.456000", "140107.409000", "140107.412000", "140107.415000", "140107.417000", "140107.419000", "140107.422000", "140107.424000", "140107.427000", "140107.429000", "140107.432000", "140107.434000", "140107.437000", "140107.439000", "140107.442000", "140107.444000", "140107.447000", "140107.449000", "140107.452000", "140107.454000", "140107.457000", "140127.409000", "140127.412000", "140127.415000", "140127.417000", "140127.420000", "140127.422000", "140127.425000", "140127.427000", "140127.430000", "140127.432000", "140127.434000", "140127.437000", "140127.439000", "140127.442000", "140127.444000", "140127.447000", "140127.449000", "140127.452000", "140127.454000", "140127.456000", "140147.410000", "140147.412000", "140147.415000", "140147.417000", "140147.420000", "140147.422000", "140147.424000", "140147.427000", "140147.429000", "140147.432000", "140147.434000", "140147.437000", "140147.439000", "140147.441000", "140147.444000", "140147.446000", "140147.449000", "140147.451000", "140147.454000", "140147.456000", "140207.408000", "140207.411000", "140207.414000", "140207.416000", "140207.419000", "140207.421000", "140207.423000", "140207.426000", "140207.428000", "140207.431000", "140207.433000", "140207.436000", "140207.438000", "140207.441000", "140207.443000", "140207.445000", "140207.448000", "140207.451000", "140207.453000", "140207.456000", "140227.408000", "140227.411000", "140227.414000", "140227.416000", "140227.419000", "140227.421000", "140227.423000", "140227.426000", "140227.428000", "140227.431000", "140227.433000", "140227.436000", "140227.438000", "140227.441000", "140227.443000", "140227.445000", "140227.448000", "140227.450000", "140227.453000", "140227.456000", "140238.021000", "140238.024000", "140238.027000", "140238.029000", "140238.032000", "140238.035000", "140238.037000", "140238.040000", "140238.043000", "140238.045000", "140238.048000"],
      "InstanceNumber": [1, 2, 3, 4, 5, 6, 7, 8, 9, 10, 11, 12, 13, 14, 15, 16, 17, 18, 19, 20, 21, 22, 23, 24, 25, 26, 27, 28, 29, 30, 31, 32, 33, 34, 35, 36, 37, 38, 39, 40, 41, 42, 43, 44, 45, 46, 47, 48, 49, 50, 51, 52, 53, 54, 55, 56, 57, 58, 59, 60, 61, 62, 63, 64, 65, 66, 67, 68, 69, 70, 71, 72, 73, 74, 75, 76, 77, 78, 79, 80, 81, 82, 83, 84, 85, 86, 87, 88, 89, 90, 91, 92, 93, 94, 95, 96, 97, 98, 99, 100, 101, 102, 103, 104, 105, 106, 107, 108, 109, 110, 111, 112, 113, 114, 115, 116, 117, 118, 119, 120, 121, 122, 123, 124, 125, 126, 127, 128, 129, 130, 131, 132, 133, 134, 135, 136, 137, 138, 139, 140, 141, 142, 143, 144, 145, 146, 147, 148, 149, 150, 151, 152, 153, 154, 155, 156, 157, 158, 159, 160, 161, 162, 163, 164, 165, 166, 167, 168, 169, 170, 171, 172, 173, 174, 175, 176, 177, 178, 179, 180, 181, 182, 183, 184, 185, 186, 187, 188, 189, 190, 191, 192, 193, 194, 195, 196, 197, 198, 199, 200, 201, 202, 203, 204, 205, 206, 207, 208, 209, 210, 211, 212, 213, 214, 215, 216, 217, 218, 219, 220, 221, 222, 223, 224, 225, 226, 227, 228, 229, 230, 231, 232, 233, 234, 235, 236, 237, 238, 239, 240, 241, 242, 243, 244, 245, 246, 247, 248, 249, 250, 251, 252, 253, 254, 255, 256, 257, 258, 259, 260, 261, 262, 263, 264],
      "LargestImagePixelValue": [14870, 14488, 14269, 14134, 13974, 13901, 13853, 13849, 14006, 13923, 13938, 13889, 13886, 13923, 13894, 13959, 13737, 13992, 13890, 13844, 14075, 13938, 13828, 13865, 13761, 13819, 13820, 13736, 13907, 13829, 13780, 13979, 13855, 13902, 13875, 13815, 13732, 13958, 13875, 13735, 13934, 13936, 13861, 14081, 14031, 13920, 13978, 14137, 13864, 14043, 13975, 13837, 13997, 13964, 13798, 13916, 13939, 13717, 13875, 13886, 13737, 13878, 13892, 13680, 13753, 13902, 13706, 13859, 13872, 13742, 13776, 13842, 13423, 13606, 13861, 13605, 13748, 13825, 13924, 13693, 13943, 13780, 13795, 13903, 13747, 13799, 13798, 13771, 13657, 13887, 13778, 13828, 13900, 13728, 13895, 13844, 13678, 13785, 13806, 13766, 13712, 13784, 13602, 13779, 13851, 13689, 13938, 13963, 13732, 13804, 13885, 13745, 13930, 13884, 13761, 13876, 13964, 13835, 13921, 13897, 13868, 13872, 13918, 13773, 13802, 13780, 13964, 13728, 13911, 13826, 13800, 13863, 13979, 13794, 13956, 13942, 13846, 13896, 13865, 13829, 13802, 13821, 13880, 13772, 13857, 13817, 13772, 13923, 13863, 13814, 13928, 13874, 13730, 13926, 13871, 13750, 13874, 13833, 13726, 13926, 13826, 13816, 13992, 13952, 13852, 13828, 13889, 13827, 13865, 13817, 13788, 13856, 13941, 13919, 13837, 13965, 13983, 13889, 13850, 13996, 13764, 13856, 13764, 13778, 13875, 13922, 13829, 13891, 13869, 13754, 13846, 14007, 13885, 13952, 13938, 13880, 13857, 13970, 13881, 13937, 13956, 13896, 13946, 14016, 13913, 13961, 13913, 13815, 13782, 13846, 13810, 13799, 13894, 13788, 13860, 13810, 13886, 13810, 13783, 13823, 13865, 13801, 13970, 13959, 13833, 14026, 14011, 13856, 13910, 13919, 13843, 13904, 13887, 13806, 13941, 13916, 13975, 13822, 13919, 13863, 14025, 13910, 13873, 13964, 13939, 13863, 13900, 13880, 13927, 13841, 13929, 13780, 13844, 13859, 13820, 13951, 13860, 13892, 13832, 13857, 13880, 13881, 13896, 13822],
      "TriggerTime": [8100.0, 9100.0, 10100.0, 11100.0, 12100.0, 13100.0, 14100.0, 15100.0, 16100.0, 17100.0, 18100.0, 19100.0, 20100.0, 21100.0, 22100.0, 23100.0, 24100.0, 25100.0, 26100.0, 27100.0, 28100.0, 29100.0, 30100.0, 31100.0, 32100.0, 33100.0, 34100.0, 35100.0, 36100.0, 37100.0, 38100.0, 39100.0, 40100.0, 41100.0, 42100.0, 43100.0, 44100.0, 45100.0, 46100.0, 47100.0, 48100.0, 49100.0, 50100.0, 51100.0, 52100.0, 53100.0, 54100.0, 55100.0, 56100.0, 57100.0, 58100.0, 59100.0, 60100.0, 61100.0, 62100.0, 63100.0, 64100.0, 65100.0, 66100.0, 67100.0, 68100.0, 69100.0, 70100.0, 71100.0, 72100.0, 73100.0, 74100.0, 75100.0, 76100.0, 77100.0, 78100.0, 79100.0, 80100.0, 81100.0, 82100.0, 83100.0, 84100.0, 85100.0, 86100.0, 87100.0, 88100.0, 89100.0, 90100.0, 91100.0, 92100.0, 93100.0, 94100.0, 95100.0, 96100.0, 97100.0, 98100.0, 99100.0, 100100.0, 101100.0, 102100.0, 103100.0, 104100.0, 105100.0, 106100.0, 107100.0, 108100.0, 109100.0, 110100.0, 111100.0, 112100.0, 113100.0, 114100.0, 115100.0, 116100.0, 117100.0, 118100.0, 119100.0, 120100.0, 121100.0, 122100.0, 123100.0, 124100.0, 125100.0, 126100.0, 127100.0, 128100.0, 129100.0, 130100.0, 131100.0, 132100.0, 133100.0, 134100.0, 135100.0, 136100.0, 137100.0, 138100.0, 139100.0, 140100.0, 141100.0, 142100.0, 143100.0, 144100.0, 145100.0, 146100.0, 147100.0, 148100.0, 149100.0, 150100.0, 151100.0, 152100.0, 153100.0, 154100.0, 155100.0, 156100.0, 157100.0, 158100.0, 159100.0, 160100.0, 161100.0, 162100.0, 163100.0, 164100.0, 165100.0, 166100.0, 167100.0, 168100.0, 169100.0, 170100.0, 171100.0, 172100.0, 173100.0, 174100.0, 175100.0, 176100.0, 177100.0, 178100.0, 179100.0, 180100.0, 181100.0, 182100.0, 183100.0, 184100.0, 185100.0, 186100.0, 187100.0, 188100.0, 189100.0, 190100.0, 191100.0, 192100.0, 193100.0, 194100.0, 195100.0, 196100.0, 197100.0, 198100.0, 199100.0, 200100.0, 201100.0, 202100.0, 203100.0, 204100.0, 205100.0, 206100.0, 207100.0, 208100.0, 209100.0, 210100.0, 211100.0, 212100.0, 213100.0, 214100.0, 215100.0, 216100.0, 217100.0, 218100.0, 219100.0, 220100.0, 221100.0, 222100.0, 223100.0, 224100.0, 225100.0, 226100.0, 227100.0, 228100.0, 229100.0, 230100.0, 231100.0, 232100.0, 233100.0, 234100.0, 235100.0, 236100.0, 237100.0, 238100.0, 239100.0, 240100.0, 241100.0, 242100.0, 243100.0, 244100.0, 245100.0, 246100.0, 247100.0, 248100.0, 249100.0, 250100.0, 251100.0, 252100.0, 253100.0, 254100.0, 255100.0, 256100.0, 257100.0, 258100.0, 259100.0, 260100.0, 261100.0, 262100.0, 263100.0, 264100.0, 265100.0, 266100.0, 267100.0, 268100.0, 269100.0, 270100.0, 271100.0],
      "WindowCenter": [5042.0, 5015.0, 5000.0, 4986.0, 4972.0, 4963.0, 4962.0, 4970.0, 4975.0, 4972.0, 4971.0, 4975.0, 4972.0, 4986.0, 4987.0, 4996.0, 4987.0, 4999.0, 4988.0, 4987.0, 4997.0, 4997.0, 4989.0, 4989.0, 4988.0, 4987.0, 4990.0, 4998.0, 5002.0, 5005.0, 5001.0, 5012.0, 5002.0, 5003.0, 5000.0, 5000.0, 4993.0, 5000.0, 4989.0, 4988.0, 4999.0, 4998.0, 4987.0, 4998.0, 4999.0, 4988.0, 4989.0, 4996.0, 4989.0, 5001.0, 5002.0, 4993.0, 5003.0, 5004.0, 5000.0, 4987.0, 5001.0, 4993.0, 5001.0, 4999.0, 5002.0, 5002.0, 5002.0, 5003.0, 5000.0, 5003.0, 5000.0, 5000.0, 5001.0, 4999.0, 5003.0, 5003.0, 5004.0, 5003.0, 5001.0, 5006.0, 5005.0, 5001.0, 5005.0, 4999.0, 5002.0, 5004.0, 5002.0, 4999.0, 5003.0, 5002.0, 4999.0, 5004.0, 4991.0, 4999.0, 5005.0, 5003.0, 5001.0, 5000.0, 5001.0, 5002.0, 5003.0, 5000.0, 5001.0, 4992.0, 4990.0, 5001.0, 4995.0, 5003.0, 5001.0, 5000.0, 4999.0, 5001.0, 5003.0, 5001.0, 5003.0, 5001.0, 4999.0, 4989.0, 4990.0, 4994.0, 5000.0, 4990.0, 4999.0, 4987.0, 4990.0, 4989.0, 4988.0, 4991.0, 4991.0, 4991.0, 5000.0, 4991.0, 4991.0, 4999.0, 4993.0, 4998.0, 5014.0, 5001.0, 5001.0, 5003.0, 5002.0, 4991.0, 5007.0, 5002.0, 5005.0, 5002.0, 5002.0, 5001.0, 5001.0, 5002.0, 5004.0, 5002.0, 5003.0, 5002.0, 5005.0, 5007.0, 5007.0, 5012.0, 5008.0, 5007.0, 5005.0, 5000.0, 4992.0, 5001.0, 4988.0, 4988.0, 4998.0, 5002.0, 4989.0, 4990.0, 4991.0, 4993.0, 4991.0, 4992.0, 4992.0, 4991.0, 5003.0, 4988.0, 4988.0, 5002.0, 4998.0, 4992.0, 4990.0, 5002.0, 4992.0, 4992.0, 4994.0, 4991.0, 4993.0, 4998.0, 4989.0, 4991.0, 4993.0, 4992.0, 4992.0, 5000.0, 4991.0, 5000.0, 5004.0, 4992.0, 4990.0, 5000.0, 4987.0, 4992.0, 5000.0, 4990.0, 4999.0, 5000.0, 5000.0, 5003.0, 4990.0, 4993.0, 4991.0, 4995.0, 4992.0, 4994.0, 4991.0, 4993.0, 5002.0, 4991.0, 5002.0, 5005.0, 4991.0, 4993.0, 4990.0, 4989.0, 5004.0, 5000.0, 4991.0, 5001.0, 5003.0, 4990.0, 4993.0, 4992.0, 4995.0, 4993.0, 4993.0, 5004.0, 5001.0, 4993.0, 5000.0, 4993.0, 5002.0, 5003.0, 5001.0, 5003.0, 4992.0, 5006.0, 5004.0, 5000.0, 4993.0, 5003.0, 5003.0, 5000.0, 4999.0, 4990.0, 4991.0, 4991.0, 4989.0, 4991.0, 4987.0, 4979.0, 4990.0, 4993.0, 4988.0, 4987.0, 4992.0, 4989.0],
