{
  "AcquisitionMatrixPE": 106,
  "AcquisitionNumber": 1,
  "AcquisitionTime": "18:08:56.617500",
  "BandwidthPerPixelPhaseEncode": 13.477,
  "BaseResolution": 106,
  "BodyPartExamined": "BRAIN",
  "CoilCombinationMethod": "Sum of Squares",
  "ConsistencyInfo": "N4_VE11C_LATEST_20160120",
  "ConversionSoftware": "dcm2niix",
  "ConversionSoftwareVersion": "v1.0.20220720",
  "DerivedVendorReportedEchoSpacing": 0.000700005,
  "DeviceSerialNumber": "166108",
  "DwellTime": 2.6e-06,
  "EchoTime": 0.03,
  "EchoTrainLength": 80,
  "EffectiveEchoSpacing": 0.000700005,
  "FlipAngle": 62,
  "HeudiconvVersion": "1.3.0",
  "ImageComments": "Unaliased MB4/PE3/LB",
  "ImageOrientationPatientDICOM": [1, 0, 0, 0, 0.997801, -0.0662739],
  "ImageOrientationText": "Tra>Cor(-3.8)",
  "ImageType": [
    "ORIGINAL",
    "PRIMARY",
    "M",
    "MB",
    "ND",
    "MOSAIC"
],
  "ImagingFrequency": 123.244,
  "InPlanePhaseEncodingDirectionDICOM": "COL",
  "InstitutionAddress": "Bedford Way 26,London,London,GB,WC1H 0AP",
  "InstitutionName": "University College",
  "InstitutionalDepartmentName": "Department",
  "MRAcquisitionType": "2D",
  "MagneticFieldStrength": 3,
  "Manufacturer": "Siemens",
  "ManufacturersModelName": "Prisma",
  "MatrixCoilMode": "SENSE",
  "Modality": "MR",
  "MultibandAccelerationFactor": 4,
  "NonlinearGradientCorrection": false,
  "PartialFourier": 0.75,
  "PatientPosition": "HFS",
  "PercentPhaseFOV": 100,
  "PercentSampling": 100,
  "PhaseEncodingDirection": "j-",
  "PhaseEncodingSteps": 80,
  "PhaseResolution": 1,
  "PixelBandwidth": 1815,
  "ProcedureStepDescription": "Egor^MovieProject2",
  "ProtocolName": "func-bold_task-motor_run-02",
  "PulseSequenceDetails": "%CustomerSeq%\\cmrr_mbep2d_bold",
  "ReceiveCoilActiveElements": "HEA;HEP",
  "ReceiveCoilName": "Head_32",
  "ReconMatrixPE": 106,
  "RepetitionTime": 1,
  "SAR": 0.0395169,
  "ScanOptions": "PFP\\FS\\EXT",
  "ScanningSequence": "EP",
  "SequenceName": "epfid2d1_106",
  "SequenceVariant": "SK\\SS",
  "SeriesDescription": "func-bold_task-motor_run-02",
  "SeriesNumber": 4,
  "ShimSetting": [-1493, 556, 7388, 171, 30, 26, 302, -105],
  "SliceThickness": 2,
  "SliceTiming": [0, 0.535, 0.09, 0.625, 0.18, 0.715, 0.2675, 0.8025, 0.3575, 0.8925, 0.4475, 0, 0.535, 0.09, 0.625, 0.18, 0.715, 0.2675, 0.8025, 0.3575, 0.8925, 0.4475, 0, 0.535, 0.09, 0.625, 0.18, 0.715, 0.2675, 0.8025, 0.3575, 0.8925, 0.4475, 0, 0.535, 0.09, 0.625, 0.18, 0.715, 0.2675, 0.8025, 0.3575, 0.8925, 0.4475],
  "SoftwareVersions": "syngo MR E11",
  "SpacingBetweenSlices": 2,
  "StationName": "AWP166108",
  "TaskName": "somatotopy",
  "TotalReadoutTime": 0.0735005,
  "TxRefAmp": 220.568,
  "WipMemBlock": "bd7e7180-272f-405b-aa95-34d1a5a5fb8d||Sequence: R016 ve11c/master r/e634e98; Dec 19 2017 11:00:25 by eja",
  "dcmmeta_affine": [
    [-2.0, 0.0, 0.0, 106.0],
    [0.0, 1.9956029653549194, -0.13254781067371368, -89.88082122802734],
    [0.0, 0.13254781067371368, 1.9956029653549194, -5.67323112487793],
    [0.0, 0.0, 0.0, 1.0]
],
  "dcmmeta_reorient_transform": [
    [0.0, -1.0, 0.0, 105.0],
    [1.0, 0.0, 0.0, 0.0],
    [0.0, 0.0, 1.0, 0.0],
    [0.0, 0.0, 0.0, 1.0]
],
  "dcmmeta_shape": [106, 106, 44, 469],
  "dcmmeta_slice_dim": 2,
  "dcmmeta_version": 0.6,
  "global": {
    "const": {
      "AcquisitionMatrix": [106, 0, 0, 106],
      "AngioFlag": "N",
      "BitsAllocated": 16,
      "BitsStored": 16,
      "BodyPartExamined": "BRAIN",
      "CardiacNumberOfImages": 1,
      "Columns": 742,
      "EchoNumbers": 1,
      "EchoTime": 30.0,
      "EchoTrainLength": 80,
      "FlipAngle": 62.0,
      "HighBit": 15,
      "ImageOrientationPatient": [1.0, 0.0, 0.0, 0.0, 0.99780146819131, -0.0662739019167],
      "ImagePositionPatient": [-742.0, -754.25922093787, 50.394489835122],
      "ImageType": [
        "ORIGINAL",
        "PRIMARY",
        "M",
        "MB",
        "ND",
        "MOSAIC"
],
      "ImagedNucleus": "1H",
      "ImagingFrequency": 123.243654,
      "InPlanePhaseEncodingDirection": "COL",
      "MRAcquisitionType": "2D",
      "MagneticFieldStrength": 3.0,
      "Manufacturer": "SIEMENS",
      "ManufacturerModelName": "Prisma",
      "Modality": "MR",
      "NominalInterval": 0,
      "NumberOfAverages": 1.0,
      "NumberOfPhaseEncodingSteps": 80,
      "PercentPhaseFieldOfView": 100.0,
      "PercentSampling": 100.0,
      "PerformedProcedureStepStartTime": "175713.948000",
      "PhotometricInterpretation": "MONOCHROME2",
      "PixelBandwidth": 1815.0,
      "PixelRepresentation": 0,
      "PixelSpacing": [2.0, 2.0],
      "ProtocolName": "func-bold_task-motor_run-02",
      "RepetitionTime": 1000.0,
      "Rows": 742,
      "SAR": 0.03951685881479,
      "SamplesPerPixel": 1,
      "ScanOptions": [
        "PFP",
        "FS",
        "EXT"
],
      "ScanningSequence": "EP",
      "SequenceName": "epfid2d1_106",
      "SequenceVariant": [
        "SK",
        "SS"
],
      "SeriesDescription": "func-bold_task-motor_run-02",
      "SeriesNumber": 4,
      "SeriesTime": "180917.853000",
      "SliceLocation": 0.29599431802583,
      "SliceThickness": 2.0,
      "SmallestImagePixelValue": 0,
      "SoftwareVersions": "syngo MR E11",
      "SpacingBetweenSlices": 2.0000000231175,
      "SpecificCharacterSet": "ISO_IR 100",
      "StudyID": "1",
      "StudyTime": "175713.819000",
      "TransmitCoilName": "Body",
      "VariableFlipAngleFlag": "N",
      "WindowCenterWidthExplanation": "Algo1",
      "dBdt": 0.0},
    "slices": {}
  },
  "time": {
    "samples": {
      "AcquisitionNumber": [1, 2, 3, 4, 5, 6, 7, 8, 9, 10, 11, 12, 13, 14, 15, 16, 17, 18, 19, 20, 21, 22, 23, 24, 25, 26, 27, 28, 29, 30, 31, 32, 33, 34, 35, 36, 37, 38, 39, 40, 41, 42, 43, 44, 45, 46, 47, 48, 49, 50, 51, 52, 53, 54, 55, 56, 57, 58, 59, 60, 61, 62, 63, 64, 65, 66, 67, 68, 69, 70, 71, 72, 73, 74, 75, 76, 77, 78, 79, 80, 81, 82, 83, 84, 85, 86, 87, 88, 89, 90, 91, 92, 93, 94, 95, 96, 97, 98, 99, 100, 101, 102, 103, 104, 105, 106, 107, 108, 109, 110, 111, 112, 113, 114, 115, 116, 117, 118, 119, 120, 121, 122, 123, 124, 125, 126, 127, 128, 129, 130, 131, 132, 133, 134, 135, 136, 137, 138, 139, 140, 141, 142, 143, 144, 145, 146, 147, 148, 149, 150, 151, 152, 153, 154, 155, 156, 157, 158, 159, 160, 161, 162, 163, 164, 165, 166, 167, 168, 169, 170, 171, 172, 173, 174, 175, 176, 177, 178, 179, 180, 181, 182, 183, 184, 185, 186, 187, 188, 189, 190, 191, 192, 193, 194, 195, 196, 197, 198, 199, 200, 201, 202, 203, 204, 205, 206, 207, 208, 209, 210, 211, 212, 213, 214, 215, 216, 217, 218, 219, 220, 221, 222, 223, 224, 225, 226, 227, 228, 229, 230, 231, 232, 233, 234, 235, 236, 237, 238, 239, 240, 241, 242, 243, 244, 245, 246, 247, 248, 249, 250, 251, 252, 253, 254, 255, 256, 257, 258, 259, 260, 261, 262, 263, 264, 265, 266, 267, 268, 269, 270, 271, 272, 273, 274, 275, 276, 277, 278, 279, 280, 281, 282, 283, 284, 285, 286, 287, 288, 289, 290, 291, 292, 293, 294, 295, 296, 297, 298, 299, 300, 301, 302, 303, 304, 305, 306, 307, 308, 309, 310, 311, 312, 313, 314, 315, 316, 317, 318, 319, 320, 321, 322, 323, 324, 325, 326, 327, 328, 329, 330, 331, 332, 333, 334, 335, 336, 337, 338, 339, 340, 341, 342, 343, 344, 345, 346, 347, 348, 349, 350, 351, 352, 353, 354, 355, 356, 357, 358, 359, 360, 361, 362, 363, 364, 365, 366, 367, 368, 369, 370, 371, 372, 373, 374, 375, 376, 377, 378, 379, 380, 381, 382, 383, 384, 385, 386, 387, 388, 389, 390, 391, 392, 393, 394, 395, 396, 397, 398, 399, 400, 401, 402, 403, 404, 405, 406, 407, 408, 409, 410, 411, 412, 413, 414, 415, 416, 417, 418, 419, 420, 421, 422, 423, 424, 425, 426, 427, 428, 429, 430, 431, 432, 433, 434, 435, 436, 437, 438, 439, 440, 441, 442, 443, 444, 445, 446, 447, 448, 449, 450, 451, 452, 453, 454, 455, 456, 457, 458, 459, 460, 461, 462, 463, 464, 465, 466, 467, 468, 469],
      "AcquisitionTime": ["180856.617500", "180857.617500", "180858.617500", "180859.617500", "180900.617500", "180901.617500", "180902.617500", "180903.617500", "180904.617500", "180905.617500", "180906.617500", "180907.617500", "180908.617500", "180909.617500", "180910.617500", "180911.617500", "180912.617500", "180913.617500", "180914.617500", "180915.617500", "180916.617500", "180917.617500", "180918.617500", "180919.617500", "180920.617500", "180921.617500", "180922.617500", "180923.617500", "180924.617500", "180925.617500", "180926.617500", "180927.617500", "180928.617500", "180929.617500", "180930.617500", "180931.617500", "180932.617500", "180933.617500", "180934.617500", "180935.617500", "180936.617500", "180937.617500", "180938.617500", "180939.617500", "180940.617500", "180941.617500", "180942.617500", "180943.617500", "180944.617500", "180945.617500", "180946.617500", "180947.617500", "180948.617500", "180949.617500", "180950.617500", "180951.617500", "180952.617500", "180953.617500", "180954.617500", "180955.617500", "180956.617500", "180957.617500", "180958.617500", "180959.617500", "181000.617500", "181001.617500", "181002.617500", "181003.617500", "181004.617500", "181005.617500", "181006.617500", "181007.617500", "181008.617500", "181009.617500", "181010.617500", "181011.617500", "181012.617500", "181013.617500", "181014.617500", "181015.617500", "181016.617500", "181017.617500", "181018.617500", "181019.617500", "181020.617500", "181021.617500", "181022.617500", "181023.617500", "181024.617500", "181025.617500", "181026.617500", "181027.617500", "181028.617500", "181029.617500", "181030.617500", "181031.617500", "181032.617500", "181033.617500", "181034.617500", "181035.617500", "181036.617500", "181037.617500", "181038.617500", "181039.617500", "181040.617500", "181041.617500", "181042.617500", "181043.617500", "181044.617500", "181045.617500", "181046.617500", "181047.617500", "181048.617500", "181049.617500", "181050.617500", "181051.617500", "181052.617500", "181053.617500", "181054.617500", "181055.617500", "181056.617500", "181057.617500", "181058.617500", "181059.617500", "181100.617500", "181101.617500", "181102.617500", "181103.617500", "181104.617500", "181105.617500", "181106.617500", "181107.617500", "181108.617500", "181109.617500", "181110.617500", "181111.617500", "181112.617500", "181113.617500", "181114.617500", "181115.617500", "181116.617500", "181117.617500", "181118.617500", "181119.617500", "181120.617500", "181121.617500", "181122.617500", "181123.617500", "181124.617500", "181125.617500", "181126.617500", "181127.617500", "181128.617500", "181129.617500", "181130.617500", "181131.617500", "181132.617500", "181133.617500", "181134.617500", "181135.617500", "181136.617500", "181137.617500", "181138.617500", "181139.617500", "181140.617500", "181141.617500", "181142.617500", "181143.617500", "181144.617500", "181145.617500", "181146.617500", "181147.617500", "181148.617500", "181149.617500", "181150.617500", "181151.617500", "181152.617500", "181153.617500", "181154.617500", "181155.617500", "181156.617500", "181157.617500", "181158.617500", "181159.617500", "181200.617500", "181201.617500", "181202.617500", "181203.617500", "181204.617500", "181205.617500", "181206.617500", "181207.617500", "181208.617500", "181209.617500", "181210.617500", "181211.617500", "181212.617500", "181213.617500", "181214.617500", "181215.617500", "181216.617500", "181217.617500", "181218.617500", "181219.617500", "181220.617500", "181221.617500", "181222.617500", "181223.617500", "181224.617500", "181225.617500", "181226.617500", "181227.617500", "181228.617500", "181229.617500", "181230.617500", "181231.617500", "181232.617500", "181233.617500", "181234.617500", "181235.617500", "181236.617500", "181237.617500", "181238.617500", "181239.617500", "181240.617500", "181241.617500", "181242.617500", "181243.617500", "181244.617500", "181245.617500", "181246.617500", "181247.617500", "181248.617500", "181249.617500", "181250.617500", "181251.617500", "181252.617500", "181253.617500", "181254.617500", "181255.617500", "181256.617500", "181257.617500", "181258.617500", "181259.617500", "181300.617500", "181301.617500", "181302.617500", "181303.617500", "181304.617500", "181305.617500", "181306.617500", "181307.617500", "181308.617500", "181309.617500", "181310.617500", "181311.617500", "181312.617500", "181313.617500", "181314.617500", "181315.617500", "181316.617500", "181317.617500", "181318.617500", "181319.617500", "181320.617500", "181321.617500", "181322.617500", "181323.617500", "181324.617500", "181325.617500", "181326.617500", "181327.617500", "181328.617500", "181329.617500", "181330.617500", "181331.617500", "181332.617500", "181333.617500", "181334.617500", "181335.617500", "181336.617500", "181337.617500", "181338.617500", "181339.617500", "181340.617500", "181341.617500", "181342.617500", "181343.617500", "181344.617500", "181345.617500", "181346.617500", "181347.617500", "181348.617500", "181349.617500", "181350.617500", "181351.617500", "181352.617500", "181353.617500", "181354.617500", "181355.617500", "181356.617500", "181357.617500", "181358.617500", "181359.617500", "181400.617500", "181401.617500", "181402.617500", "181403.617500", "181404.617500", "181405.617500", "181406.617500", "181407.617500", "181408.617500", "181409.617500", "181410.617500", "181411.617500", "181412.617500", "181413.617500", "181414.617500", "181415.617500", "181416.617500", "181417.617500", "181418.617500", "181419.617500", "181420.617500", "181421.617500", "181422.617500", "181423.617500", "181424.617500", "181425.617500", "181426.617500", "181427.617500", "181428.617500", "181429.617500", "181430.617500", "181431.617500", "181432.617500", "181433.617500", "181434.617500", "181435.617500", "181436.617500", "181437.617500", "181438.617500", "181439.617500", "181440.617500", "181441.617500", "181442.617500", "181443.617500", "181444.617500", "181445.617500", "181446.617500", "181447.617500", "181448.617500", "181449.617500", "181450.617500", "181451.617500", "181452.617500", "181453.617500", "181454.617500", "181455.617500", "181456.617500", "181457.617500", "181458.617500", "181459.617500", "181500.617500", "181501.617500", "181502.617500", "181503.617500", "181504.617500", "181505.617500", "181506.617500", "181507.617500", "181508.617500", "181509.617500", "181510.617500", "181511.617500", "181512.617500", "181513.617500", "181514.617500", "181515.617500", "181516.617500", "181517.617500", "181518.617500", "181519.617500", "181520.617500", "181521.617500", "181522.617500", "181523.617500", "181524.617500", "181525.617500", "181526.617500", "181527.617500", "181528.617500", "181529.617500", "181530.617500", "181531.617500", "181532.617500", "181533.617500", "181534.617500", "181535.617500", "181536.617500", "181537.617500", "181538.617500", "181539.617500", "181540.617500", "181541.617500", "181542.617500", "181543.617500", "181544.617500", "181545.617500", "181546.617500", "181547.617500", "181548.617500", "181549.617500", "181550.617500", "181551.617500", "181552.617500", "181553.617500", "181554.617500", "181555.617500", "181556.617500", "181557.617500", "181558.617500", "181559.617500", "181600.617500", "181601.617500", "181602.617500", "181603.617500", "181604.617500", "181605.617500", "181606.617500", "181607.617500", "181608.617500", "181609.617500", "181610.617500", "181611.617500", "181612.617500", "181613.617500", "181614.617500", "181615.617500", "181616.617500", "181617.617500", "181618.617500", "181619.617500", "181620.617500", "181621.617500", "181622.617500", "181623.617500", "181624.617500", "181625.617500", "181626.617500", "181627.617500", "181628.617500", "181629.617500", "181630.617500", "181631.617500", "181632.617500", "181633.617500", "181634.617500", "181635.617500", "181636.617500", "181637.617500", "181638.617500", "181639.617500", "181640.617500", "181641.617500", "181642.617500", "181643.617500", "181644.617500"],
      "ContentTime": ["180917.855000", "180917.858000", "180917.861000", "180917.864000", "180917.866000", "180917.869000", "180917.871000", "180917.874000", "180917.876000", "180917.879000", "180917.888000", "180917.895000", "180917.898000", "180917.909000", "180917.912000", "180917.915000", "180917.918000", "180917.920000", "180917.923000", "180917.925000", "180937.819000", "180937.821000", "180937.824000", "180937.827000", "180937.829000", "180937.832000", "180937.834000", "180937.837000", "180937.840000", "180937.842000", "180937.844000", "180937.847000", "180937.850000", "180937.852000", "180937.855000", "180937.858000", "180937.860000", "180937.863000", "180937.865000", "180937.868000", "180957.818000", "180957.821000", "180957.824000", "180957.826000", "180957.836000", "180957.838000", "180957.841000", "180957.843000", "180957.846000", "180957.848000", "180957.850000", "180957.853000", "180957.855000", "180957.858000", "180957.860000", "180957.863000", "180957.865000", "180957.868000", "180957.870000", "180957.873000", "181017.818000", "181017.821000", "181017.824000", "181017.827000", "181017.829000", "181017.832000", "181017.834000", "181017.837000", "181017.839000", "181017.842000", "181017.844000", "181017.847000", "181017.850000", "181017.852000", "181017.854000", "181017.857000", "181017.860000", "181017.862000", "181017.864000", "181017.867000", "181037.819000", "181037.821000", "181037.824000", "181037.827000", "181037.829000", "181037.832000", "181037.834000", "181037.837000", "181037.840000", "181037.842000", "181037.845000", "181037.847000", "181037.850000", "181037.852000", "181037.855000", "181037.858000", "181037.860000", "181037.876000", "181037.879000", "181037.882000", "181057.818000", "181057.821000", "181057.824000", "181057.826000", "181057.829000", "181057.831000", "181057.833000", "181057.836000", "181057.839000", "181057.841000", "181057.844000", "181057.846000", "181057.849000", "181057.851000", "181057.854000", "181057.856000", "181057.859000", "181057.861000", "181057.864000", "181057.866000", "181117.818000", "181117.821000", "181117.823000", "181117.826000", "181117.828000", "181117.831000", "181117.833000", "181117.836000", "181117.838000", "181117.841000", "181117.843000", "181117.846000", "181117.848000", "181117.850000", "181117.853000", "181117.855000", "181117.858000", "181117.860000", "181117.863000", "181117.865000", "181137.819000", "181137.822000", "181137.824000", "181137.827000", "181137.829000", "181137.832000", "181137.834000", "181137.837000", "181137.839000", "181137.842000", "181137.844000", "181137.847000", "181137.849000", "181137.852000", "181137.854000", "181137.857000", "181137.859000", "181137.862000", "181137.864000", "181137.867000", "181157.818000", "181157.821000", "181157.824000", "181157.827000", "181157.830000", "181157.832000", "181157.835000", "181157.838000", "181157.840000", "181157.843000", "181157.846000", "181157.848000", "181157.851000", "181157.853000", "181157.856000", "181157.859000", "181157.861000", "181157.864000", "181157.866000", "181157.869000", "181217.818000", "181217.821000", "181217.824000", "181217.827000", "181217.830000", "181217.832000", "181217.834000", "181217.837000", "181217.840000", "181217.842000", "181217.845000", "181217.848000", "181217.850000", "181217.853000", "181217.855000", "181217.858000", "181217.861000", "181217.864000", "181217.866000", "181217.869000", "181237.819000", "181237.821000", "181237.824000", "181237.826000", "181237.829000", "181237.831000", "181237.834000", "181237.837000", "181237.839000", "181237.842000", "181237.844000", "181237.847000", "181237.849000", "181237.852000", "181237.854000", "181237.857000", "181237.859000", "181237.862000", "181237.864000", "181237.867000", "181257.818000", "181257.821000", "181257.823000", "181257.826000", "181257.828000", "181257.831000", "181257.833000", "181257.836000", "181257.838000", "181257.841000", "181257.843000", "181257.846000", "181257.848000", "181257.851000", "181257.853000", "181257.856000", "181257.858000", "181257.861000", "181257.863000", "181257.866000", "181317.818000", "181317.821000", "181317.824000", "181317.827000", "181317.829000", "181317.832000", "181317.835000", "181317.838000", "181317.840000", "181317.843000", "181317.846000", "181317.848000", "181317.851000", "181317.853000", "181317.856000", "181317.859000", "181317.861000", "181317.864000", "181317.866000", "181317.869000", "181337.819000", "181337.821000", "181337.824000", "181337.827000", "181337.829000", "181337.832000", "181337.835000", "181337.837000", "181337.840000", "181337.843000", "181337.845000", "181337.848000", "181337.851000", "181337.853000", "181337.856000", "181337.859000", "181337.861000", "181337.864000", "181337.866000", "181337.869000", "181357.819000", "181357.822000", "181357.825000", "181357.827000", "181357.830000", "181357.832000", "181357.835000", "181357.837000", "181357.840000", "181357.842000", "181357.845000", "181357.865000", "181357.868000", "181357.870000", "181357.872000", "181357.875000", "181357.877000", "181357.880000", "181357.882000", "181357.885000", "181417.818000", "181417.821000", "181417.824000", "181417.827000", "181417.830000", "181417.832000", "181417.835000", "181417.837000", "181417.840000", "181417.842000", "181417.845000", "181417.847000", "181417.850000", "181417.852000", "181417.855000", "181417.857000", "181417.860000", "181417.862000", "181417.865000", "181417.868000", "181437.818000", "181437.821000", "181437.824000", "181437.827000", "181437.829000", "181437.832000", "181437.835000", "181437.837000", "181438.027000", "181438.030000", "181438.032000", "181438.035000", "181438.038000", "181438.040000", "181438.043000", "181438.045000", "181438.048000", "181438.050000", "181438.053000", "181438.055000", "181457.818000", "181457.821000", "181457.824000", "181457.827000", "181457.829000", "181457.832000", "181457.835000", "181457.837000", "181457.840000", "181457.842000", "181457.845000", "181457.848000", "181457.850000", "181457.853000", "181457.855000", "181457.858000", "181457.861000", "181457.863000", "181457.866000", "181457.869000", "181517.818000", "181517.821000", "181517.824000", "181517.826000", "181517.829000", "181517.831000", "181517.834000", "181517.836000", "181517.839000", "181517.841000", "181517.844000", "181517.846000", "181517.849000", "181517.851000", "181517.854000", "181517.856000", "181517.859000", "181517.861000", "181517.864000", "181517.866000", "181537.819000", "181537.821000", "181537.824000", "181537.827000", "181537.829000", "181537.832000", "181537.834000", "181537.837000", "181537.839000", "181537.842000", "181537.844000", "181537.847000", "181537.849000", "181537.852000", "181537.854000", "181537.857000", "181537.859000", "181537.862000", "181537.864000", "181537.867000", "181557.818000", "181557.821000", "181557.824000", "181557.827000", "181557.830000", "181557.832000", "181557.835000", "181557.838000", "181557.840000", "181557.843000", "181557.846000", "181557.848000", "181557.851000", "181557.854000", "181557.856000", "181557.859000", "181557.862000", "181557.864000", "181557.866000", "181557.869000", "181617.819000", "181617.822000", "181617.825000", "181617.828000", "181617.831000", "181617.834000", "181617.836000", "181617.839000", "181617.842000", "181617.844000", "181617.846000", "181617.849000", "181617.852000", "181617.854000", "181617.857000", "181617.859000", "181617.862000", "181617.864000", "181617.867000", "181617.870000", "181637.818000", "181637.821000", "181637.824000", "181637.826000", "181637.829000", "181637.831000", "181637.833000", "181637.836000", "181637.838000", "181637.841000", "181637.843000", "181637.846000", "181637.848000", "181637.851000", "181637.853000", "181637.856000", "181637.858000", "181637.861000", "181637.864000", "181637.866000", "181646.507000", "181646.510000", "181646.513000", "181646.515000", "181646.518000", "181646.520000", "181646.523000", "181646.525000", "181646.528000"],
