{
  "AcquisitionMatrixPE": 106,
  "AcquisitionNumber": 1,
  "AcquisitionTime": "18:17:44.895000",
  "BandwidthPerPixelPhaseEncode": 13.477,
  "BaseResolution": 106,
  "BodyPartExamined": "BRAIN",
  "CoilCombinationMethod": "Sum of Squares",
  "ConsistencyInfo": "N4_VE11C_LATEST_20160120",
  "ConversionSoftware": "dcm2niix",
  "ConversionSoftwareVersion": "v1.0.20220720",
  "DerivedVendorReportedEchoSpacing": 0.000700005,
  "DeviceSerialNumber": "166108",
  "DwellTime": 2.6e-06,
  "EchoTime": 0.03,
  "EchoTrainLength": 80,
  "EffectiveEchoSpacing": 0.000700005,
  "FlipAngle": 62,
  "HeudiconvVersion": "1.3.0",
  "ImageComments": "Unaliased MB4/PE3/LB",
  "ImageOrientationPatientDICOM": [1, 0, 0, 0, 0.997801, -0.0662739],
  "ImageOrientationText": "Tra>Cor(-3.8)",
  "ImageType": [
    "ORIGINAL",
    "PRIMARY",
    "M",
    "MB",
    "ND",
    "MOSAIC"
],
  "ImagingFrequency": 123.244,
  "InPlanePhaseEncodingDirectionDICOM": "COL",
  "InstitutionAddress": "Bedford Way 26,London,London,GB,WC1H 0AP",
  "InstitutionName": "University College",
  "InstitutionalDepartmentName": "Department",
  "MRAcquisitionType": "2D",
  "MagneticFieldStrength": 3,
  "Manufacturer": "Siemens",
  "ManufacturersModelName": "Prisma",
  "MatrixCoilMode": "SENSE",
  "Modality": "MR",
  "MultibandAccelerationFactor": 4,
  "NonlinearGradientCorrection": false,
  "PartialFourier": 0.75,
  "PatientPosition": "HFS",
  "PercentPhaseFOV": 100,
  "PercentSampling": 100,
  "PhaseEncodingDirection": "j-",
  "PhaseEncodingSteps": 80,
  "PhaseResolution": 1,
  "PixelBandwidth": 1815,
  "ProcedureStepDescription": "Egor^MovieProject2",
  "ProtocolName": "func-bold_task-motor_run-01",
  "PulseSequenceDetails": "%CustomerSeq%\\cmrr_mbep2d_bold",
  "ReceiveCoilActiveElements": "HEA;HEP",
  "ReceiveCoilName": "Head_32",
  "ReconMatrixPE": 106,
  "RepetitionTime": 1,
  "SAR": 0.0395161,
  "ScanOptions": "PFP\\FS\\EXT",
  "ScanningSequence": "EP",
  "SequenceName": "epfid2d1_106",
  "SequenceVariant": "SK\\SS",
  "SeriesDescription": "func-bold_task-motor_run-01",
  "SeriesNumber": 6,
  "ShimSetting": [-1493, 556, 7388, 171, 30, 26, 302, -105],
  "SliceThickness": 2,
  "SliceTiming": [0, 0.5325, 0.0875, 0.6225, 0.1775, 0.7125, 0.2675, 0.8, 0.355, 0.89, 0.445, 0, 0.5325, 0.0875, 0.6225, 0.1775, 0.7125, 0.2675, 0.8, 0.355, 0.89, 0.445, 0, 0.5325, 0.0875, 0.6225, 0.1775, 0.7125, 0.2675, 0.8, 0.355, 0.89, 0.445, 0, 0.5325, 0.0875, 0.6225, 0.1775, 0.7125, 0.2675, 0.8, 0.355, 0.89, 0.445],
  "SoftwareVersions": "syngo MR E11",
  "SpacingBetweenSlices": 2,
  "StationName": "AWP166108",
  "TaskName": "somatotopy",
  "TotalReadoutTime": 0.0735005,
  "TxRefAmp": 220.568,
  "WipMemBlock": "b1554f71-359c-4ef0-9443-72a625783767||Sequence: R016 ve11c/master r/e634e98; Dec 19 2017 11:00:25 by eja",
  "dcmmeta_affine": [
    [-2.0, 0.0, 0.0, 106.0],
    [0.0, 1.9956029653549194, -0.13254781067371368, -89.88082122802734],
    [0.0, 0.13254781067371368, 1.9956029653549194, -5.67323112487793],
    [0.0, 0.0, 0.0, 1.0]
],
  "dcmmeta_reorient_transform": [
    [0.0, -1.0, 0.0, 105.0],
    [1.0, 0.0, 0.0, 0.0],
    [0.0, 0.0, 1.0, 0.0],
    [0.0, 0.0, 0.0, 1.0]
],
  "dcmmeta_shape": [106, 106, 44, 467],
  "dcmmeta_slice_dim": 2,
  "dcmmeta_version": 0.6,
  "global": {
    "const": {
      "AcquisitionMatrix": [106, 0, 0, 106],
      "AngioFlag": "N",
      "BitsAllocated": 16,
      "BitsStored": 16,
      "BodyPartExamined": "BRAIN",
      "CardiacNumberOfImages": 1,
      "Columns": 742,
      "EchoNumbers": 1,
      "EchoTime": 30.0,
      "EchoTrainLength": 80,
      "FlipAngle": 62.0,
      "HighBit": 15,
      "ImageOrientationPatient": [1.0, 0.0, 0.0, 0.0, 0.99780146819131, -0.0662739019167],
      "ImagePositionPatient": [-742.0, -754.25922093787, 50.394489835122],
      "ImageType": [
        "ORIGINAL",
        "PRIMARY",
        "M",
        "MB",
        "ND",
        "MOSAIC"
],
      "ImagedNucleus": "1H",
      "ImagingFrequency": 123.243656,
      "InPlanePhaseEncodingDirection": "COL",
      "MRAcquisitionType": "2D",
      "MagneticFieldStrength": 3.0,
      "Manufacturer": "SIEMENS",
      "ManufacturerModelName": "Prisma",
      "Modality": "MR",
      "NominalInterval": 0,
      "NumberOfAverages": 1.0,
      "NumberOfPhaseEncodingSteps": 80,
      "PercentPhaseFieldOfView": 100.0,
      "PercentSampling": 100.0,
      "PerformedProcedureStepStartTime": "175713.948000",
      "PhotometricInterpretation": "MONOCHROME2",
      "PixelBandwidth": 1815.0,
      "PixelRepresentation": 0,
      "PixelSpacing": [2.0, 2.0],
      "ProtocolName": "func-bold_task-motor_run-01",
      "RepetitionTime": 1000.0,
      "Rows": 742,
      "SAR": 0.03951611502347,
      "SamplesPerPixel": 1,
      "ScanOptions": [
        "PFP",
        "FS",
        "EXT"
],
      "ScanningSequence": "EP",
      "SequenceName": "epfid2d1_106",
      "SequenceVariant": [
        "SK",
        "SS"
],
      "SeriesDescription": "func-bold_task-motor_run-01",
      "SeriesNumber": 6,
      "SeriesTime": "181816.470000",
      "SliceLocation": 0.29599431802583,
      "SliceThickness": 2.0,
      "SmallestImagePixelValue": 0,
      "SoftwareVersions": "syngo MR E11",
      "SpacingBetweenSlices": 2.0000000231175,
      "SpecificCharacterSet": "ISO_IR 100",
      "StudyID": "1",
      "StudyTime": "175713.819000",
      "TransmitCoilName": "Body",
      "VariableFlipAngleFlag": "N",
      "WindowCenterWidthExplanation": "Algo1",
      "dBdt": 0.0},
    "slices": {}
  },
  "time": {
    "samples": {
      "AcquisitionNumber": [1, 2, 3, 4, 5, 6, 7, 8, 9, 10, 11, 12, 13, 14, 15, 16, 17, 18, 19, 20, 21, 22, 23, 24, 25, 26, 27, 28, 29, 30, 31, 32, 33, 34, 35, 36, 37, 38, 39, 40, 41, 42, 43, 44, 45, 46, 47, 48, 49, 50, 51, 52, 53, 54, 55, 56, 57, 58, 59, 60, 61, 62, 63, 64, 65, 66, 67, 68, 69, 70, 71, 72, 73, 74, 75, 76, 77, 78, 79, 80, 81, 82, 83, 84, 85, 86, 87, 88, 89, 90, 91, 92, 93, 94, 95, 96, 97, 98, 99, 100, 101, 102, 103, 104, 105, 106, 107, 108, 109, 110, 111, 112, 113, 114, 115, 116, 117, 118, 119, 120, 121, 122, 123, 124, 125, 126, 127, 128, 129, 130, 131, 132, 133, 134, 135, 136, 137, 138, 139, 140, 141, 142, 143, 144, 145, 146, 147, 148, 149, 150, 151, 152, 153, 154, 155, 156, 157, 158, 159, 160, 161, 162, 163, 164, 165, 166, 167, 168, 169, 170, 171, 172, 173, 174, 175, 176, 177, 178, 179, 180, 181, 182, 183, 184, 185, 186, 187, 188, 189, 190, 191, 192, 193, 194, 195, 196, 197, 198, 199, 200, 201, 202, 203, 204, 205, 206, 207, 208, 209, 210, 211, 212, 213, 214, 215, 216, 217, 218, 219, 220, 221, 222, 223, 224, 225, 226, 227, 228, 229, 230, 231, 232, 233, 234, 235, 236, 237, 238, 239, 240, 241, 242, 243, 244, 245, 246, 247, 248, 249, 250, 251, 252, 253, 254, 255, 256, 257, 258, 259, 260, 261, 262, 263, 264, 265, 266, 267, 268, 269, 270, 271, 272, 273, 274, 275, 276, 277, 278, 279, 280, 281, 282, 283, 284, 285, 286, 287, 288, 289, 290, 291, 292, 293, 294, 295, 296, 297, 298, 299, 300, 301, 302, 303, 304, 305, 306, 307, 308, 309, 310, 311, 312, 313, 314, 315, 316, 317, 318, 319, 320, 321, 322, 323, 324, 325, 326, 327, 328, 329, 330, 331, 332, 333, 334, 335, 336, 337, 338, 339, 340, 341, 342, 343, 344, 345, 346, 347, 348, 349, 350, 351, 352, 353, 354, 355, 356, 357, 358, 359, 360, 361, 362, 363, 364, 365, 366, 367, 368, 369, 370, 371, 372, 373, 374, 375, 376, 377, 378, 379, 380, 381, 382, 383, 384, 385, 386, 387, 388, 389, 390, 391, 392, 393, 394, 395, 396, 397, 398, 399, 400, 401, 402, 403, 404, 405, 406, 407, 408, 409, 410, 411, 412, 413, 414, 415, 416, 417, 418, 419, 420, 421, 422, 423, 424, 425, 426, 427, 428, 429, 430, 431, 432, 433, 434, 435, 436, 437, 438, 439, 440, 441, 442, 443, 444, 445, 446, 447, 448, 449, 450, 451, 452, 453, 454, 455, 456, 457, 458, 459, 460, 461, 462, 463, 464, 465, 466, 467],
      "AcquisitionTime": ["181744.895000", "181745.895000", "181746.895000", "181747.895000", "181748.895000", "181749.895000", "181750.895000", "181751.895000", "181752.895000", "181753.895000", "181754.895000", "181755.895000", "181756.895000", "181757.895000", "181758.895000", "181759.895000", "181800.895000", "181801.895000", "181802.895000", "181803.895000", "181804.895000", "181805.895000", "181806.895000", "181807.895000", "181808.895000", "181809.895000", "181810.895000", "181811.895000", "181812.895000", "181813.895000", "181814.895000", "181815.895000", "181816.895000", "181817.895000", "181818.895000", "181819.895000", "181820.895000", "181821.895000", "181822.895000", "181823.895000", "181824.895000", "181825.895000", "181826.895000", "181827.895000", "181828.895000", "181829.895000", "181830.895000", "181831.895000", "181832.895000", "181833.895000", "181834.895000", "181835.895000", "181836.895000", "181837.895000", "181838.895000", "181839.895000", "181840.895000", "181841.895000", "181842.895000", "181843.895000", "181844.895000", "181845.895000", "181846.895000", "181847.895000", "181848.895000", "181849.895000", "181850.895000", "181851.895000", "181852.895000", "181853.895000", "181854.895000", "181855.895000", "181856.895000", "181857.895000", "181858.895000", "181859.895000", "181900.895000", "181901.895000", "181902.895000", "181903.895000", "181904.895000", "181905.895000", "181906.895000", "181907.895000", "181908.895000", "181909.895000", "181910.895000", "181911.895000", "181912.895000", "181913.895000", "181914.895000", "181915.895000", "181916.895000", "181917.895000", "181918.895000", "181919.895000", "181920.895000", "181921.895000", "181922.895000", "181923.895000", "181924.895000", "181925.895000", "181926.895000", "181927.895000", "181928.895000", "181929.895000", "181930.895000", "181931.895000", "181932.895000", "181933.895000", "181934.895000", "181935.895000", "181936.895000", "181937.895000", "181938.895000", "181939.895000", "181940.895000", "181941.895000", "181942.895000", "181943.895000", "181944.895000", "181945.895000", "181946.895000", "181947.895000", "181948.895000", "181949.895000", "181950.895000", "181951.895000", "181952.895000", "181953.895000", "181954.895000", "181955.895000", "181956.895000", "181957.895000", "181958.895000", "181959.895000", "182000.895000", "182001.895000", "182002.895000", "182003.895000", "182004.895000", "182005.895000", "182006.895000", "182007.895000", "182008.895000", "182009.895000", "182010.895000", "182011.895000", "182012.895000", "182013.895000", "182014.895000", "182015.895000", "182016.895000", "182017.895000", "182018.895000", "182019.895000", "182020.895000", "182021.895000", "182022.895000", "182023.895000", "182024.895000", "182025.895000", "182026.895000", "182027.895000", "182028.895000", "182029.895000", "182030.895000", "182031.895000", "182032.895000", "182033.895000", "182034.895000", "182035.895000", "182036.895000", "182037.895000", "182038.895000", "182039.895000", "182040.895000", "182041.895000", "182042.895000", "182043.895000", "182044.895000", "182045.895000", "182046.895000", "182047.895000", "182048.895000", "182049.895000", "182050.895000", "182051.895000", "182052.895000", "182053.895000", "182054.895000", "182055.895000", "182056.895000", "182057.895000", "182058.895000", "182059.895000", "182100.895000", "182101.895000", "182102.895000", "182103.895000", "182104.895000", "182105.895000", "182106.895000", "182107.895000", "182108.895000", "182109.895000", "182110.895000", "182111.895000", "182112.895000", "182113.895000", "182114.895000", "182115.895000", "182116.895000", "182117.895000", "182118.895000", "182119.895000", "182120.895000", "182121.895000", "182122.895000", "182123.895000", "182124.895000", "182125.895000", "182126.895000", "182127.895000", "182128.895000", "182129.895000", "182130.895000", "182131.895000", "182132.895000", "182133.895000", "182134.895000", "182135.895000", "182136.895000", "182137.895000", "182138.895000", "182139.895000", "182140.895000", "182141.895000", "182142.895000", "182143.895000", "182144.895000", "182145.895000", "182146.895000", "182147.895000", "182148.895000", "182149.895000", "182150.895000", "182151.895000", "182152.895000", "182153.895000", "182154.895000", "182155.895000", "182156.895000", "182157.895000", "182158.895000", "182159.895000", "182200.895000", "182201.895000", "182202.895000", "182203.895000", "182204.895000", "182205.895000", "182206.895000", "182207.895000", "182208.895000", "182209.895000", "182210.895000", "182211.895000", "182212.895000", "182213.895000", "182214.895000", "182215.895000", "182216.895000", "182217.895000", "182218.895000", "182219.895000", "182220.895000", "182221.895000", "182222.895000", "182223.895000", "182224.895000", "182225.895000", "182226.895000", "182227.895000", "182228.895000", "182229.895000", "182230.895000", "182231.895000", "182232.895000", "182233.895000", "182234.895000", "182235.895000", "182236.895000", "182237.895000", "182238.895000", "182239.895000", "182240.895000", "182241.895000", "182242.895000", "182243.895000", "182244.895000", "182245.895000", "182246.895000", "182247.895000", "182248.895000", "182249.895000", "182250.895000", "182251.895000", "182252.895000", "182253.895000", "182254.895000", "182255.895000", "182256.895000", "182257.895000", "182258.895000", "182259.895000", "182300.895000", "182301.895000", "182302.895000", "182303.895000", "182304.895000", "182305.895000", "182306.895000", "182307.895000", "182308.895000", "182309.895000", "182310.895000", "182311.895000", "182312.895000", "182313.895000", "182314.895000", "182315.895000", "182316.895000", "182317.895000", "182318.895000", "182319.895000", "182320.895000", "182321.895000", "182322.895000", "182323.895000", "182324.895000", "182325.895000", "182326.895000", "182327.895000", "182328.895000", "182329.895000", "182330.895000", "182331.895000", "182332.895000", "182333.895000", "182334.895000", "182335.895000", "182336.895000", "182337.895000", "182338.895000", "182339.895000", "182340.895000", "182341.895000", "182342.895000", "182343.895000", "182344.895000", "182345.895000", "182346.895000", "182347.895000", "182348.895000", "182349.895000", "182350.895000", "182351.895000", "182352.895000", "182353.895000", "182354.895000", "182355.895000", "182356.895000", "182357.895000", "182358.895000", "182359.895000", "182400.895000", "182401.895000", "182402.895000", "182403.895000", "182404.895000", "182405.895000", "182406.895000", "182407.895000", "182408.895000", "182409.895000", "182410.895000", "182411.895000", "182412.895000", "182413.895000", "182414.895000", "182415.895000", "182416.895000", "182417.895000", "182418.895000", "182419.895000", "182420.895000", "182421.895000", "182422.895000", "182423.895000", "182424.895000", "182425.895000", "182426.895000", "182427.895000", "182428.895000", "182429.895000", "182430.895000", "182431.895000", "182432.895000", "182433.895000", "182434.895000", "182435.895000", "182436.895000", "182437.895000", "182438.895000", "182439.895000", "182440.895000", "182441.895000", "182442.895000", "182443.895000", "182444.895000", "182445.895000", "182446.895000", "182447.895000", "182448.895000", "182449.895000", "182450.895000", "182451.895000", "182452.895000", "182453.895000", "182454.895000", "182455.895000", "182456.895000", "182457.895000", "182458.895000", "182459.895000", "182500.895000", "182501.895000", "182502.895000", "182503.895000", "182504.895000", "182505.895000", "182506.895000", "182507.895000", "182508.895000", "182509.895000", "182510.895000", "182511.895000", "182512.895000", "182513.895000", "182514.895000", "182515.895000", "182516.895000", "182517.895000", "182518.895000", "182519.895000", "182520.895000", "182521.895000", "182522.895000", "182523.895000", "182524.895000", "182525.895000", "182526.895000", "182527.895000", "182528.895000", "182529.895000", "182530.895000"],
      "ContentTime": ["181816.472000", "181816.475000", "181816.478000", "181816.480000", "181816.483000", "181816.493000", "181816.495000", "181816.498000", "181816.500000", "181816.503000", "181816.505000", "181816.508000", "181816.510000", "181816.513000", "181816.515000", "181816.518000", "181816.526000", "181816.529000", "181816.531000", "181816.534000", "181816.536000", "181816.539000", "181816.541000", "181816.544000", "181816.547000", "181816.549000", "181816.551000", "181816.554000", "181816.556000", "181816.559000", "181836.435000", "181836.449000", "181836.452000", "181836.454000", "181836.457000", "181836.460000", "181836.462000", "181836.465000", "181836.467000", "181836.470000", "181836.472000", "181836.475000", "181836.477000", "181836.480000", "181836.482000", "181836.485000", "181836.498000", "181836.501000", "181836.503000", "181836.506000", "181856.436000", "181856.439000", "181856.442000", "181856.445000", "181856.447000", "181856.450000", "181856.453000", "181856.455000", "181856.458000", "181856.461000", "181856.463000", "181856.466000", "181856.468000", "181856.471000", "181856.473000", "181856.476000", "181856.478000", "181856.481000", "181856.484000", "181856.486000", "181916.436000", "181916.439000", "181916.442000", "181916.444000", "181916.447000", "181916.449000", "181916.452000", "181916.454000", "181916.457000", "181916.459000", "181916.462000", "181916.464000", "181916.467000", "181916.469000", "181916.472000", "181916.474000", "181916.477000", "181916.479000", "181916.482000", "181916.484000", "181936.436000", "181936.439000", "181936.442000", "181936.444000", "181936.447000", "181936.449000", "181936.452000", "181936.454000", "181936.457000", "181936.459000", "181936.462000", "181936.464000", "181936.467000", "181936.469000", "181936.472000", "181936.484000", "181936.487000", "181936.490000", "181936.492000", "181936.495000", "181956.436000", "181956.439000", "181956.441000", "181956.444000", "181956.447000", "181956.449000", "181956.452000", "181956.455000", "181956.457000", "181956.459000", "181956.462000", "181956.465000", "181956.467000", "181956.470000", "181956.472000", "181956.474000", "181956.477000", "181956.479000", "181956.482000", "181956.484000", "182016.436000", "182016.439000", "182016.441000", "182016.444000", "182016.447000", "182016.450000", "182016.452000", "182016.455000", "182016.457000", "182016.460000", "182016.462000", "182016.465000", "182016.467000", "182016.470000", "182016.473000", "182016.475000", "182016.478000", "182016.481000", "182016.483000", "182016.486000", "182036.436000", "182036.439000", "182036.442000", "182036.444000", "182036.447000", "182036.449000", "182036.452000", "182036.454000", "182036.457000", "182036.459000", "182036.462000", "182036.464000", "182036.467000", "182036.469000", "182036.472000", "182036.474000", "182036.477000", "182036.479000", "182036.482000", "182036.484000", "182056.436000", "182056.439000", "182056.441000", "182056.444000", "182056.447000", "182056.449000", "182056.451000", "182056.454000", "182056.457000", "182056.459000", "182056.462000", "182056.464000", "182056.467000", "182056.469000", "182056.472000", "182056.475000", "182056.477000", "182056.480000", "182056.482000", "182056.496000", "182116.436000", "182116.439000", "182116.441000", "182116.444000", "182116.447000", "182116.449000", "182116.452000", "182116.455000", "182116.457000", "182116.460000", "182116.462000", "182116.465000", "182116.467000", "182116.470000", "182116.472000", "182116.475000", "182116.477000", "182116.480000", "182116.482000", "182116.485000", "182136.436000", "182136.439000", "182136.442000", "182136.445000", "182136.448000", "182136.450000", "182136.452000", "182136.455000", "182136.457000", "182136.460000", "182136.462000", "182136.465000", "182136.468000", "182136.470000", "182136.473000", "182136.476000", "182136.478000", "182136.480000", "182136.483000", "182136.486000", "182156.436000", "182156.439000", "182156.442000", "182156.444000", "182156.447000", "182156.449000", "182156.452000", "182156.454000", "182156.457000", "182156.459000", "182156.462000", "182156.465000", "182156.467000", "182156.470000", "182156.472000", "182156.475000", "182156.477000", "182156.480000", "182156.482000", "182156.485000", "182216.436000", "182216.439000", "182216.441000", "182216.444000", "182216.447000", "182216.449000", "182216.452000", "182216.454000", "182216.457000", "182216.459000", "182216.462000", "182216.464000", "182216.477000", "182216.480000", "182216.482000", "182216.485000", "182216.487000", "182216.490000", "182216.492000", "182216.495000", "182236.436000", "182236.439000", "182236.442000", "182236.450000", "182236.453000", "182236.455000", "182236.458000", "182236.460000", "182236.463000", "182236.466000", "182236.468000", "182236.471000", "182236.474000", "182236.477000", "182236.479000", "182236.482000", "182236.484000", "182236.487000", "182236.489000", "182236.492000", "182256.435000", "182256.438000", "182256.441000", "182256.443000", "182256.446000", "182256.448000", "182256.451000", "182256.454000", "182256.456000", "182256.459000", "182256.461000", "182256.464000", "182256.466000", "182256.469000", "182256.471000", "182256.474000", "182256.476000", "182256.479000", "182256.481000", "182256.484000", "182316.436000", "182316.439000", "182316.442000", "182316.444000", "182316.447000", "182316.449000", "182316.452000", "182316.455000", "182316.457000", "182316.459000", "182316.462000", "182316.464000", "182316.467000", "182316.469000", "182316.472000", "182316.475000", "182316.477000", "182316.479000", "182316.482000", "182316.485000", "182336.436000", "182336.439000", "182336.441000", "182336.444000", "182336.447000", "182336.450000", "182336.452000", "182336.455000", "182336.458000", "182336.460000", "182336.463000", "182336.466000", "182336.468000", "182336.470000", "182336.473000", "182336.476000", "182336.478000", "182336.481000", "182336.484000", "182336.487000", "182356.436000", "182356.439000", "182356.442000", "182356.444000", "182356.447000", "182356.449000", "182356.452000", "182356.454000", "182356.457000", "182356.459000", "182356.462000", "182356.465000", "182356.467000", "182356.470000", "182356.472000", "182356.475000", "182356.477000", "182356.480000", "182356.482000", "182356.485000", "182416.436000", "182416.439000", "182416.441000", "182416.444000", "182416.447000", "182416.449000", "182416.452000", "182416.454000", "182416.457000", "182416.459000", "182416.462000", "182416.464000", "182416.467000", "182416.469000", "182416.472000", "182416.474000", "182416.477000", "182416.479000", "182416.482000", "182416.485000", "182436.436000", "182436.439000", "182436.442000", "182436.444000", "182436.447000", "182436.449000", "182436.452000", "182436.454000", "182436.457000", "182436.459000", "182436.462000", "182436.464000", "182436.467000", "182436.469000", "182436.472000", "182436.474000", "182436.477000", "182436.479000", "182436.482000", "182436.484000", "182456.436000", "182456.439000", "182456.442000", "182456.444000", "182456.447000", "182456.449000", "182456.452000", "182456.454000", "182456.457000", "182456.459000", "182456.462000", "182456.465000", "182456.467000", "182456.470000", "182456.472000", "182456.475000", "182456.477000", "182456.480000", "182456.482000", "182456.485000", "182516.435000", "182516.438000", "182516.441000", "182516.443000", "182516.446000", "182516.448000", "182516.451000", "182516.454000", "182516.456000", "182516.459000", "182516.461000", "182516.464000", "182516.467000", "182516.469000", "182516.472000", "182516.475000", "182516.477000", "182516.480000", "182516.482000", "182516.485000", "182532.642000", "182532.645000", "182532.648000", "182532.651000", "182532.653000", "182532.656000", "182532.659000", "182532.661000", "182532.664000", "182532.667000", "182532.679000", "182532.682000", "182532.684000", "182532.687000", "182532.690000", "182532.692000", "182532.695000"],
