{
  "AcquisitionMatrixPE": 106,
  "AcquisitionNumber": 1,
  "AcquisitionTime": "12:38:19.057500",
  "BandwidthPerPixelPhaseEncode": 16.846,
  "BaseResolution": 106,
  "BodyPartExamined": "BRAIN",
  "CoilCombinationMethod": "Sum of Squares",
  "ConsistencyInfo": "N4_VE11C_LATEST_20160120",
  "ConversionSoftware": "dcm2niix",
  "ConversionSoftwareVersion": "v1.0.20220720",
  "DerivedVendorReportedEchoSpacing": 0.000560012,
  "DeviceSerialNumber": "166108",
  "DwellTime": 1.8e-06,
  "EchoTime": 0.0352,
  "EchoTrainLength": 106,
  "EffectiveEchoSpacing": 0.000560012,
  "FlipAngle": 60,
  "HeudiconvVersion": "1.3.0",
  "ImageComments": "Unaliased MB4/PE3/LB",
  "ImageOrientationPatientDICOM": [1, 0, 0, 0, 0.932324, -0.361625],
  "ImageOrientationText": "Tra>Cor(-21.2)",
  "ImageType": [
    "ORIGINAL",
    "PRIMARY",
    "M",
    "MB",
    "ND",
    "MOSAIC"
],
  "ImagingFrequency": 123.244,
  "InPlanePhaseEncodingDirectionDICOM": "COL",
  "InstitutionAddress": "Bedford Way 26,London,London,GB,WC1H 0AP",
  "InstitutionName": "University College",
  "InstitutionalDepartmentName": "Department",
  "MRAcquisitionType": "2D",
  "MagneticFieldStrength": 3,
  "Manufacturer": "Siemens",
  "ManufacturersModelName": "Prisma",
  "MatrixCoilMode": "SENSE",
  "Modality": "MR",
  "MultibandAccelerationFactor": 4,
  "NonlinearGradientCorrection": false,
  "PartialFourier": 1,
  "PatientPosition": "HFS",
  "PercentPhaseFOV": 100,
  "PercentSampling": 100,
  "PhaseEncodingDirection": "j-",
  "PhaseEncodingSteps": 106,
  "PhaseResolution": 1,
  "PixelBandwidth": 2620,
  "ProcedureStepDescription": "Egor^MovieProject2",
  "ProtocolName": "func-bold_task-pRF_run-03",
  "PulseSequenceDetails": "%CustomerSeq%\\cmrr_mbep2d_bold",
  "ReceiveCoilActiveElements": "HEA;HEP",
  "ReceiveCoilName": "Head_32",
  "ReconMatrixPE": 106,
  "RepetitionTime": 1,
  "SAR": 0.0821265,
  "ScanOptions": "FS\\EXT",
  "ScanningSequence": "EP",
  "SequenceName": "epfid2d1_106",
  "SequenceVariant": "SK\\SS",
  "SeriesDescription": "func-bold_task-pRF_run-03",
  "SeriesNumber": 14,
  "ShimSetting": [-1488, 602, 7481, 301, 59, 75, 236, -74],
  "SliceThickness": 2,
  "SliceTiming": [0, 0.4075, 0.8175, 0.245, 0.6525, 0.0825, 0.49, 0.8975, 0.3275, 0.735, 0.1625, 0.5725, 0, 0.4075, 0.8175, 0.245, 0.6525, 0.0825, 0.49, 0.8975, 0.3275, 0.735, 0.1625, 0.5725, 0, 0.4075, 0.8175, 0.245, 0.6525, 0.0825, 0.49, 0.8975, 0.3275, 0.735, 0.1625, 0.5725, 0, 0.4075, 0.8175, 0.245, 0.6525, 0.0825, 0.49, 0.8975, 0.3275, 0.735, 0.1625, 0.5725],
  "SoftwareVersions": "syngo MR E11",
  "SpacingBetweenSlices": 2,
  "StationName": "AWP166108",
  "TaskName": "retinotopy",
  "TotalReadoutTime": 0.0588013,
  "TxRefAmp": 237.365,
  "WipMemBlock": "08bec1b1-c185-4fc8-9e14-d171f238ca74||Sequence: R016 ve11c/master r/e634e98; Dec 19 2017 11:00:25 by eja",
  "dcmmeta_affine": [
    [-2.0, 0.0, 0.0, 106.0],
    [0.0, 1.864647626876831, -0.7232491374015808, -76.8809814453125],
    [0.0, 0.7232491970062256, 1.8646475076675415, -39.48118591308594],
    [0.0, 0.0, 0.0, 1.0]
],
  "dcmmeta_reorient_transform": [
    [0.0, -1.0, 0.0, 105.0],
    [1.0, 0.0, 0.0, 0.0],
    [0.0, 0.0, 1.0, 0.0],
    [0.0, 0.0, 0.0, 1.0]
],
  "dcmmeta_shape": [106, 106, 48, 356],
  "dcmmeta_slice_dim": 2,
  "dcmmeta_version": 0.6,
  "global": {
    "const": {
      "AcquisitionMatrix": [106, 0, 0, 106],
      "AngioFlag": "N",
      "BitsAllocated": 16,
      "BitsStored": 16,
      "BodyPartExamined": "BRAIN",
      "CardiacNumberOfImages": 1,
      "Columns": 742,
      "EchoNumbers": 1,
      "EchoTime": 35.2,
      "EchoTrainLength": 106,
      "FlipAngle": 60.0,
      "HighBit": 15,
      "ImageOrientationPatient": [1.0, 0.0, 0.0, 0.0, 0.93232379461274, -0.3616245871051],
      "ImagePositionPatient": [-742.0, -711.86494789391, 266.45321298296],
      "ImageType": [
        "ORIGINAL",
        "PRIMARY",
        "M",
        "MB",
        "ND",
        "MOSAIC"
],
      "ImagedNucleus": "1H",
      "ImagingFrequency": 123.243596,
      "InPlanePhaseEncodingDirection": "COL",
      "MRAcquisitionType": "2D",
      "MagneticFieldStrength": 3.0,
      "Manufacturer": "SIEMENS",
      "ManufacturerModelName": "Prisma",
      "Modality": "MR",
      "NominalInterval": 0,
      "NumberOfAverages": 1.0,
      "NumberOfPhaseEncodingSteps": 106,
      "PercentPhaseFieldOfView": 100.0,
      "PercentSampling": 100.0,
      "PerformedProcedureStepStartTime": "113357.979000",
      "PhotometricInterpretation": "MONOCHROME2",
      "PixelBandwidth": 2620.0,
      "PixelRepresentation": 0,
      "PixelSpacing": [2.0, 2.0],
      "ProtocolName": "func-bold_task-pRF_run-03",
      "RepetitionTime": 1000.0,
      "Rows": 742,
      "SAR": 0.08212652753216,
      "SamplesPerPixel": 1,
      "ScanOptions": [
        "FS",
        "EXT"
],
      "ScanningSequence": "EP",
      "SequenceName": "epfid2d1_106",
      "SequenceVariant": [
        "SK",
        "SS"
],
      "SeriesDescription": "func-bold_task-pRF_run-03",
      "SeriesNumber": 14,
      "SeriesTime": "123858.444000",
      "SliceLocation": -9.0071972416713,
      "SliceThickness": 2.0,
      "SmallestImagePixelValue": 0,
      "SoftwareVersions": "syngo MR E11",
      "SpacingBetweenSlices": 1.9999999677192,
      "SpecificCharacterSet": "ISO_IR 100",
      "StudyID": "1",
      "StudyTime": "113357.925000",
      "TransmitCoilName": "Body",
      "VariableFlipAngleFlag": "N",
      "WindowCenterWidthExplanation": "Algo1",
      "dBdt": 0.0},
    "slices": {}
  },
  "time": {
    "samples": {
      "AcquisitionNumber": [1, 2, 3, 4, 5, 6, 7, 8, 9, 10, 11, 12, 13, 14, 15, 16, 17, 18, 19, 20, 21, 22, 23, 24, 25, 26, 27, 28, 29, 30, 31, 32, 33, 34, 35, 36, 37, 38, 39, 40, 41, 42, 43, 44, 45, 46, 47, 48, 49, 50, 51, 52, 53, 54, 55, 56, 57, 58, 59, 60, 61, 62, 63, 64, 65, 66, 67, 68, 69, 70, 71, 72, 73, 74, 75, 76, 77, 78, 79, 80, 81, 82, 83, 84, 85, 86, 87, 88, 89, 90, 91, 92, 93, 94, 95, 96, 97, 98, 99, 100, 101, 102, 103, 104, 105, 106, 107, 108, 109, 110, 111, 112, 113, 114, 115, 116, 117, 118, 119, 120, 121, 122, 123, 124, 125, 126, 127, 128, 129, 130, 131, 132, 133, 134, 135, 136, 137, 138, 139, 140, 141, 142, 143, 144, 145, 146, 147, 148, 149, 150, 151, 152, 153, 154, 155, 156, 157, 158, 159, 160, 161, 162, 163, 164, 165, 166, 167, 168, 169, 170, 171, 172, 173, 174, 175, 176, 177, 178, 179, 180, 181, 182, 183, 184, 185, 186, 187, 188, 189, 190, 191, 192, 193, 194, 195, 196, 197, 198, 199, 200, 201, 202, 203, 204, 205, 206, 207, 208, 209, 210, 211, 212, 213, 214, 215, 216, 217, 218, 219, 220, 221, 222, 223, 224, 225, 226, 227, 228, 229, 230, 231, 232, 233, 234, 235, 236, 237, 238, 239, 240, 241, 242, 243, 244, 245, 246, 247, 248, 249, 250, 251, 252, 253, 254, 255, 256, 257, 258, 259, 260, 261, 262, 263, 264, 265, 266, 267, 268, 269, 270, 271, 272, 273, 274, 275, 276, 277, 278, 279, 280, 281, 282, 283, 284, 285, 286, 287, 288, 289, 290, 291, 292, 293, 294, 295, 296, 297, 298, 299, 300, 301, 302, 303, 304, 305, 306, 307, 308, 309, 310, 311, 312, 313, 314, 315, 316, 317, 318, 319, 320, 321, 322, 323, 324, 325, 326, 327, 328, 329, 330, 331, 332, 333, 334, 335, 336, 337, 338, 339, 340, 341, 342, 343, 344, 345, 346, 347, 348, 349, 350, 351, 352, 353, 354, 355, 356],
      "AcquisitionTime": ["123819.057500", "123820.057500", "123821.057500", "123822.057500", "123823.057500", "123824.057500", "123825.057500", "123826.057500", "123827.057500", "123828.057500", "123829.057500", "123830.057500", "123831.057500", "123832.057500", "123833.057500", "123834.057500", "123835.057500", "123836.057500", "123837.057500", "123838.057500", "123839.057500", "123840.057500", "123841.057500", "123842.057500", "123843.057500", "123844.057500", "123845.057500", "123846.057500", "123847.057500", "123848.057500", "123849.057500", "123850.057500", "123851.057500", "123852.057500", "123853.057500", "123854.057500", "123855.057500", "123856.057500", "123857.057500", "123858.057500", "123859.057500", "123900.057500", "123901.057500", "123902.057500", "123903.057500", "123904.057500", "123905.057500", "123906.057500", "123907.057500", "123908.057500", "123909.057500", "123910.057500", "123911.057500", "123912.057500", "123913.057500", "123914.057500", "123915.057500", "123916.057500", "123917.057500", "123918.057500", "123919.057500", "123920.057500", "123921.057500", "123922.057500", "123923.057500", "123924.057500", "123925.057500", "123926.057500", "123927.057500", "123928.057500", "123929.057500", "123930.057500", "123931.057500", "123932.057500", "123933.057500", "123934.057500", "123935.057500", "123936.057500", "123937.057500", "123938.057500", "123939.057500", "123940.057500", "123941.057500", "123942.057500", "123943.057500", "123944.057500", "123945.057500", "123946.057500", "123947.057500", "123948.057500", "123949.057500", "123950.057500", "123951.057500", "123952.057500", "123953.057500", "123954.057500", "123955.057500", "123956.057500", "123957.057500", "123958.057500", "123959.057500", "124000.057500", "124001.057500", "124002.057500", "124003.057500", "124004.057500", "124005.057500", "124006.057500", "124007.057500", "124008.057500", "124009.057500", "124010.057500", "124011.057500", "124012.057500", "124013.057500", "124014.057500", "124015.057500", "124016.057500", "124017.057500", "124018.057500", "124019.057500", "124020.057500", "124021.057500", "124022.057500", "124023.057500", "124024.057500", "124025.057500", "124026.057500", "124027.057500", "124028.057500", "124029.057500", "124030.057500", "124031.057500", "124032.057500", "124033.057500", "124034.057500", "124035.057500", "124036.057500", "124037.057500", "124038.057500", "124039.057500", "124040.057500", "124041.057500", "124042.057500", "124043.057500", "124044.057500", "124045.057500", "124046.057500", "124047.057500", "124048.057500", "124049.057500", "124050.057500", "124051.057500", "124052.057500", "124053.057500", "124054.057500", "124055.057500", "124056.057500", "124057.057500", "124058.057500", "124059.057500", "124100.057500", "124101.057500", "124102.057500", "124103.057500", "124104.057500", "124105.057500", "124106.057500", "124107.057500", "124108.057500", "124109.057500", "124110.057500", "124111.057500", "124112.057500", "124113.057500", "124114.057500", "124115.057500", "124116.057500", "124117.057500", "124118.057500", "124119.057500", "124120.057500", "124121.057500", "124122.057500", "124123.057500", "124124.057500", "124125.057500", "124126.057500", "124127.057500", "124128.057500", "124129.057500", "124130.057500", "124131.057500", "124132.057500", "124133.057500", "124134.057500", "124135.057500", "124136.057500", "124137.057500", "124138.057500", "124139.057500", "124140.057500", "124141.057500", "124142.057500", "124143.057500", "124144.057500", "124145.057500", "124146.057500", "124147.057500", "124148.057500", "124149.057500", "124150.057500", "124151.057500", "124152.057500", "124153.057500", "124154.057500", "124155.057500", "124156.057500", "124157.057500", "124158.057500", "124159.057500", "124200.057500", "124201.057500", "124202.057500", "124203.057500", "124204.057500", "124205.057500", "124206.057500", "124207.057500", "124208.057500", "124209.057500", "124210.057500", "124211.057500", "124212.057500", "124213.057500", "124214.057500", "124215.057500", "124216.057500", "124217.057500", "124218.057500", "124219.057500", "124220.057500", "124221.057500", "124222.057500", "124223.057500", "124224.057500", "124225.057500", "124226.057500", "124227.057500", "124228.057500", "124229.057500", "124230.057500", "124231.057500", "124232.057500", "124233.057500", "124234.057500", "124235.057500", "124236.057500", "124237.057500", "124238.057500", "124239.057500", "124240.057500", "124241.057500", "124242.057500", "124243.057500", "124244.057500", "124245.057500", "124246.057500", "124247.057500", "124248.057500", "124249.057500", "124250.057500", "124251.057500", "124252.057500", "124253.057500", "124254.057500", "124255.057500", "124256.057500", "124257.057500", "124258.057500", "124259.057500", "124300.057500", "124301.057500", "124302.057500", "124303.057500", "124304.057500", "124305.057500", "124306.057500", "124307.057500", "124308.057500", "124309.057500", "124310.057500", "124311.057500", "124312.057500", "124313.057500", "124314.057500", "124315.057500", "124316.057500", "124317.057500", "124318.057500", "124319.057500", "124320.057500", "124321.057500", "124322.057500", "124323.057500", "124324.057500", "124325.057500", "124326.057500", "124327.057500", "124328.057500", "124329.057500", "124330.057500", "124331.057500", "124332.057500", "124333.057500", "124334.057500", "124335.057500", "124336.057500", "124337.057500", "124338.057500", "124339.057500", "124340.057500", "124341.057500", "124342.057500", "124343.057500", "124344.057500", "124345.057500", "124346.057500", "124347.057500", "124348.057500", "124349.057500", "124350.057500", "124351.057500", "124352.057500", "124353.057500", "124354.057500", "124355.057500", "124356.057500", "124357.057500", "124358.057500", "124359.057500", "124400.057500", "124401.057500", "124402.057500", "124403.057500", "124404.057500", "124405.057500", "124406.057500", "124407.057500", "124408.057500", "124409.057500", "124410.057500", "124411.057500", "124412.057500", "124413.057500", "124414.057500"],
      "ContentTime": ["123858.446000", "123858.449000", "123858.452000", "123858.455000", "123858.457000", "123858.463000", "123858.465000", "123858.468000", "123858.470000", "123858.473000", "123858.475000", "123858.478000", "123858.480000", "123858.487000", "123858.489000", "123858.492000", "123858.494000", "123858.497000", "123858.499000", "123858.502000", "123858.505000", "123858.507000", "123858.510000", "123858.512000", "123858.515000", "123858.517000", "123858.520000", "123858.522000", "123858.524000", "123858.527000", "123858.529000", "123858.532000", "123858.534000", "123858.537000", "123858.539000", "123858.542000", "123858.544000", "123858.547000", "123918.417000", "123918.420000", "123918.422000", "123918.425000", "123918.427000", "123918.430000", "123918.432000", "123918.435000", "123918.437000", "123918.447000", "123918.449000", "123918.452000", "123918.454000", "123918.457000", "123918.459000", "123918.461000", "123918.464000", "123918.467000", "123918.469000", "123918.471000", "123938.418000", "123938.421000", "123938.423000", "123938.426000", "123938.429000", "123938.431000", "123938.433000", "123938.436000", "123938.438000", "123938.441000", "123938.443000", "123938.446000", "123938.448000", "123938.451000", "123938.453000", "123938.456000", "123938.458000", "123938.460000", "123938.463000", "123938.465000", "123958.418000", "123958.421000", "123958.424000", "123958.426000", "123958.429000", "123958.431000", "123958.433000", "123958.436000", "123958.438000", "123958.441000", "123958.443000", "123958.446000", "123958.448000", "123958.451000", "123958.453000", "123958.456000", "123958.458000", "123958.461000", "123958.463000", "123958.465000", "124018.418000", "124018.421000", "124018.428000", "124018.430000", "124018.433000", "124018.435000", "124018.438000", "124018.440000", "124018.443000", "124018.445000", "124018.448000", "124018.450000", "124018.453000", "124018.455000", "124018.457000", "124018.460000", "124018.462000", "124018.465000", "124018.467000", "124018.470000", "124038.418000", "124038.421000", "124038.423000", "124038.426000", "124038.429000", "124038.431000", "124038.433000", "124038.436000", "124038.439000", "124038.441000", "124038.443000", "124038.446000", "124038.448000", "124038.451000", "124038.453000", "124038.456000", "124038.458000", "124038.461000", "124038.463000", "124038.465000", "124058.417000", "124058.420000", "124058.438000", "124058.440000", "124058.443000", "124058.445000", "124058.448000", "124058.450000", "124058.453000", "124058.455000", "124058.458000", "124058.460000", "124058.462000", "124058.465000", "124058.467000", "124058.470000", "124058.472000", "124058.475000", "124058.477000", "124058.480000", "124118.417000", "124118.420000", "124118.422000", "124118.425000", "124118.427000", "124118.430000", "124118.432000", "124118.435000", "124118.437000", "124118.440000", "124118.442000", "124118.445000", "124118.447000", "124118.450000", "124118.452000", "124118.455000", "124118.457000", "124118.460000", "124118.462000", "124118.464000", "124138.418000", "124138.421000", "124138.424000", "124138.426000", "124138.429000", "124138.431000", "124138.434000", "124138.436000", "124138.439000", "124138.441000", "124138.444000", "124138.446000", "124138.449000", "124138.451000", "124138.454000", "124138.456000", "124138.459000", "124138.461000", "124138.464000", "124138.466000", "124158.418000", "124158.421000", "124158.423000", "124158.426000", "124158.429000", "124158.431000", "124158.433000", "124158.436000", "124158.439000", "124158.441000", "124158.443000", "124158.446000", "124158.448000", "124158.451000", "124158.453000", "124158.456000", "124158.458000", "124158.461000", "124158.463000", "124158.466000", "124218.418000", "124218.421000", "124218.423000", "124218.426000", "124218.429000", "124218.431000", "124218.433000", "124218.436000", "124218.438000", "124218.441000", "124218.443000", "124218.446000", "124218.448000", "124218.451000", "124218.453000", "124218.456000", "124218.458000", "124218.461000", "124218.463000", "124218.466000", "124238.418000", "124238.421000", "124238.423000", "124238.426000", "124238.429000", "124238.431000", "124238.433000", "124238.436000", "124238.438000", "124238.441000", "124238.443000", "124238.446000", "124238.448000", "124238.451000", "124238.453000", "124238.456000", "124238.458000", "124238.461000", "124238.463000", "124238.465000", "124258.418000", "124258.421000", "124258.423000", "124258.426000", "124258.429000", "124258.431000", "124258.433000", "124258.436000", "124258.439000", "124258.441000", "124258.443000", "124258.446000", "124258.448000", "124258.451000", "124258.453000", "124258.456000", "124258.458000", "124258.461000", "124258.463000", "124258.466000", "124318.417000", "124318.420000", "124318.422000", "124318.425000", "124318.428000", "124318.430000", "124318.433000", "124318.435000", "124318.438000", "124318.440000", "124318.442000", "124318.445000", "124318.447000", "124318.450000", "124318.452000", "124318.455000", "124318.457000", "124318.460000", "124318.462000", "124318.465000", "124338.417000", "124338.420000", "124338.423000", "124338.425000", "124338.428000", "124338.430000", "124338.433000", "124338.435000", "124338.438000", "124338.440000", "124338.443000", "124338.445000", "124338.448000", "124338.450000", "124338.452000", "124338.455000", "124338.457000", "124338.460000", "124338.462000", "124338.465000", "124358.419000", "124358.421000", "124358.424000", "124358.426000", "124358.429000", "124358.431000", "124358.434000", "124358.436000", "124358.439000", "124358.441000", "124358.444000", "124358.446000", "124358.449000", "124358.451000", "124358.454000", "124358.456000", "124358.459000", "124358.461000", "124358.463000", "124358.466000", "124415.847000", "124415.850000", "124415.853000", "124415.856000", "124415.859000", "124415.862000", "124415.865000", "124415.867000", "124415.870000", "124415.873000", "124415.875000", "124415.878000", "124415.880000", "124415.883000", "124415.885000", "124415.888000", "124415.890000", "124415.893000"],
      "InstanceCreationTime": ["123858.446000", "123858.449000", "123858.452000", "123858.455000", "123858.457000", "123858.463000", "123858.465000", "123858.468000", "123858.470000", "123858.473000", "123858.475000", "123858.478000", "123858.480000", "123858.487000", "123858.489000", "123858.492000", "123858.494000", "123858.497000", "123858.499000", "123858.502000", "123858.505000", "123858.507000", "123858.510000", "123858.512000", "123858.515000", "123858.517000", "123858.520000", "123858.522000", "123858.524000", "123858.527000", "123858.529000", "123858.532000", "123858.534000", "123858.537000", "123858.539000", "123858.542000", "123858.544000", "123858.547000", "123918.417000", "123918.420000", "123918.422000", "123918.425000", "123918.427000", "123918.430000", "123918.432000", "123918.435000", "123918.437000", "123918.447000", "123918.449000", "123918.452000", "123918.454000", "123918.457000", "123918.459000", "123918.461000", "123918.464000", "123918.467000", "123918.469000", "123918.471000", "123938.418000", "123938.421000", "123938.423000", "123938.426000", "123938.429000", "123938.431000", "123938.433000", "123938.436000", "123938.438000", "123938.441000", "123938.443000", "123938.446000", "123938.448000", "123938.451000", "123938.453000", "123938.456000", "123938.458000", "123938.460000", "123938.463000", "123938.465000", "123958.418000", "123958.421000", "123958.424000", "123958.426000", "123958.429000", "123958.431000", "123958.433000", "123958.436000", "123958.438000", "123958.441000", "123958.443000", "123958.446000", "123958.448000", "123958.451000", "123958.453000", "123958.456000", "123958.458000", "123958.461000", "123958.463000", "123958.465000", "124018.418000", "124018.421000", "124018.428000", "124018.430000", "124018.433000", "124018.435000", "124018.438000", "124018.440000", "124018.443000", "124018.445000", "124018.448000", "124018.450000", "124018.453000", "124018.455000", "124018.457000", "124018.460000", "124018.462000", "124018.465000", "124018.467000", "124018.470000", "124038.418000", "124038.421000", "124038.423000", "124038.426000", "124038.429000", "124038.431000", "124038.433000", "124038.436000", "124038.439000", "124038.441000", "124038.443000", "124038.446000", "124038.448000", "124038.451000", "124038.453000", "124038.456000", "124038.458000", "124038.461000", "124038.463000", "124038.465000", "124058.417000", "124058.420000", "124058.438000", "124058.440000", "124058.443000", "124058.445000", "124058.448000", "124058.450000", "124058.453000", "124058.455000", "124058.458000", "124058.460000", "124058.462000", "124058.465000", "124058.467000", "124058.470000", "124058.472000", "124058.475000", "124058.477000", "124058.480000", "124118.417000", "124118.420000", "124118.422000", "124118.425000", "124118.427000", "124118.430000", "124118.432000", "124118.435000", "124118.437000", "124118.440000", "124118.442000", "124118.445000", "124118.447000", "124118.450000", "124118.452000", "124118.455000", "124118.457000", "124118.460000", "124118.462000", "124118.464000", "124138.418000", "124138.421000", "124138.424000", "124138.426000", "124138.429000", "124138.431000", "124138.434000", "124138.436000", "124138.439000", "124138.441000", "124138.444000", "124138.446000", "124138.449000", "124138.451000", "124138.454000", "124138.456000", "124138.459000", "124138.461000", "124138.464000", "124138.466000", "124158.418000", "124158.421000", "124158.423000", "124158.426000", "124158.429000", "124158.431000", "124158.433000", "124158.436000", "124158.439000", "124158.441000", "124158.443000", "124158.446000", "124158.448000", "124158.451000", "124158.453000", "124158.456000", "124158.458000", "124158.461000", "124158.463000", "124158.466000", "124218.418000", "124218.421000", "124218.423000", "124218.426000", "124218.429000", "124218.431000", "124218.433000", "124218.436000", "124218.438000", "124218.441000", "124218.443000", "124218.446000", "124218.448000", "124218.451000", "124218.453000", "124218.456000", "124218.458000", "124218.461000", "124218.463000", "124218.466000", "124238.418000", "124238.421000", "124238.423000", "124238.426000", "124238.429000", "124238.431000", "124238.433000", "124238.436000", "124238.438000", "124238.441000", "124238.443000", "124238.446000", "124238.448000", "124238.451000", "124238.453000", "124238.456000", "124238.458000", "124238.461000", "124238.463000", "124238.465000", "124258.418000", "124258.421000", "124258.423000", "124258.426000", "124258.429000", "124258.431000", "124258.433000", "124258.436000", "124258.439000", "124258.441000", "124258.443000", "124258.446000", "124258.448000", "124258.451000", "124258.453000", "124258.456000", "124258.458000", "124258.461000", "124258.463000", "124258.466000", "124318.417000", "124318.420000", "124318.422000", "124318.425000", "124318.428000", "124318.430000", "124318.433000", "124318.435000", "124318.438000", "124318.440000", "124318.442000", "124318.445000", "124318.447000", "124318.450000", "124318.452000", "124318.455000", "124318.457000", "124318.460000", "124318.462000", "124318.465000", "124338.417000", "124338.420000", "124338.423000", "124338.425000", "124338.428000", "124338.430000", "124338.433000", "124338.435000", "124338.438000", "124338.440000", "124338.443000", "124338.445000", "124338.448000", "124338.450000", "124338.452000", "124338.455000", "124338.457000", "124338.460000", "124338.462000", "124338.465000", "124358.419000", "124358.421000", "124358.424000", "124358.426000", "124358.429000", "124358.431000", "124358.434000", "124358.436000", "124358.439000", "124358.441000", "124358.444000", "124358.446000", "124358.449000", "124358.451000", "124358.454000", "124358.456000", "124358.459000", "124358.461000", "124358.463000", "124358.466000", "124415.847000", "124415.850000", "124415.853000", "124415.856000", "124415.859000", "124415.862000", "124415.865000", "124415.867000", "124415.870000", "124415.873000", "124415.875000", "124415.878000", "124415.880000", "124415.883000", "124415.885000", "124415.888000", "124415.890000", "124415.893000"],
      "InstanceNumber": [1, 2, 3, 4, 5, 6, 7, 8, 9, 10, 11, 12, 13, 14, 15, 16, 17, 18, 19, 20, 21, 22, 23, 24, 25, 26, 27, 28, 29, 30, 31, 32, 33, 34, 35, 36, 37, 38, 39, 40, 41, 42, 43, 44, 45, 46, 47, 48, 49, 50, 51, 52, 53, 54, 55, 56, 57, 58, 59, 60, 61, 62, 63, 64, 65, 66, 67, 68, 69, 70, 71, 72, 73, 74, 75, 76, 77, 78, 79, 80, 81, 82, 83, 84, 85, 86, 87, 88, 89, 90, 91, 92, 93, 94, 95, 96, 97, 98, 99, 100, 101, 102, 103, 104, 105, 106, 107, 108, 109, 110, 111, 112, 113, 114, 115, 116, 117, 118, 119, 120, 121, 122, 123, 124, 125, 126, 127, 128, 129, 130, 131, 132, 133, 134, 135, 136, 137, 138, 139, 140, 141, 142, 143, 144, 145, 146, 147, 148, 149, 150, 151, 152, 153, 154, 155, 156, 157, 158, 159, 160, 161, 162, 163, 164, 165, 166, 167, 168, 169, 170, 171, 172, 173, 174, 175, 176, 177, 178, 179, 180, 181, 182, 183, 184, 185, 186, 187, 188, 189, 190, 191, 192, 193, 194, 195, 196, 197, 198, 199, 200, 201, 202, 203, 204, 205, 206, 207, 208, 209, 210, 211, 212, 213, 214, 215, 216, 217, 218, 219, 220, 221, 222, 223, 224, 225, 226, 227, 228, 229, 230, 231, 232, 233, 234, 235, 236, 237, 238, 239, 240, 241, 242, 243, 244, 245, 246, 247, 248, 249, 250, 251, 252, 253, 254, 255, 256, 257, 258, 259, 260, 261, 262, 263, 264, 265, 266, 267, 268, 269, 270, 271, 272, 273, 274, 275, 276, 277, 278, 279, 280, 281, 282, 283, 284, 285, 286, 287, 288, 289, 290, 291, 292, 293, 294, 295, 296, 297, 298, 299, 300, 301, 302, 303, 304, 305, 306, 307, 308, 309, 310, 311, 312, 313, 314, 315, 316, 317, 318, 319, 320, 321, 322, 323, 324, 325, 326, 327, 328, 329, 330, 331, 332, 333, 334, 335, 336, 337, 338, 339, 340, 341, 342, 343, 344, 345, 346, 347, 348, 349, 350, 351, 352, 353, 354, 355, 356],
      "LargestImagePixelValue": [13038, 12582, 12523, 12463, 12324, 12090, 12286, 12131, 12041, 12030, 12062, 12050, 12043, 12136, 12060, 12162, 12055, 11995, 12087, 12191, 12144, 12065, 11999, 12177, 12118, 12065, 12155, 12133, 11972, 12179, 12207, 12022, 12172, 12247, 12059, 12049, 12205, 12064, 11976, 12130, 12219, 11991, 12053, 12294, 12046, 12187, 12351, 12063, 12175, 12319, 12214, 11960, 12201, 12134, 12025, 12247, 12226, 12148, 12166, 12315, 12258, 12113, 12303, 12339, 12139, 12304, 12197, 12223, 12271, 12221, 12122, 12258, 12217, 12031, 12387, 12295, 12236, 12412, 12393, 12103, 12251, 12320, 12214, 12240, 12233, 12233, 12293, 12393, 12317, 12382, 12303, 12213, 12330, 12377, 12106, 12363, 12353, 12261, 12511, 12338, 12274, 12471, 12484, 12236, 12462, 12340, 12152, 12427, 12368, 12258, 12321, 12460, 12284, 12419, 12505, 12374, 12303, 12399, 12381, 12270, 12267, 12148, 12266, 12569, 12223, 12303, 12500, 12252, 12272, 12491, 12229, 12301, 12456, 12206, 12328, 12532, 12326, 12363, 12407, 12272, 12282, 12306, 12372, 12289, 12361, 12356, 12264, 12356, 12325, 12399, 12305, 12377, 12239, 12289, 12466, 12276, 12391, 12346, 12290, 12350, 12432, 12279, 12515, 12449, 12242, 12534, 12523, 12383, 12521, 12380, 12197, 12388, 12459, 12470, 12249, 12408, 12437, 12328, 12387, 12418, 12202, 12404, 12372, 12310, 12448, 12538, 12334, 12380, 12567, 12356, 12294, 12539, 12371, 12311, 12605, 12387, 12312, 12431, 12304, 12244, 12430, 12214, 12319, 12346, 12404, 12394, 12486, 12415, 12494, 12451, 12422, 12168, 12553, 12304, 12373, 12564, 12263, 12380, 12454, 12373, 12381, 12512, 12344, 12386, 12327, 12267, 12489, 12496, 12317, 12471, 12446, 12231, 12434, 12381, 12298, 12512, 12422, 12265, 12444, 12486, 12371, 12467, 12507, 12297, 12532, 12541, 12378, 12483, 12548, 12328, 12359, 12565, 12346, 12409, 12585, 12389, 12354, 12412, 12293, 12273, 12497, 12262, 12352, 12442, 12357, 12361, 12349, 12383, 12397, 12454, 12387, 12419, 12340, 12328, 12374, 12483, 12280, 12224, 12406, 12489, 12343, 12436, 12354, 12172, 12333, 12384, 12174, 12250, 12393, 12163, 12228, 12394, 12276, 12331, 12342, 12374, 12343, 12389, 12366, 12478, 12517, 12379, 12528, 12410, 12336, 12473, 12462, 12413, 12343, 12426, 12364, 12259, 12495, 12447, 12289, 12298, 12361, 12242, 12274, 12370, 12303, 12360, 12523, 12252, 12362, 12443, 12317, 12488, 12451, 12263, 12313, 12505, 12212, 12417, 12517, 12366, 12454, 12528, 12415, 12516, 12695, 12477, 12431, 12410, 12362, 12536, 12291, 12404, 12448, 12357, 12422, 12375, 12480, 12400, 12347, 12312],
