{
  "AcquisitionMatrixPE": 106,
  "AcquisitionNumber": 1,
  "AcquisitionTime": "11:59:11.887500",
  "BandwidthPerPixelPhaseEncode": 13.477,
  "BaseResolution": 106,
  "BodyPartExamined": "BRAIN",
  "CoilCombinationMethod": "Sum of Squares",
  "ConsistencyInfo": "N4_VE11C_LATEST_20160120",
  "ConversionSoftware": "dcm2niix",
  "ConversionSoftwareVersion": "v1.0.20220720",
  "DerivedVendorReportedEchoSpacing": 0.000700005,
  "DeviceSerialNumber": "166108",
  "DwellTime": 2.6e-06,
  "EchoTime": 0.03,
  "EchoTrainLength": 80,
  "EffectiveEchoSpacing": 0.000700005,
  "FlipAngle": 62,
  "HeudiconvVersion": "1.3.0",
  "ImageComments": "Unaliased MB4/PE3/LB",
  "ImageOrientationPatientDICOM": [1, 0, 0, 0, 0.99824, -0.0593064],
  "ImageOrientationText": "Tra>Cor(-3.4)",
  "ImageType": [
    "ORIGINAL",
    "PRIMARY",
    "M",
    "MB",
    "ND",
    "MOSAIC"
],
  "ImagingFrequency": 123.244,
  "InPlanePhaseEncodingDirectionDICOM": "COL",
  "InstitutionAddress": "Bedford Way 26,London,London,GB,WC1H 0AP",
  "InstitutionName": "University College",
  "InstitutionalDepartmentName": "Department",
  "MRAcquisitionType": "2D",
  "MagneticFieldStrength": 3,
  "Manufacturer": "Siemens",
  "ManufacturersModelName": "Prisma",
  "MatrixCoilMode": "SENSE",
  "Modality": "MR",
  "MultibandAccelerationFactor": 4,
  "NonlinearGradientCorrection": false,
  "PartialFourier": 0.75,
  "PatientPosition": "HFS",
  "PercentPhaseFOV": 100,
  "PercentSampling": 100,
  "PhaseEncodingDirection": "j-",
  "PhaseEncodingSteps": 80,
  "PhaseResolution": 1,
  "PixelBandwidth": 1815,
  "ProcedureStepDescription": "Egor^MovieProject2",
  "ProtocolName": "func-bold_task-motor_run-01",
  "PulseSequenceDetails": "%CustomerSeq%\\cmrr_mbep2d_bold",
  "ReceiveCoilActiveElements": "HEA;HEP",
  "ReceiveCoilName": "Head_32",
  "ReconMatrixPE": 106,
  "RepetitionTime": 1,
  "SAR": 0.0458476,
  "ScanOptions": "PFP\\FS\\EXT",
  "ScanningSequence": "EP",
  "SequenceName": "epfid2d1_106",
  "SequenceVariant": "SK\\SS",
  "SeriesDescription": "func-bold_task-motor_run-01",
  "SeriesNumber": 4,
  "ShimSetting": [-1474, 617, 7478, 295, 102, 112, 198, -69],
  "SliceThickness": 2,
  "SliceTiming": [0, 0.535, 0.09, 0.625, 0.1775, 0.7125, 0.2675, 0.8025, 0.3575, 0.89, 0.445, 0, 0.535, 0.09, 0.625, 0.1775, 0.7125, 0.2675, 0.8025, 0.3575, 0.89, 0.445, 0, 0.535, 0.09, 0.625, 0.1775, 0.7125, 0.2675, 0.8025, 0.3575, 0.89, 0.445, 0, 0.535, 0.09, 0.625, 0.1775, 0.7125, 0.2675, 0.8025, 0.3575, 0.89, 0.445],
  "SoftwareVersions": "syngo MR E11",
  "SpacingBetweenSlices": 2,
  "StationName": "AWP166108",
  "TaskName": "somatotopy",
  "TotalReadoutTime": 0.0735005,
  "TxRefAmp": 237.365,
  "WipMemBlock": "da71ce95-99a0-426d-bacc-cd95cf6c20a8||Sequence: R016 ve11c/master r/e634e98; Dec 19 2017 11:00:25 by eja",
  "dcmmeta_affine": [
    [-2.0, 0.0, 0.0, 106.0],
    [0.0, 1.9964796304702759, -0.11861275136470795, -92.68363189697266],
    [0.0, 0.11861274391412735, 1.9964797496795654, 5.480113983154297],
    [0.0, 0.0, 0.0, 1.0]
],
  "dcmmeta_reorient_transform": [
    [0.0, -1.0, 0.0, 105.0],
    [1.0, 0.0, 0.0, 0.0],
    [0.0, 0.0, 1.0, 0.0],
    [0.0, 0.0, 0.0, 1.0]
],
  "dcmmeta_shape": [106, 106, 44, 467],
  "dcmmeta_slice_dim": 2,
  "dcmmeta_version": 0.6,
  "global": {
    "const": {
      "AcquisitionMatrix": [106, 0, 0, 106],
      "AngioFlag": "N",
      "BitsAllocated": 16,
      "BitsStored": 16,
      "BodyPartExamined": "BRAIN",
      "CardiacNumberOfImages": 1,
      "Columns": 742,
      "EchoNumbers": 1,
      "EchoTime": 30.0,
      "EchoTrainLength": 80,
      "FlipAngle": 62.0,
      "HighBit": 15,
      "ImageOrientationPatient": [1.0, 0.0, 0.0, 0.0, 0.99823982793962, -0.0593063733092],
      "ImagePositionPatient": [-742.0, -751.82725883449, 55.653305870706],
      "ImageType": [
        "ORIGINAL",
        "PRIMARY",
        "M",
        "MB",
        "ND",
        "MOSAIC"
],
      "ImagedNucleus": "1H",
      "ImagingFrequency": 123.243584,
      "InPlanePhaseEncodingDirection": "COL",
      "MRAcquisitionType": "2D",
      "MagneticFieldStrength": 3.0,
      "Manufacturer": "SIEMENS",
      "ManufacturerModelName": "Prisma",
      "Modality": "MR",
      "NominalInterval": 0,
      "NumberOfAverages": 1.0,
      "NumberOfPhaseEncodingSteps": 80,
      "PercentPhaseFieldOfView": 100.0,
      "PercentSampling": 100.0,
      "PerformedProcedureStepStartTime": "113357.979000",
      "PhotometricInterpretation": "MONOCHROME2",
      "PixelBandwidth": 1815.0,
      "PixelRepresentation": 0,
      "PixelSpacing": [2.0, 2.0],
      "ProtocolName": "func-bold_task-motor_run-01",
      "RepetitionTime": 1000.0,
      "Rows": 742,
      "SAR": 0.04584759269098,
      "SamplesPerPixel": 1,
      "ScanOptions": [
        "PFP",
        "FS",
        "EXT"
],
      "ScanningSequence": "EP",
      "SequenceName": "epfid2d1_106",
      "SequenceVariant": [
        "SK",
        "SS"
],
      "SeriesDescription": "func-bold_task-motor_run-01",
      "SeriesNumber": 4,
      "SeriesTime": "115949.243000",
      "SliceLocation": 10.967198400199,
      "SliceThickness": 2.0,
      "SmallestImagePixelValue": 0,
      "SoftwareVersions": "syngo MR E11",
      "SpacingBetweenSlices": 2.0000000658108,
      "SpecificCharacterSet": "ISO_IR 100",
      "StudyID": "1",
      "StudyTime": "113357.925000",
      "TransmitCoilName": "Body",
      "VariableFlipAngleFlag": "N",
      "WindowCenterWidthExplanation": "Algo1",
      "dBdt": 0.0},
    "slices": {}
  },
  "time": {
    "samples": {
      "AcquisitionNumber": [1, 2, 3, 4, 5, 6, 7, 8, 9, 10, 11, 12, 13, 14, 15, 16, 17, 18, 19, 20, 21, 22, 23, 24, 25, 26, 27, 28, 29, 30, 31, 32, 33, 34, 35, 36, 37, 38, 39, 40, 41, 42, 43, 44, 45, 46, 47, 48, 49, 50, 51, 52, 53, 54, 55, 56, 57, 58, 59, 60, 61, 62, 63, 64, 65, 66, 67, 68, 69, 70, 71, 72, 73, 74, 75, 76, 77, 78, 79, 80, 81, 82, 83, 84, 85, 86, 87, 88, 89, 90, 91, 92, 93, 94, 95, 96, 97, 98, 99, 100, 101, 102, 103, 104, 105, 106, 107, 108, 109, 110, 111, 112, 113, 114, 115, 116, 117, 118, 119, 120, 121, 122, 123, 124, 125, 126, 127, 128, 129, 130, 131, 132, 133, 134, 135, 136, 137, 138, 139, 140, 141, 142, 143, 144, 145, 146, 147, 148, 149, 150, 151, 152, 153, 154, 155, 156, 157, 158, 159, 160, 161, 162, 163, 164, 165, 166, 167, 168, 169, 170, 171, 172, 173, 174, 175, 176, 177, 178, 179, 180, 181, 182, 183, 184, 185, 186, 187, 188, 189, 190, 191, 192, 193, 194, 195, 196, 197, 198, 199, 200, 201, 202, 203, 204, 205, 206, 207, 208, 209, 210, 211, 212, 213, 214, 215, 216, 217, 218, 219, 220, 221, 222, 223, 224, 225, 226, 227, 228, 229, 230, 231, 232, 233, 234, 235, 236, 237, 238, 239, 240, 241, 242, 243, 244, 245, 246, 247, 248, 249, 250, 251, 252, 253, 254, 255, 256, 257, 258, 259, 260, 261, 262, 263, 264, 265, 266, 267, 268, 269, 270, 271, 272, 273, 274, 275, 276, 277, 278, 279, 280, 281, 282, 283, 284, 285, 286, 287, 288, 289, 290, 291, 292, 293, 294, 295, 296, 297, 298, 299, 300, 301, 302, 303, 304, 305, 306, 307, 308, 309, 310, 311, 312, 313, 314, 315, 316, 317, 318, 319, 320, 321, 322, 323, 324, 325, 326, 327, 328, 329, 330, 331, 332, 333, 334, 335, 336, 337, 338, 339, 340, 341, 342, 343, 344, 345, 346, 347, 348, 349, 350, 351, 352, 353, 354, 355, 356, 357, 358, 359, 360, 361, 362, 363, 364, 365, 366, 367, 368, 369, 370, 371, 372, 373, 374, 375, 376, 377, 378, 379, 380, 381, 382, 383, 384, 385, 386, 387, 388, 389, 390, 391, 392, 393, 394, 395, 396, 397, 398, 399, 400, 401, 402, 403, 404, 405, 406, 407, 408, 409, 410, 411, 412, 413, 414, 415, 416, 417, 418, 419, 420, 421, 422, 423, 424, 425, 426, 427, 428, 429, 430, 431, 432, 433, 434, 435, 436, 437, 438, 439, 440, 441, 442, 443, 444, 445, 446, 447, 448, 449, 450, 451, 452, 453, 454, 455, 456, 457, 458, 459, 460, 461, 462, 463, 464, 465, 466, 467],
      "AcquisitionTime": ["115911.887500", "115912.887500", "115913.887500", "115914.887500", "115915.887500", "115916.887500", "115917.887500", "115918.887500", "115919.887500", "115920.887500", "115921.887500", "115922.887500", "115923.887500", "115924.887500", "115925.887500", "115926.887500", "115927.887500", "115928.887500", "115929.887500", "115930.887500", "115931.887500", "115932.887500", "115933.887500", "115934.887500", "115935.887500", "115936.887500", "115937.887500", "115938.887500", "115939.887500", "115940.887500", "115941.887500", "115942.887500", "115943.887500", "115944.887500", "115945.887500", "115946.887500", "115947.887500", "115948.887500", "115949.887500", "115950.887500", "115951.887500", "115952.887500", "115953.887500", "115954.887500", "115955.887500", "115956.887500", "115957.887500", "115958.887500", "115959.887500", "120000.887500", "120001.887500", "120002.887500", "120003.887500", "120004.887500", "120005.887500", "120006.887500", "120007.887500", "120008.887500", "120009.887500", "120010.887500", "120011.887500", "120012.887500", "120013.887500", "120014.887500", "120015.887500", "120016.887500", "120017.887500", "120018.887500", "120019.887500", "120020.887500", "120021.887500", "120022.887500", "120023.887500", "120024.887500", "120025.887500", "120026.887500", "120027.887500", "120028.887500", "120029.887500", "120030.887500", "120031.887500", "120032.887500", "120033.887500", "120034.887500", "120035.887500", "120036.887500", "120037.887500", "120038.887500", "120039.887500", "120040.887500", "120041.887500", "120042.887500", "120043.887500", "120044.887500", "120045.887500", "120046.887500", "120047.887500", "120048.887500", "120049.887500", "120050.887500", "120051.887500", "120052.887500", "120053.887500", "120054.887500", "120055.887500", "120056.887500", "120057.887500", "120058.887500", "120059.887500", "120100.887500", "120101.887500", "120102.887500", "120103.887500", "120104.887500", "120105.887500", "120106.887500", "120107.887500", "120108.887500", "120109.887500", "120110.887500", "120111.887500", "120112.887500", "120113.887500", "120114.887500", "120115.887500", "120116.887500", "120117.887500", "120118.887500", "120119.887500", "120120.887500", "120121.887500", "120122.887500", "120123.887500", "120124.887500", "120125.887500", "120126.887500", "120127.887500", "120128.887500", "120129.887500", "120130.887500", "120131.887500", "120132.887500", "120133.887500", "120134.887500", "120135.887500", "120136.887500", "120137.887500", "120138.887500", "120139.887500", "120140.887500", "120141.887500", "120142.887500", "120143.887500", "120144.887500", "120145.887500", "120146.887500", "120147.887500", "120148.887500", "120149.887500", "120150.887500", "120151.887500", "120152.887500", "120153.887500", "120154.887500", "120155.887500", "120156.887500", "120157.887500", "120158.887500", "120159.887500", "120200.887500", "120201.887500", "120202.887500", "120203.887500", "120204.887500", "120205.887500", "120206.887500", "120207.887500", "120208.887500", "120209.887500", "120210.887500", "120211.887500", "120212.887500", "120213.887500", "120214.887500", "120215.887500", "120216.887500", "120217.887500", "120218.887500", "120219.887500", "120220.887500", "120221.887500", "120222.887500", "120223.887500", "120224.887500", "120225.887500", "120226.887500", "120227.887500", "120228.887500", "120229.887500", "120230.887500", "120231.887500", "120232.887500", "120233.887500", "120234.887500", "120235.887500", "120236.887500", "120237.887500", "120238.887500", "120239.887500", "120240.887500", "120241.887500", "120242.887500", "120243.887500", "120244.887500", "120245.887500", "120246.887500", "120247.887500", "120248.887500", "120249.887500", "120250.887500", "120251.887500", "120252.887500", "120253.887500", "120254.887500", "120255.887500", "120256.887500", "120257.887500", "120258.887500", "120259.887500", "120300.887500", "120301.887500", "120302.887500", "120303.887500", "120304.887500", "120305.887500", "120306.887500", "120307.887500", "120308.887500", "120309.887500", "120310.887500", "120311.887500", "120312.887500", "120313.887500", "120314.887500", "120315.887500", "120316.887500", "120317.887500", "120318.887500", "120319.887500", "120320.887500", "120321.887500", "120322.887500", "120323.887500", "120324.887500", "120325.887500", "120326.887500", "120327.887500", "120328.887500", "120329.887500", "120330.887500", "120331.887500", "120332.887500", "120333.887500", "120334.887500", "120335.887500", "120336.887500", "120337.887500", "120338.887500", "120339.887500", "120340.887500", "120341.887500", "120342.887500", "120343.887500", "120344.887500", "120345.887500", "120346.887500", "120347.887500", "120348.887500", "120349.887500", "120350.887500", "120351.887500", "120352.887500", "120353.887500", "120354.887500", "120355.887500", "120356.887500", "120357.887500", "120358.887500", "120359.887500", "120400.887500", "120401.887500", "120402.887500", "120403.887500", "120404.887500", "120405.887500", "120406.887500", "120407.887500", "120408.887500", "120409.887500", "120410.887500", "120411.887500", "120412.887500", "120413.887500", "120414.887500", "120415.887500", "120416.887500", "120417.887500", "120418.887500", "120419.887500", "120420.887500", "120421.887500", "120422.887500", "120423.887500", "120424.887500", "120425.887500", "120426.887500", "120427.887500", "120428.887500", "120429.887500", "120430.887500", "120431.887500", "120432.887500", "120433.887500", "120434.887500", "120435.887500", "120436.887500", "120437.887500", "120438.887500", "120439.887500", "120440.887500", "120441.887500", "120442.887500", "120443.887500", "120444.887500", "120445.887500", "120446.887500", "120447.887500", "120448.887500", "120449.887500", "120450.887500", "120451.887500", "120452.887500", "120453.887500", "120454.887500", "120455.887500", "120456.887500", "120457.887500", "120458.887500", "120459.887500", "120500.887500", "120501.887500", "120502.887500", "120503.887500", "120504.887500", "120505.887500", "120506.887500", "120507.887500", "120508.887500", "120509.887500", "120510.887500", "120511.887500", "120512.887500", "120513.887500", "120514.887500", "120515.887500", "120516.887500", "120517.887500", "120518.887500", "120519.887500", "120520.887500", "120521.887500", "120522.887500", "120523.887500", "120524.887500", "120525.887500", "120526.887500", "120527.887500", "120528.887500", "120529.887500", "120530.887500", "120531.887500", "120532.887500", "120533.887500", "120534.887500", "120535.887500", "120536.887500", "120537.887500", "120538.887500", "120539.887500", "120540.887500", "120541.887500", "120542.887500", "120543.887500", "120544.887500", "120545.887500", "120546.887500", "120547.887500", "120548.887500", "120549.887500", "120550.887500", "120551.887500", "120552.887500", "120553.887500", "120554.887500", "120555.887500", "120556.887500", "120557.887500", "120558.887500", "120559.887500", "120600.887500", "120601.887500", "120602.887500", "120603.887500", "120604.887500", "120605.887500", "120606.887500", "120607.887500", "120608.887500", "120609.887500", "120610.887500", "120611.887500", "120612.887500", "120613.887500", "120614.887500", "120615.887500", "120616.887500", "120617.887500", "120618.887500", "120619.887500", "120620.887500", "120621.887500", "120622.887500", "120623.887500", "120624.887500", "120625.887500", "120626.887500", "120627.887500", "120628.887500", "120629.887500", "120630.887500", "120631.887500", "120632.887500", "120633.887500", "120634.887500", "120635.887500", "120636.887500", "120637.887500", "120638.887500", "120639.887500", "120640.887500", "120641.887500", "120642.887500", "120643.887500", "120644.887500", "120645.887500", "120646.887500", "120647.887500", "120648.887500", "120649.887500", "120650.887500", "120651.887500", "120652.887500", "120653.887500", "120654.887500", "120655.887500", "120656.887500", "120657.887500"],
      "ContentTime": ["115949.245000", "115949.248000", "115949.251000", "115949.253000", "115949.256000", "115949.258000", "115949.261000", "115949.264000", "115949.266000", "115949.269000", "115949.271000", "115949.274000", "115949.283000", "115949.286000", "115949.288000", "115949.291000", "115949.293000", "115949.296000", "115949.298000", "115949.301000", "115949.303000", "115949.306000", "115949.308000", "115949.311000", "115949.313000", "115949.320000", "115949.323000", "115949.325000", "115949.328000", "115949.330000", "115949.333000", "115949.335000", "115949.338000", "115949.340000", "115949.343000", "115949.345000", "120009.200000", "120009.203000", "120009.206000", "120009.208000", "120009.211000", "120009.213000", "120009.216000", "120009.226000", "120009.228000", "120009.231000", "120009.234000", "120009.236000", "120009.239000", "120009.241000", "120009.244000", "120009.246000", "120009.249000", "120009.251000", "120009.254000", "120009.256000", "120029.200000", "120029.203000", "120029.206000", "120029.208000", "120029.211000", "120029.213000", "120029.216000", "120029.218000", "120029.221000", "120029.223000", "120029.226000", "120029.228000", "120029.230000", "120029.233000", "120029.235000", "120029.238000", "120029.240000", "120029.243000", "120029.245000", "120029.248000", "120049.200000", "120049.203000", "120049.206000", "120049.208000", "120049.211000", "120049.213000", "120049.216000", "120049.219000", "120049.221000", "120049.224000", "120049.226000", "120049.229000", "120049.231000", "120049.234000", "120049.236000", "120049.239000", "120049.241000", "120049.244000", "120049.246000", "120049.249000", "120109.201000", "120109.215000", "120109.217000", "120109.220000", "120109.222000", "120109.225000", "120109.227000", "120109.230000", "120109.232000", "120109.238000", "120109.240000", "120109.243000", "120109.245000", "120109.248000", "120109.251000", "120109.253000", "120109.256000", "120109.258000", "120109.261000", "120109.263000", "120129.201000", "120129.204000", "120129.207000", "120129.209000", "120129.212000", "120129.214000", "120129.217000", "120129.226000", "120129.229000", "120129.231000", "120129.234000", "120129.236000", "120129.239000", "120129.241000", "120129.244000", "120129.246000", "120129.249000", "120129.251000", "120129.254000", "120129.256000", "120149.201000", "120149.212000", "120149.226000", "120149.228000", "120149.231000", "120149.233000", "120149.236000", "120149.238000", "120149.241000", "120149.243000", "120149.246000", "120149.248000", "120149.251000", "120149.253000", "120149.256000", "120149.258000", "120149.261000", "120149.263000", "120149.266000", "120149.268000", "120209.200000", "120209.203000", "120209.206000", "120209.208000", "120209.211000", "120209.213000", "120209.216000", "120209.218000", "120209.221000", "120209.223000", "120209.226000", "120209.228000", "120209.231000", "120209.233000", "120209.236000", "120209.238000", "120209.240000", "120209.243000", "120209.245000", "120209.248000", "120229.200000", "120229.211000", "120229.214000", "120229.217000", "120229.219000", "120229.222000", "120229.224000", "120229.227000", "120229.229000", "120229.232000", "120229.234000", "120229.237000", "120229.239000", "120229.242000", "120229.244000", "120229.247000", "120229.249000", "120229.252000", "120229.254000", "120229.257000", "120249.200000", "120249.203000", "120249.206000", "120249.208000", "120249.211000", "120249.213000", "120249.216000", "120249.218000", "120249.221000", "120249.223000", "120249.226000", "120249.228000", "120249.231000", "120249.233000", "120249.236000", "120249.238000", "120249.241000", "120249.243000", "120249.246000", "120249.248000", "120309.200000", "120309.203000", "120309.206000", "120309.208000", "120309.211000", "120309.213000", "120309.216000", "120309.218000", "120309.221000", "120309.230000", "120309.233000", "120309.235000", "120309.238000", "120309.240000", "120309.243000", "120309.245000", "120309.248000", "120309.250000", "120309.253000", "120309.255000", "120329.202000", "120329.204000", "120329.207000", "120329.209000", "120329.212000", "120329.214000", "120329.217000", "120329.219000", "120329.222000", "120329.224000", "120329.227000", "120329.229000", "120329.232000", "120329.234000", "120329.237000", "120329.239000", "120329.242000", "120329.244000", "120329.247000", "120329.249000", "120349.202000", "120349.204000", "120349.207000", "120349.209000", "120349.212000", "120349.214000", "120349.217000", "120349.219000", "120349.222000", "120349.224000", "120349.227000", "120349.229000", "120349.232000", "120349.234000", "120349.237000", "120349.239000", "120349.242000", "120349.244000", "120349.247000", "120349.249000", "120409.201000", "120409.204000", "120409.207000", "120409.209000", "120409.212000", "120409.214000", "120409.217000", "120409.219000", "120409.221000", "120409.224000", "120409.226000", "120409.229000", "120409.231000", "120409.234000", "120409.236000", "120409.239000", "120409.241000", "120409.244000", "120409.246000", "120409.249000", "120429.201000", "120429.203000", "120429.207000", "120429.209000", "120429.211000", "120429.214000", "120429.216000", "120429.219000", "120429.221000", "120429.224000", "120429.226000", "120429.229000", "120429.231000", "120429.234000", "120429.236000", "120429.239000", "120429.241000", "120429.244000", "120429.246000", "120429.249000", "120449.200000", "120449.203000", "120449.206000", "120449.208000", "120449.211000", "120449.213000", "120449.216000", "120449.218000", "120449.221000", "120449.223000", "120449.226000", "120449.228000", "120449.231000", "120449.233000", "120449.236000", "120449.238000", "120449.241000", "120449.243000", "120449.246000", "120449.248000", "120509.201000", "120509.203000", "120509.206000", "120509.208000", "120509.211000", "120509.213000", "120509.216000", "120509.218000", "120509.221000", "120509.223000", "120509.226000", "120509.229000", "120509.231000", "120509.233000", "120509.236000", "120509.239000", "120509.241000", "120509.243000", "120509.246000", "120509.249000", "120529.200000", "120529.203000", "120529.206000", "120529.208000", "120529.211000", "120529.213000", "120529.216000", "120529.218000", "120529.221000", "120529.223000", "120529.225000", "120529.228000", "120529.230000", "120529.233000", "120529.235000", "120529.238000", "120529.240000", "120529.243000", "120529.245000", "120529.248000", "120549.201000", "120549.204000", "120549.207000", "120549.209000", "120549.212000", "120549.214000", "120549.217000", "120549.219000", "120549.222000", "120549.224000", "120549.227000", "120549.229000", "120549.232000", "120549.234000", "120549.237000", "120549.239000", "120549.242000", "120549.244000", "120549.247000", "120549.249000", "120609.202000", "120609.204000", "120609.207000", "120609.209000", "120609.212000", "120609.214000", "120609.217000", "120609.219000", "120609.222000", "120609.224000", "120609.227000", "120609.229000", "120609.232000", "120609.234000", "120609.237000", "120609.239000", "120609.242000", "120609.244000", "120609.247000", "120609.249000", "120629.201000", "120629.204000", "120629.207000", "120629.209000", "120629.212000", "120629.214000", "120629.217000", "120629.219000", "120629.222000", "120629.224000", "120629.227000", "120629.229000", "120629.232000", "120629.234000", "120629.237000", "120629.239000", "120629.242000", "120629.244000", "120629.247000", "120629.249000", "120649.201000", "120649.203000", "120649.216000", "120649.218000", "120649.221000", "120649.223000", "120649.226000", "120649.228000", "120649.231000", "120649.233000", "120649.236000", "120649.238000", "120649.241000", "120649.243000", "120649.246000", "120649.248000", "120649.251000", "120649.253000", "120649.256000", "120649.259000", "120659.669000", "120659.672000", "120659.674000", "120659.677000", "120659.679000", "120659.682000", "120659.684000", "120659.687000", "120659.689000", "120659.692000", "120659.694000"],
