{
  "AcquisitionMatrixPE": 106,
  "AcquisitionNumber": 1,
  "AcquisitionTime": "12:31:9.037500",
  "BandwidthPerPixelPhaseEncode": 16.846,
  "BaseResolution": 106,
  "BodyPartExamined": "BRAIN",
  "CoilCombinationMethod": "Sum of Squares",
  "ConsistencyInfo": "N4_VE11C_LATEST_20160120",
  "ConversionSoftware": "dcm2niix",
  "ConversionSoftwareVersion": "v1.0.20220720",
  "DerivedVendorReportedEchoSpacing": 0.000560012,
  "DeviceSerialNumber": "166108",
  "DwellTime": 1.8e-06,
  "EchoTime": 0.0352,
  "EchoTrainLength": 106,
  "EffectiveEchoSpacing": 0.000560012,
  "FlipAngle": 60,
  "HeudiconvVersion": "1.3.0",
  "ImageComments": "Unaliased MB4/PE3/LB",
  "ImageOrientationPatientDICOM": [1, 0, 0, 0, 0.932324, -0.361625],
  "ImageOrientationText": "Tra>Cor(-21.2)",
  "ImageType": [
    "ORIGINAL",
    "PRIMARY",
    "M",
    "MB",
    "ND",
    "MOSAIC"
],
  "ImagingFrequency": 123.244,
  "InPlanePhaseEncodingDirectionDICOM": "COL",
  "InstitutionAddress": "Bedford Way 26,London,London,GB,WC1H 0AP",
  "InstitutionName": "University College",
  "InstitutionalDepartmentName": "Department",
  "MRAcquisitionType": "2D",
  "MagneticFieldStrength": 3,
  "Manufacturer": "Siemens",
  "ManufacturersModelName": "Prisma",
  "MatrixCoilMode": "SENSE",
  "Modality": "MR",
  "MultibandAccelerationFactor": 4,
  "NonlinearGradientCorrection": false,
  "PartialFourier": 1,
  "PatientPosition": "HFS",
  "PercentPhaseFOV": 100,
  "PercentSampling": 100,
  "PhaseEncodingDirection": "j-",
  "PhaseEncodingSteps": 106,
  "PhaseResolution": 1,
  "PixelBandwidth": 2620,
  "ProcedureStepDescription": "Egor^MovieProject2",
  "ProtocolName": "func-bold_task-pRF_run-02",
  "PulseSequenceDetails": "%CustomerSeq%\\cmrr_mbep2d_bold",
  "ReceiveCoilActiveElements": "HEA;HEP",
  "ReceiveCoilName": "Head_32",
  "ReconMatrixPE": 106,
  "RepetitionTime": 1,
  "SAR": 0.0821265,
  "ScanOptions": "FS\\EXT",
  "ScanningSequence": "EP",
  "SequenceName": "epfid2d1_106",
  "SequenceVariant": "SK\\SS",
  "SeriesDescription": "func-bold_task-pRF_run-02",
  "SeriesNumber": 12,
  "ShimSetting": [-1488, 602, 7481, 301, 59, 75, 236, -74],
  "SliceThickness": 2,
  "SliceTiming": [0, 0.4075, 0.815, 0.245, 0.6525, 0.08, 0.49, 0.8975, 0.325, 0.735, 0.1625, 0.57, 0, 0.4075, 0.815, 0.245, 0.6525, 0.08, 0.49, 0.8975, 0.325, 0.735, 0.1625, 0.57, 0, 0.4075, 0.815, 0.245, 0.6525, 0.08, 0.49, 0.8975, 0.325, 0.735, 0.1625, 0.57, 0, 0.4075, 0.815, 0.245, 0.6525, 0.08, 0.49, 0.8975, 0.325, 0.735, 0.1625, 0.57],
  "SoftwareVersions": "syngo MR E11",
  "SpacingBetweenSlices": 2,
  "StationName": "AWP166108",
  "TaskName": "retinotopy",
  "TotalReadoutTime": 0.0588013,
  "TxRefAmp": 237.365,
  "WipMemBlock": "7287faf1-c3fa-48fe-9d09-18bf36b3c733||Sequence: R016 ve11c/master r/e634e98; Dec 19 2017 11:00:25 by eja",
  "dcmmeta_affine": [
    [-2.0, 0.0, 0.0, 106.0],
    [0.0, 1.864647626876831, -0.7232491374015808, -76.8809814453125],
    [0.0, 0.7232491970062256, 1.8646475076675415, -39.48118591308594],
    [0.0, 0.0, 0.0, 1.0]
],
  "dcmmeta_reorient_transform": [
    [0.0, -1.0, 0.0, 105.0],
    [1.0, 0.0, 0.0, 0.0],
    [0.0, 0.0, 1.0, 0.0],
    [0.0, 0.0, 0.0, 1.0]
],
  "dcmmeta_shape": [106, 106, 48, 356],
  "dcmmeta_slice_dim": 2,
  "dcmmeta_version": 0.6,
  "global": {
    "const": {
      "AcquisitionMatrix": [106, 0, 0, 106],
      "AngioFlag": "N",
      "BitsAllocated": 16,
      "BitsStored": 16,
      "BodyPartExamined": "BRAIN",
      "CardiacNumberOfImages": 1,
      "Columns": 742,
      "EchoNumbers": 1,
      "EchoTime": 35.2,
      "EchoTrainLength": 106,
      "FlipAngle": 60.0,
      "HighBit": 15,
      "ImageOrientationPatient": [1.0, 0.0, 0.0, 0.0, 0.93232379461274, -0.3616245871051],
      "ImagePositionPatient": [-742.0, -711.86494789391, 266.45321298296],
      "ImageType": [
        "ORIGINAL",
        "PRIMARY",
        "M",
        "MB",
        "ND",
        "MOSAIC"
],
      "ImagedNucleus": "1H",
      "ImagingFrequency": 123.243592,
      "InPlanePhaseEncodingDirection": "COL",
      "MRAcquisitionType": "2D",
      "MagneticFieldStrength": 3.0,
      "Manufacturer": "SIEMENS",
      "ManufacturerModelName": "Prisma",
      "Modality": "MR",
      "NominalInterval": 0,
      "NumberOfAverages": 1.0,
      "NumberOfPhaseEncodingSteps": 106,
      "PercentPhaseFieldOfView": 100.0,
      "PercentSampling": 100.0,
      "PerformedProcedureStepStartTime": "113357.979000",
      "PhotometricInterpretation": "MONOCHROME2",
      "PixelBandwidth": 2620.0,
      "PixelRepresentation": 0,
      "PixelSpacing": [2.0, 2.0],
      "ProtocolName": "func-bold_task-pRF_run-02",
      "RepetitionTime": 1000.0,
      "Rows": 742,
      "SAR": 0.08212652753216,
      "SamplesPerPixel": 1,
      "ScanOptions": [
        "FS",
        "EXT"
],
      "ScanningSequence": "EP",
      "SequenceName": "epfid2d1_106",
      "SequenceVariant": [
        "SK",
        "SS"
],
      "SeriesDescription": "func-bold_task-pRF_run-02",
      "SeriesNumber": 12,
      "SeriesTime": "123133.895000",
      "SliceLocation": -9.0071972416713,
      "SliceThickness": 2.0,
      "SmallestImagePixelValue": 0,
      "SoftwareVersions": "syngo MR E11",
      "SpacingBetweenSlices": 1.9999999677192,
      "SpecificCharacterSet": "ISO_IR 100",
      "StudyID": "1",
      "StudyTime": "113357.925000",
      "TransmitCoilName": "Body",
      "VariableFlipAngleFlag": "N",
      "WindowCenterWidthExplanation": "Algo1",
      "dBdt": 0.0},
    "slices": {}
  },
  "time": {
    "samples": {
      "AcquisitionNumber": [1, 2, 3, 4, 5, 6, 7, 8, 9, 10, 11, 12, 13, 14, 15, 16, 17, 18, 19, 20, 21, 22, 23, 24, 25, 26, 27, 28, 29, 30, 31, 32, 33, 34, 35, 36, 37, 38, 39, 40, 41, 42, 43, 44, 45, 46, 47, 48, 49, 50, 51, 52, 53, 54, 55, 56, 57, 58, 59, 60, 61, 62, 63, 64, 65, 66, 67, 68, 69, 70, 71, 72, 73, 74, 75, 76, 77, 78, 79, 80, 81, 82, 83, 84, 85, 86, 87, 88, 89, 90, 91, 92, 93, 94, 95, 96, 97, 98, 99, 100, 101, 102, 103, 104, 105, 106, 107, 108, 109, 110, 111, 112, 113, 114, 115, 116, 117, 118, 119, 120, 121, 122, 123, 124, 125, 126, 127, 128, 129, 130, 131, 132, 133, 134, 135, 136, 137, 138, 139, 140, 141, 142, 143, 144, 145, 146, 147, 148, 149, 150, 151, 152, 153, 154, 155, 156, 157, 158, 159, 160, 161, 162, 163, 164, 165, 166, 167, 168, 169, 170, 171, 172, 173, 174, 175, 176, 177, 178, 179, 180, 181, 182, 183, 184, 185, 186, 187, 188, 189, 190, 191, 192, 193, 194, 195, 196, 197, 198, 199, 200, 201, 202, 203, 204, 205, 206, 207, 208, 209, 210, 211, 212, 213, 214, 215, 216, 217, 218, 219, 220, 221, 222, 223, 224, 225, 226, 227, 228, 229, 230, 231, 232, 233, 234, 235, 236, 237, 238, 239, 240, 241, 242, 243, 244, 245, 246, 247, 248, 249, 250, 251, 252, 253, 254, 255, 256, 257, 258, 259, 260, 261, 262, 263, 264, 265, 266, 267, 268, 269, 270, 271, 272, 273, 274, 275, 276, 277, 278, 279, 280, 281, 282, 283, 284, 285, 286, 287, 288, 289, 290, 291, 292, 293, 294, 295, 296, 297, 298, 299, 300, 301, 302, 303, 304, 305, 306, 307, 308, 309, 310, 311, 312, 313, 314, 315, 316, 317, 318, 319, 320, 321, 322, 323, 324, 325, 326, 327, 328, 329, 330, 331, 332, 333, 334, 335, 336, 337, 338, 339, 340, 341, 342, 343, 344, 345, 346, 347, 348, 349, 350, 351, 352, 353, 354, 355, 356],
      "AcquisitionTime": ["123109.037500", "123110.037500", "123111.037500", "123112.037500", "123113.037500", "123114.037500", "123115.037500", "123116.037500", "123117.037500", "123118.037500", "123119.037500", "123120.037500", "123121.037500", "123122.037500", "123123.037500", "123124.037500", "123125.037500", "123126.037500", "123127.037500", "123128.037500", "123129.037500", "123130.037500", "123131.037500", "123132.037500", "123133.037500", "123134.037500", "123135.037500", "123136.037500", "123137.037500", "123138.037500", "123139.037500", "123140.037500", "123141.037500", "123142.037500", "123143.037500", "123144.037500", "123145.037500", "123146.037500", "123147.037500", "123148.037500", "123149.037500", "123150.037500", "123151.037500", "123152.037500", "123153.037500", "123154.037500", "123155.037500", "123156.037500", "123157.037500", "123158.037500", "123159.037500", "123200.037500", "123201.037500", "123202.037500", "123203.037500", "123204.037500", "123205.037500", "123206.037500", "123207.037500", "123208.037500", "123209.037500", "123210.037500", "123211.037500", "123212.037500", "123213.037500", "123214.037500", "123215.037500", "123216.037500", "123217.037500", "123218.037500", "123219.037500", "123220.037500", "123221.037500", "123222.037500", "123223.037500", "123224.037500", "123225.037500", "123226.037500", "123227.037500", "123228.037500", "123229.037500", "123230.037500", "123231.037500", "123232.037500", "123233.037500", "123234.037500", "123235.037500", "123236.037500", "123237.037500", "123238.037500", "123239.037500", "123240.037500", "123241.037500", "123242.037500", "123243.037500", "123244.037500", "123245.037500", "123246.037500", "123247.037500", "123248.037500", "123249.037500", "123250.037500", "123251.037500", "123252.037500", "123253.037500", "123254.037500", "123255.037500", "123256.037500", "123257.037500", "123258.037500", "123259.037500", "123300.037500", "123301.037500", "123302.037500", "123303.037500", "123304.037500", "123305.037500", "123306.037500", "123307.037500", "123308.037500", "123309.037500", "123310.037500", "123311.037500", "123312.037500", "123313.037500", "123314.037500", "123315.037500", "123316.037500", "123317.037500", "123318.037500", "123319.037500", "123320.037500", "123321.037500", "123322.037500", "123323.037500", "123324.037500", "123325.037500", "123326.037500", "123327.037500", "123328.037500", "123329.037500", "123330.037500", "123331.037500", "123332.037500", "123333.037500", "123334.037500", "123335.037500", "123336.037500", "123337.037500", "123338.037500", "123339.037500", "123340.037500", "123341.037500", "123342.037500", "123343.037500", "123344.037500", "123345.037500", "123346.037500", "123347.037500", "123348.037500", "123349.037500", "123350.037500", "123351.037500", "123352.037500", "123353.037500", "123354.037500", "123355.037500", "123356.037500", "123357.037500", "123358.037500", "123359.037500", "123400.037500", "123401.037500", "123402.037500", "123403.037500", "123404.037500", "123405.037500", "123406.037500", "123407.037500", "123408.037500", "123409.037500", "123410.037500", "123411.037500", "123412.037500", "123413.037500", "123414.037500", "123415.037500", "123416.037500", "123417.037500", "123418.037500", "123419.037500", "123420.037500", "123421.037500", "123422.037500", "123423.037500", "123424.037500", "123425.037500", "123426.037500", "123427.037500", "123428.037500", "123429.037500", "123430.037500", "123431.037500", "123432.037500", "123433.037500", "123434.037500", "123435.037500", "123436.037500", "123437.037500", "123438.037500", "123439.037500", "123440.037500", "123441.037500", "123442.037500", "123443.037500", "123444.037500", "123445.037500", "123446.037500", "123447.037500", "123448.037500", "123449.037500", "123450.037500", "123451.037500", "123452.037500", "123453.037500", "123454.037500", "123455.037500", "123456.037500", "123457.037500", "123458.037500", "123459.037500", "123500.037500", "123501.037500", "123502.037500", "123503.037500", "123504.037500", "123505.037500", "123506.037500", "123507.037500", "123508.037500", "123509.037500", "123510.037500", "123511.037500", "123512.037500", "123513.037500", "123514.037500", "123515.037500", "123516.037500", "123517.037500", "123518.037500", "123519.037500", "123520.037500", "123521.037500", "123522.037500", "123523.037500", "123524.037500", "123525.037500", "123526.037500", "123527.037500", "123528.037500", "123529.037500", "123530.037500", "123531.037500", "123532.037500", "123533.037500", "123534.037500", "123535.037500", "123536.037500", "123537.037500", "123538.037500", "123539.037500", "123540.037500", "123541.037500", "123542.037500", "123543.037500", "123544.037500", "123545.037500", "123546.037500", "123547.037500", "123548.037500", "123549.037500", "123550.037500", "123551.037500", "123552.037500", "123553.037500", "123554.037500", "123555.037500", "123556.037500", "123557.037500", "123558.037500", "123559.037500", "123600.037500", "123601.037500", "123602.037500", "123603.037500", "123604.037500", "123605.037500", "123606.037500", "123607.037500", "123608.037500", "123609.037500", "123610.037500", "123611.037500", "123612.037500", "123613.037500", "123614.037500", "123615.037500", "123616.037500", "123617.037500", "123618.037500", "123619.037500", "123620.037500", "123621.037500", "123622.037500", "123623.037500", "123624.037500", "123625.037500", "123626.037500", "123627.037500", "123628.037500", "123629.037500", "123630.037500", "123631.037500", "123632.037500", "123633.037500", "123634.037500", "123635.037500", "123636.037500", "123637.037500", "123638.037500", "123639.037500", "123640.037500", "123641.037500", "123642.037500", "123643.037500", "123644.037500", "123645.037500", "123646.037500", "123647.037500", "123648.037500", "123649.037500", "123650.037500", "123651.037500", "123652.037500", "123653.037500", "123654.037500", "123655.037500", "123656.037500", "123657.037500", "123658.037500", "123659.037500", "123700.037500", "123701.037500", "123702.037500", "123703.037500", "123704.037500"],
      "ContentTime": ["123133.898000", "123133.901000", "123133.903000", "123133.906000", "123133.908000", "123133.911000", "123133.913000", "123133.916000", "123133.918000", "123133.923000", "123133.926000", "123133.929000", "123133.931000", "123133.934000", "123133.936000", "123133.939000", "123133.941000", "123133.944000", "123133.947000", "123133.953000", "123133.955000", "123153.859000", "123153.862000", "123153.864000", "123153.867000", "123153.869000", "123153.872000", "123153.874000", "123153.877000", "123153.879000", "123153.882000", "123153.884000", "123153.887000", "123153.889000", "123153.892000", "123153.894000", "123153.902000", "123153.905000", "123153.907000", "123153.910000", "123153.912000", "123153.915000", "123153.917000", "123153.920000", "123213.858000", "123213.861000", "123213.864000", "123213.866000", "123213.872000", "123213.875000", "123213.878000", "123213.880000", "123213.882000", "123213.885000", "123213.888000", "123213.890000", "123213.892000", "123213.895000", "123213.897000", "123213.900000", "123213.908000", "123213.910000", "123213.913000", "123213.915000", "123233.858000", "123233.861000", "123233.864000", "123233.866000", "123233.869000", "123233.871000", "123233.874000", "123233.876000", "123233.879000", "123233.881000", "123233.884000", "123233.886000", "123233.889000", "123233.904000", "123233.907000", "123233.910000", "123233.912000", "123233.915000", "123233.917000", "123233.920000", "123253.857000", "123253.860000", "123253.863000", "123253.865000", "123253.868000", "123253.870000", "123253.873000", "123253.875000", "123253.878000", "123253.880000", "123253.883000", "123253.885000", "123253.888000", "123253.890000", "123253.893000", "123253.895000", "123253.899000", "123253.901000", "123253.904000", "123253.907000", "123313.858000", "123313.861000", "123313.864000", "123313.867000", "123313.869000", "123313.872000", "123313.874000", "123313.877000", "123313.879000", "123313.882000", "123313.884000", "123313.887000", "123313.889000", "123313.892000", "123313.894000", "123313.897000", "123313.899000", "123313.902000", "123313.904000", "123313.907000", "123333.858000", "123333.861000", "123333.864000", "123333.866000", "123333.869000", "123333.871000", "123333.874000", "123333.876000", "123333.879000", "123333.881000", "123333.884000", "123333.887000", "123333.889000", "123333.892000", "123333.894000", "123333.897000", "123333.899000", "123333.902000", "123333.904000", "123333.907000", "123353.859000", "123353.861000", "123353.864000", "123353.867000", "123353.869000", "123353.872000", "123353.874000", "123353.877000", "123353.879000", "123353.882000", "123353.884000", "123353.887000", "123353.889000", "123353.892000", "123353.894000", "123353.897000", "123353.899000", "123353.902000", "123353.905000", "123353.907000", "123413.859000", "123413.861000", "123413.864000", "123413.867000", "123413.869000", "123413.872000", "123413.874000", "123413.877000", "123413.879000", "123413.882000", "123413.884000", "123413.887000", "123413.889000", "123413.892000", "123413.894000", "123413.897000", "123413.900000", "123413.902000", "123413.905000", "123413.907000", "123433.859000", "123433.861000", "123433.864000", "123433.867000", "123433.869000", "123433.872000", "123433.874000", "123433.877000", "123433.879000", "123433.882000", "123433.884000", "123433.887000", "123433.889000", "123433.892000", "123433.895000", "123433.897000", "123433.899000", "123433.902000", "123433.905000", "123433.907000", "123453.859000", "123453.861000", "123453.864000", "123453.866000", "123453.869000", "123453.871000", "123453.874000", "123453.876000", "123453.879000", "123453.881000", "123453.884000", "123453.886000", "123453.889000", "123453.891000", "123453.894000", "123453.897000", "123453.899000", "123453.902000", "123453.904000", "123453.907000", "123513.858000", "123513.861000", "123513.864000", "123513.866000", "123513.869000", "123513.871000", "123513.874000", "123513.876000", "123513.879000", "123513.881000", "123513.884000", "123513.886000", "123513.889000", "123513.891000", "123513.894000", "123513.896000", "123513.899000", "123513.901000", "123513.904000", "123513.906000", "123533.858000", "123533.861000", "123533.864000", "123533.866000", "123533.869000", "123533.871000", "123533.874000", "123533.877000", "123533.879000", "123533.882000", "123533.884000", "123533.887000", "123533.889000", "123533.892000", "123533.894000", "123533.897000", "123533.899000", "123533.902000", "123533.904000", "123533.907000", "123553.859000", "123553.861000", "123553.864000", "123553.867000", "123553.869000", "123553.872000", "123553.874000", "123553.877000", "123553.879000", "123553.882000", "123553.884000", "123553.887000", "123553.889000", "123553.892000", "123553.895000", "123553.897000", "123553.900000", "123553.902000", "123553.905000", "123553.907000", "123613.859000", "123613.861000", "123613.864000", "123613.867000", "123613.869000", "123613.872000", "123613.875000", "123613.877000", "123613.880000", "123613.882000", "123613.885000", "123613.887000", "123613.890000", "123613.902000", "123613.905000", "123613.907000", "123613.910000", "123613.912000", "123613.915000", "123613.918000", "123633.858000", "123633.861000", "123633.864000", "123633.866000", "123633.869000", "123633.871000", "123633.874000", "123633.876000", "123633.879000", "123633.882000", "123633.884000", "123633.887000", "123633.889000", "123633.892000", "123633.904000", "123633.907000", "123633.909000", "123633.912000", "123633.914000", "123633.917000", "123653.858000", "123653.861000", "123653.864000", "123653.866000", "123653.869000", "123653.871000", "123653.874000", "123653.877000", "123653.879000", "123653.881000", "123653.884000", "123653.886000", "123653.889000", "123653.891000", "123653.894000", "123653.897000", "123653.899000", "123653.902000", "123653.904000", "123653.907000", "123705.402000", "123705.405000", "123705.408000", "123705.411000", "123705.413000", "123705.416000", "123705.418000", "123705.421000", "123705.423000", "123705.426000", "123705.428000", "123705.435000"],
      "InstanceCreationTime": ["123133.898000", "123133.901000", "123133.903000", "123133.906000", "123133.908000", "123133.911000", "123133.913000", "123133.916000", "123133.918000", "123133.923000", "123133.926000", "123133.929000", "123133.931000", "123133.934000", "123133.936000", "123133.939000", "123133.941000", "123133.944000", "123133.947000", "123133.953000", "123133.955000", "123153.859000", "123153.862000", "123153.864000", "123153.867000", "123153.869000", "123153.872000", "123153.874000", "123153.877000", "123153.879000", "123153.882000", "123153.884000", "123153.887000", "123153.889000", "123153.892000", "123153.894000", "123153.902000", "123153.905000", "123153.907000", "123153.910000", "123153.912000", "123153.915000", "123153.917000", "123153.920000", "123213.858000", "123213.861000", "123213.864000", "123213.866000", "123213.872000", "123213.875000", "123213.878000", "123213.880000", "123213.882000", "123213.885000", "123213.888000", "123213.890000", "123213.892000", "123213.895000", "123213.897000", "123213.900000", "123213.908000", "123213.910000", "123213.913000", "123213.915000", "123233.858000", "123233.861000", "123233.864000", "123233.866000", "123233.869000", "123233.871000", "123233.874000", "123233.876000", "123233.879000", "123233.881000", "123233.884000", "123233.886000", "123233.889000", "123233.904000", "123233.907000", "123233.910000", "123233.912000", "123233.915000", "123233.917000", "123233.920000", "123253.857000", "123253.860000", "123253.863000", "123253.865000", "123253.868000", "123253.870000", "123253.873000", "123253.875000", "123253.878000", "123253.880000", "123253.883000", "123253.885000", "123253.888000", "123253.890000", "123253.893000", "123253.895000", "123253.899000", "123253.901000", "123253.904000", "123253.907000", "123313.858000", "123313.861000", "123313.864000", "123313.867000", "123313.869000", "123313.872000", "123313.874000", "123313.877000", "123313.879000", "123313.882000", "123313.884000", "123313.887000", "123313.889000", "123313.892000", "123313.894000", "123313.897000", "123313.899000", "123313.902000", "123313.904000", "123313.907000", "123333.858000", "123333.861000", "123333.864000", "123333.866000", "123333.869000", "123333.871000", "123333.874000", "123333.876000", "123333.879000", "123333.881000", "123333.884000", "123333.887000", "123333.889000", "123333.892000", "123333.894000", "123333.897000", "123333.899000", "123333.902000", "123333.904000", "123333.907000", "123353.859000", "123353.861000", "123353.864000", "123353.867000", "123353.869000", "123353.872000", "123353.874000", "123353.877000", "123353.879000", "123353.882000", "123353.884000", "123353.887000", "123353.889000", "123353.892000", "123353.894000", "123353.897000", "123353.899000", "123353.902000", "123353.905000", "123353.907000", "123413.859000", "123413.861000", "123413.864000", "123413.867000", "123413.869000", "123413.872000", "123413.874000", "123413.877000", "123413.879000", "123413.882000", "123413.884000", "123413.887000", "123413.889000", "123413.892000", "123413.894000", "123413.897000", "123413.900000", "123413.902000", "123413.905000", "123413.907000", "123433.859000", "123433.861000", "123433.864000", "123433.867000", "123433.869000", "123433.872000", "123433.874000", "123433.877000", "123433.879000", "123433.882000", "123433.884000", "123433.887000", "123433.889000", "123433.892000", "123433.895000", "123433.897000", "123433.899000", "123433.902000", "123433.905000", "123433.907000", "123453.859000", "123453.861000", "123453.864000", "123453.866000", "123453.869000", "123453.871000", "123453.874000", "123453.876000", "123453.879000", "123453.881000", "123453.884000", "123453.886000", "123453.889000", "123453.891000", "123453.894000", "123453.897000", "123453.899000", "123453.902000", "123453.904000", "123453.907000", "123513.858000", "123513.861000", "123513.864000", "123513.866000", "123513.869000", "123513.871000", "123513.874000", "123513.876000", "123513.879000", "123513.881000", "123513.884000", "123513.886000", "123513.889000", "123513.891000", "123513.894000", "123513.896000", "123513.899000", "123513.901000", "123513.904000", "123513.906000", "123533.858000", "123533.861000", "123533.864000", "123533.866000", "123533.869000", "123533.871000", "123533.874000", "123533.877000", "123533.879000", "123533.882000", "123533.884000", "123533.887000", "123533.889000", "123533.892000", "123533.894000", "123533.897000", "123533.899000", "123533.902000", "123533.904000", "123533.907000", "123553.859000", "123553.861000", "123553.864000", "123553.867000", "123553.869000", "123553.872000", "123553.874000", "123553.877000", "123553.879000", "123553.882000", "123553.884000", "123553.887000", "123553.889000", "123553.892000", "123553.895000", "123553.897000", "123553.900000", "123553.902000", "123553.905000", "123553.907000", "123613.859000", "123613.861000", "123613.864000", "123613.867000", "123613.869000", "123613.872000", "123613.875000", "123613.877000", "123613.880000", "123613.882000", "123613.885000", "123613.887000", "123613.890000", "123613.902000", "123613.905000", "123613.907000", "123613.910000", "123613.912000", "123613.915000", "123613.918000", "123633.858000", "123633.861000", "123633.864000", "123633.866000", "123633.869000", "123633.871000", "123633.874000", "123633.876000", "123633.879000", "123633.882000", "123633.884000", "123633.887000", "123633.889000", "123633.892000", "123633.904000", "123633.907000", "123633.909000", "123633.912000", "123633.914000", "123633.917000", "123653.858000", "123653.861000", "123653.864000", "123653.866000", "123653.869000", "123653.871000", "123653.874000", "123653.877000", "123653.879000", "123653.881000", "123653.884000", "123653.886000", "123653.889000", "123653.891000", "123653.894000", "123653.897000", "123653.899000", "123653.902000", "123653.904000", "123653.907000", "123705.402000", "123705.405000", "123705.408000", "123705.411000", "123705.413000", "123705.416000", "123705.418000", "123705.421000", "123705.423000", "123705.426000", "123705.428000", "123705.435000"],
      "InstanceNumber": [1, 2, 3, 4, 5, 6, 7, 8, 9, 10, 11, 12, 13, 14, 15, 16, 17, 18, 19, 20, 21, 22, 23, 24, 25, 26, 27, 28, 29, 30, 31, 32, 33, 34, 35, 36, 37, 38, 39, 40, 41, 42, 43, 44, 45, 46, 47, 48, 49, 50, 51, 52, 53, 54, 55, 56, 57, 58, 59, 60, 61, 62, 63, 64, 65, 66, 67, 68, 69, 70, 71, 72, 73, 74, 75, 76, 77, 78, 79, 80, 81, 82, 83, 84, 85, 86, 87, 88, 89, 90, 91, 92, 93, 94, 95, 96, 97, 98, 99, 100, 101, 102, 103, 104, 105, 106, 107, 108, 109, 110, 111, 112, 113, 114, 115, 116, 117, 118, 119, 120, 121, 122, 123, 124, 125, 126, 127, 128, 129, 130, 131, 132, 133, 134, 135, 136, 137, 138, 139, 140, 141, 142, 143, 144, 145, 146, 147, 148, 149, 150, 151, 152, 153, 154, 155, 156, 157, 158, 159, 160, 161, 162, 163, 164, 165, 166, 167, 168, 169, 170, 171, 172, 173, 174, 175, 176, 177, 178, 179, 180, 181, 182, 183, 184, 185, 186, 187, 188, 189, 190, 191, 192, 193, 194, 195, 196, 197, 198, 199, 200, 201, 202, 203, 204, 205, 206, 207, 208, 209, 210, 211, 212, 213, 214, 215, 216, 217, 218, 219, 220, 221, 222, 223, 224, 225, 226, 227, 228, 229, 230, 231, 232, 233, 234, 235, 236, 237, 238, 239, 240, 241, 242, 243, 244, 245, 246, 247, 248, 249, 250, 251, 252, 253, 254, 255, 256, 257, 258, 259, 260, 261, 262, 263, 264, 265, 266, 267, 268, 269, 270, 271, 272, 273, 274, 275, 276, 277, 278, 279, 280, 281, 282, 283, 284, 285, 286, 287, 288, 289, 290, 291, 292, 293, 294, 295, 296, 297, 298, 299, 300, 301, 302, 303, 304, 305, 306, 307, 308, 309, 310, 311, 312, 313, 314, 315, 316, 317, 318, 319, 320, 321, 322, 323, 324, 325, 326, 327, 328, 329, 330, 331, 332, 333, 334, 335, 336, 337, 338, 339, 340, 341, 342, 343, 344, 345, 346, 347, 348, 349, 350, 351, 352, 353, 354, 355, 356],
      "LargestImagePixelValue": [12759, 12462, 12272, 12393, 12233, 12178, 12189, 12148, 12126, 12047, 12196, 12127, 12101, 12056, 12139, 12167, 12109, 12104, 12273, 12140, 12065, 12199, 12100, 12174, 12052, 11987, 12033, 12110, 12178, 12101, 12265, 12119, 12177, 12335, 12192, 12037, 12065, 11965, 11971, 12077, 12116, 12086, 11955, 11967, 12057, 12087, 12133, 11969, 12064, 12233, 12132, 12061, 12078, 12016, 12054, 12178, 12062, 12140, 12142, 12096, 12114, 12112, 11992, 12107, 12127, 12139, 12063, 12274, 12237, 12124, 12162, 12219, 12038, 12098, 12082, 12052, 12280, 12333, 12193, 12140, 12141, 12193, 12256, 12246, 12315, 12474, 12274, 12219, 12266, 12186, 12178, 12309, 12149, 12111, 12047, 12138, 12152, 12188, 12076, 12236, 12135, 12120, 12070, 12034, 12016, 12051, 12018, 12108, 12125, 12038, 12177, 12148, 12282, 12185, 12185, 12098, 12022, 12129, 11988, 12162, 12079, 12106, 11988, 12074, 12299, 12279, 12324, 12163, 12265, 12383, 12252, 12422, 12105, 12196, 12198, 12197, 12053, 12076, 12058, 12095, 12178, 12117, 12087, 12157, 12119, 12045, 12149, 12190, 12143, 12207, 12324, 12158, 12171, 12346, 12415, 12450, 12422, 12264, 12343, 12306, 12229, 12147, 12135, 12185, 12190, 12164, 12175, 12272, 12149, 12160, 12268, 12247, 12189, 12408, 12271, 12327, 12286, 12085, 12257, 12169, 12194, 12147, 12118, 12031, 12266, 12263, 12174, 12218, 12102, 12091, 12308, 12155, 12122, 12276, 12189, 12080, 12215, 12320, 12210, 12267, 12327, 12103, 12281, 12271, 12201, 12372, 12305, 12273, 12158, 12190, 12197, 12175, 12251, 12235, 12441, 12510, 12443, 12398, 12312, 12217, 12411, 12106, 12201, 12334, 12179, 12321, 12435, 12335, 12089, 12283, 12221, 12357, 12256, 12304, 12330, 12251, 12221, 12398, 12274, 12262, 12400, 12386, 12378, 12444, 12246, 12461, 12362, 12335, 12417, 12485, 12290, 12381, 12501, 12439, 12419, 12394, 12527, 12603, 12377, 12521, 12450, 12304, 12477, 12453, 12509, 12485, 12535, 12471, 12506, 12506, 12393, 12310, 12437, 12313, 12330, 12368, 12383, 12344, 12470, 12363, 12244, 12352, 12328, 12290, 12626, 12445, 12308, 12447, 12528, 12506, 12412, 12425, 12393, 12340, 12398, 12330, 12401, 12285, 12368, 12567, 12373, 12493, 12426, 12406, 12445, 12554, 12506, 12491, 12620, 12598, 12506, 12472, 12539, 12621, 12597, 12506, 12406, 12532, 12504, 12585, 12477, 12441, 12427, 12557, 12437, 12471, 12614, 12574, 12589, 12567, 12379, 12644, 12521, 12445, 12640, 12745, 12613, 12613, 12569, 12416, 12501, 12552, 12529, 12727, 12370, 12552, 12752, 12659, 12562, 12571, 12450, 12439, 12606, 12578, 12507, 12734],
