{
  "AcquisitionMatrixPE": 106,
  "AcquisitionNumber": 1,
  "AcquisitionTime": "12:08:6.932500",
  "BandwidthPerPixelPhaseEncode": 13.477,
  "BaseResolution": 106,
  "BodyPartExamined": "BRAIN",
  "CoilCombinationMethod": "Sum of Squares",
  "ConsistencyInfo": "N4_VE11C_LATEST_20160120",
  "ConversionSoftware": "dcm2niix",
  "ConversionSoftwareVersion": "v1.0.20220720",
  "DerivedVendorReportedEchoSpacing": 0.000700005,
  "DeviceSerialNumber": "166108",
  "DwellTime": 2.6e-06,
  "EchoTime": 0.03,
  "EchoTrainLength": 80,
  "EffectiveEchoSpacing": 0.000700005,
  "FlipAngle": 62,
  "HeudiconvVersion": "1.3.0",
  "ImageComments": "Unaliased MB4/PE3/LB",
  "ImageOrientationPatientDICOM": [1, 0, 0, 0, 0.99824, -0.0593064],
  "ImageOrientationText": "Tra>Cor(-3.4)",
  "ImageType": [
    "ORIGINAL",
    "PRIMARY",
    "M",
    "MB",
    "ND",
    "MOSAIC"
],
  "ImagingFrequency": 123.244,
  "InPlanePhaseEncodingDirectionDICOM": "COL",
  "InstitutionAddress": "Bedford Way 26,London,London,GB,WC1H 0AP",
  "InstitutionName": "University College",
  "InstitutionalDepartmentName": "Department",
  "MRAcquisitionType": "2D",
  "MagneticFieldStrength": 3,
  "Manufacturer": "Siemens",
  "ManufacturersModelName": "Prisma",
  "MatrixCoilMode": "SENSE",
  "Modality": "MR",
  "MultibandAccelerationFactor": 4,
  "NonlinearGradientCorrection": false,
  "PartialFourier": 0.75,
  "PatientPosition": "HFS",
  "PercentPhaseFOV": 100,
  "PercentSampling": 100,
  "PhaseEncodingDirection": "j-",
  "PhaseEncodingSteps": 80,
  "PhaseResolution": 1,
  "PixelBandwidth": 1815,
  "ProcedureStepDescription": "Egor^MovieProject2",
  "ProtocolName": "func-bold_task-motor_run-02",
  "PulseSequenceDetails": "%CustomerSeq%\\cmrr_mbep2d_bold",
  "ReceiveCoilActiveElements": "HEA;HEP",
  "ReceiveCoilName": "Head_32",
  "ReconMatrixPE": 106,
  "RepetitionTime": 1,
  "SAR": 0.0458485,
  "ScanOptions": "PFP\\FS\\EXT",
  "ScanningSequence": "EP",
  "SequenceName": "epfid2d1_106",
  "SequenceVariant": "SK\\SS",
  "SeriesDescription": "func-bold_task-motor_run-02",
  "SeriesNumber": 6,
  "ShimSetting": [-1474, 617, 7478, 295, 102, 112, 198, -69],
  "SliceThickness": 2,
  "SliceTiming": [0, 0.5325, 0.0875, 0.6225, 0.1775, 0.7125, 0.265, 0.8, 0.355, 0.89, 0.445, 0, 0.5325, 0.0875, 0.6225, 0.1775, 0.7125, 0.265, 0.8, 0.355, 0.89, 0.445, 0, 0.5325, 0.0875, 0.6225, 0.1775, 0.7125, 0.265, 0.8, 0.355, 0.89, 0.445, 0, 0.5325, 0.0875, 0.6225, 0.1775, 0.7125, 0.265, 0.8, 0.355, 0.89, 0.445],
  "SoftwareVersions": "syngo MR E11",
  "SpacingBetweenSlices": 2,
  "StationName": "AWP166108",
  "TaskName": "somatotopy",
  "TotalReadoutTime": 0.0735005,
  "TxRefAmp": 237.365,
  "WipMemBlock": "4847f1a7-dda4-4aaf-88b0-215c422d639e||Sequence: R016 ve11c/master r/e634e98; Dec 19 2017 11:00:25 by eja",
  "dcmmeta_affine": [
    [-2.0, 0.0, 0.0, 106.0],
    [0.0, 1.9964796304702759, -0.11861275136470795, -92.68363189697266],
    [0.0, 0.11861274391412735, 1.9964797496795654, 5.480113983154297],
    [0.0, 0.0, 0.0, 1.0]
],
  "dcmmeta_reorient_transform": [
    [0.0, -1.0, 0.0, 105.0],
    [1.0, 0.0, 0.0, 0.0],
    [0.0, 0.0, 1.0, 0.0],
    [0.0, 0.0, 0.0, 1.0]
],
  "dcmmeta_shape": [106, 106, 44, 469],
  "dcmmeta_slice_dim": 2,
  "dcmmeta_version": 0.6,
  "global": {
    "const": {
      "AcquisitionMatrix": [106, 0, 0, 106],
      "AngioFlag": "N",
      "BitsAllocated": 16,
      "BitsStored": 16,
      "BodyPartExamined": "BRAIN",
      "CardiacNumberOfImages": 1,
      "Columns": 742,
      "EchoNumbers": 1,
      "EchoTime": 30.0,
      "EchoTrainLength": 80,
      "FlipAngle": 62.0,
      "HighBit": 15,
      "ImageOrientationPatient": [1.0, 0.0, 0.0, 0.0, 0.99823982793962, -0.0593063733092],
      "ImagePositionPatient": [-742.0, -751.82725883449, 55.653305870706],
      "ImageType": [
        "ORIGINAL",
        "PRIMARY",
        "M",
        "MB",
        "ND",
        "MOSAIC"
],
      "ImagedNucleus": "1H",
      "ImagingFrequency": 123.243583,
      "InPlanePhaseEncodingDirection": "COL",
      "MRAcquisitionType": "2D",
      "MagneticFieldStrength": 3.0,
      "Manufacturer": "SIEMENS",
      "ManufacturerModelName": "Prisma",
      "Modality": "MR",
      "NominalInterval": 0,
      "NumberOfAverages": 1.0,
      "NumberOfPhaseEncodingSteps": 80,
      "PercentPhaseFieldOfView": 100.0,
      "PercentSampling": 100.0,
      "PerformedProcedureStepStartTime": "113357.979000",
      "PhotometricInterpretation": "MONOCHROME2",
      "PixelBandwidth": 1815.0,
      "PixelRepresentation": 0,
      "PixelSpacing": [2.0, 2.0],
      "ProtocolName": "func-bold_task-motor_run-02",
      "RepetitionTime": 1000.0,
      "Rows": 742,
      "SAR": 0.04584845117784,
      "SamplesPerPixel": 1,
      "ScanOptions": [
        "PFP",
        "FS",
        "EXT"
],
      "ScanningSequence": "EP",
      "SequenceName": "epfid2d1_106",
      "SequenceVariant": [
        "SK",
        "SS"
],
      "SeriesDescription": "func-bold_task-motor_run-02",
      "SeriesNumber": 6,
      "SeriesTime": "120833.892000",
      "SliceLocation": 10.967198400199,
      "SliceThickness": 2.0,
      "SmallestImagePixelValue": 0,
      "SoftwareVersions": "syngo MR E11",
      "SpacingBetweenSlices": 2.0000000658108,
      "SpecificCharacterSet": "ISO_IR 100",
      "StudyID": "1",
      "StudyTime": "113357.925000",
      "TransmitCoilName": "Body",
      "VariableFlipAngleFlag": "N",
      "WindowCenterWidthExplanation": "Algo1",
      "dBdt": 0.0},
    "slices": {}
  },
  "time": {
    "samples": {
      "AcquisitionNumber": [1, 2, 3, 4, 5, 6, 7, 8, 9, 10, 11, 12, 13, 14, 15, 16, 17, 18, 19, 20, 21, 22, 23, 24, 25, 26, 27, 28, 29, 30, 31, 32, 33, 34, 35, 36, 37, 38, 39, 40, 41, 42, 43, 44, 45, 46, 47, 48, 49, 50, 51, 52, 53, 54, 55, 56, 57, 58, 59, 60, 61, 62, 63, 64, 65, 66, 67, 68, 69, 70, 71, 72, 73, 74, 75, 76, 77, 78, 79, 80, 81, 82, 83, 84, 85, 86, 87, 88, 89, 90, 91, 92, 93, 94, 95, 96, 97, 98, 99, 100, 101, 102, 103, 104, 105, 106, 107, 108, 109, 110, 111, 112, 113, 114, 115, 116, 117, 118, 119, 120, 121, 122, 123, 124, 125, 126, 127, 128, 129, 130, 131, 132, 133, 134, 135, 136, 137, 138, 139, 140, 141, 142, 143, 144, 145, 146, 147, 148, 149, 150, 151, 152, 153, 154, 155, 156, 157, 158, 159, 160, 161, 162, 163, 164, 165, 166, 167, 168, 169, 170, 171, 172, 173, 174, 175, 176, 177, 178, 179, 180, 181, 182, 183, 184, 185, 186, 187, 188, 189, 190, 191, 192, 193, 194, 195, 196, 197, 198, 199, 200, 201, 202, 203, 204, 205, 206, 207, 208, 209, 210, 211, 212, 213, 214, 215, 216, 217, 218, 219, 220, 221, 222, 223, 224, 225, 226, 227, 228, 229, 230, 231, 232, 233, 234, 235, 236, 237, 238, 239, 240, 241, 242, 243, 244, 245, 246, 247, 248, 249, 250, 251, 252, 253, 254, 255, 256, 257, 258, 259, 260, 261, 262, 263, 264, 265, 266, 267, 268, 269, 270, 271, 272, 273, 274, 275, 276, 277, 278, 279, 280, 281, 282, 283, 284, 285, 286, 287, 288, 289, 290, 291, 292, 293, 294, 295, 296, 297, 298, 299, 300, 301, 302, 303, 304, 305, 306, 307, 308, 309, 310, 311, 312, 313, 314, 315, 316, 317, 318, 319, 320, 321, 322, 323, 324, 325, 326, 327, 328, 329, 330, 331, 332, 333, 334, 335, 336, 337, 338, 339, 340, 341, 342, 343, 344, 345, 346, 347, 348, 349, 350, 351, 352, 353, 354, 355, 356, 357, 358, 359, 360, 361, 362, 363, 364, 365, 366, 367, 368, 369, 370, 371, 372, 373, 374, 375, 376, 377, 378, 379, 380, 381, 382, 383, 384, 385, 386, 387, 388, 389, 390, 391, 392, 393, 394, 395, 396, 397, 398, 399, 400, 401, 402, 403, 404, 405, 406, 407, 408, 409, 410, 411, 412, 413, 414, 415, 416, 417, 418, 419, 420, 421, 422, 423, 424, 425, 426, 427, 428, 429, 430, 431, 432, 433, 434, 435, 436, 437, 438, 439, 440, 441, 442, 443, 444, 445, 446, 447, 448, 449, 450, 451, 452, 453, 454, 455, 456, 457, 458, 459, 460, 461, 462, 463, 464, 465, 466, 467, 468, 469],
      "AcquisitionTime": ["120806.932500", "120807.932500", "120808.932500", "120809.932500", "120810.932500", "120811.932500", "120812.932500", "120813.932500", "120814.932500", "120815.932500", "120816.932500", "120817.932500", "120818.932500", "120819.932500", "120820.932500", "120821.932500", "120822.932500", "120823.932500", "120824.932500", "120825.932500", "120826.932500", "120827.932500", "120828.932500", "120829.932500", "120830.932500", "120831.932500", "120832.932500", "120833.932500", "120834.932500", "120835.932500", "120836.932500", "120837.932500", "120838.932500", "120839.932500", "120840.932500", "120841.932500", "120842.932500", "120843.932500", "120844.932500", "120845.932500", "120846.932500", "120847.932500", "120848.932500", "120849.932500", "120850.932500", "120851.932500", "120852.932500", "120853.932500", "120854.932500", "120855.932500", "120856.932500", "120857.932500", "120858.932500", "120859.932500", "120900.932500", "120901.932500", "120902.932500", "120903.932500", "120904.932500", "120905.932500", "120906.932500", "120907.932500", "120908.932500", "120909.932500", "120910.932500", "120911.932500", "120912.932500", "120913.932500", "120914.932500", "120915.932500", "120916.932500", "120917.932500", "120918.932500", "120919.932500", "120920.932500", "120921.932500", "120922.932500", "120923.932500", "120924.932500", "120925.932500", "120926.932500", "120927.932500", "120928.932500", "120929.932500", "120930.932500", "120931.932500", "120932.932500", "120933.932500", "120934.932500", "120935.932500", "120936.932500", "120937.932500", "120938.932500", "120939.932500", "120940.932500", "120941.932500", "120942.932500", "120943.932500", "120944.932500", "120945.932500", "120946.932500", "120947.932500", "120948.932500", "120949.932500", "120950.932500", "120951.932500", "120952.932500", "120953.932500", "120954.932500", "120955.932500", "120956.932500", "120957.932500", "120958.932500", "120959.932500", "121000.932500", "121001.932500", "121002.932500", "121003.932500", "121004.932500", "121005.932500", "121006.932500", "121007.932500", "121008.932500", "121009.932500", "121010.932500", "121011.932500", "121012.932500", "121013.932500", "121014.932500", "121015.932500", "121016.932500", "121017.932500", "121018.932500", "121019.932500", "121020.932500", "121021.932500", "121022.932500", "121023.932500", "121024.932500", "121025.932500", "121026.932500", "121027.932500", "121028.932500", "121029.932500", "121030.932500", "121031.932500", "121032.932500", "121033.932500", "121034.932500", "121035.932500", "121036.932500", "121037.932500", "121038.932500", "121039.932500", "121040.932500", "121041.932500", "121042.932500", "121043.932500", "121044.932500", "121045.932500", "121046.932500", "121047.932500", "121048.932500", "121049.932500", "121050.932500", "121051.932500", "121052.932500", "121053.932500", "121054.932500", "121055.932500", "121056.932500", "121057.932500", "121058.932500", "121059.932500", "121100.932500", "121101.932500", "121102.932500", "121103.932500", "121104.932500", "121105.932500", "121106.932500", "121107.932500", "121108.932500", "121109.932500", "121110.932500", "121111.932500", "121112.932500", "121113.932500", "121114.932500", "121115.932500", "121116.932500", "121117.932500", "121118.932500", "121119.932500", "121120.932500", "121121.932500", "121122.932500", "121123.932500", "121124.932500", "121125.932500", "121126.932500", "121127.932500", "121128.932500", "121129.932500", "121130.932500", "121131.932500", "121132.932500", "121133.932500", "121134.932500", "121135.932500", "121136.932500", "121137.932500", "121138.932500", "121139.932500", "121140.932500", "121141.932500", "121142.932500", "121143.932500", "121144.932500", "121145.932500", "121146.932500", "121147.932500", "121148.932500", "121149.932500", "121150.932500", "121151.932500", "121152.932500", "121153.932500", "121154.932500", "121155.932500", "121156.932500", "121157.932500", "121158.932500", "121159.932500", "121200.932500", "121201.932500", "121202.932500", "121203.932500", "121204.932500", "121205.932500", "121206.932500", "121207.932500", "121208.932500", "121209.932500", "121210.932500", "121211.932500", "121212.932500", "121213.932500", "121214.932500", "121215.932500", "121216.932500", "121217.932500", "121218.932500", "121219.932500", "121220.932500", "121221.932500", "121222.932500", "121223.932500", "121224.932500", "121225.932500", "121226.932500", "121227.932500", "121228.932500", "121229.932500", "121230.932500", "121231.932500", "121232.932500", "121233.932500", "121234.932500", "121235.932500", "121236.932500", "121237.932500", "121238.932500", "121239.932500", "121240.932500", "121241.932500", "121242.932500", "121243.932500", "121244.932500", "121245.932500", "121246.932500", "121247.932500", "121248.932500", "121249.932500", "121250.932500", "121251.932500", "121252.932500", "121253.932500", "121254.932500", "121255.932500", "121256.932500", "121257.932500", "121258.932500", "121259.932500", "121300.932500", "121301.932500", "121302.932500", "121303.932500", "121304.932500", "121305.932500", "121306.932500", "121307.932500", "121308.932500", "121309.932500", "121310.932500", "121311.932500", "121312.932500", "121313.932500", "121314.932500", "121315.932500", "121316.932500", "121317.932500", "121318.932500", "121319.932500", "121320.932500", "121321.932500", "121322.932500", "121323.932500", "121324.932500", "121325.932500", "121326.932500", "121327.932500", "121328.932500", "121329.932500", "121330.932500", "121331.932500", "121332.932500", "121333.932500", "121334.932500", "121335.932500", "121336.932500", "121337.932500", "121338.932500", "121339.932500", "121340.932500", "121341.932500", "121342.932500", "121343.932500", "121344.932500", "121345.932500", "121346.932500", "121347.932500", "121348.932500", "121349.932500", "121350.932500", "121351.932500", "121352.932500", "121353.932500", "121354.932500", "121355.932500", "121356.932500", "121357.932500", "121358.932500", "121359.932500", "121400.932500", "121401.932500", "121402.932500", "121403.932500", "121404.932500", "121405.932500", "121406.932500", "121407.932500", "121408.932500", "121409.932500", "121410.932500", "121411.932500", "121412.932500", "121413.932500", "121414.932500", "121415.932500", "121416.932500", "121417.932500", "121418.932500", "121419.932500", "121420.932500", "121421.932500", "121422.932500", "121423.932500", "121424.932500", "121425.932500", "121426.932500", "121427.932500", "121428.932500", "121429.932500", "121430.932500", "121431.932500", "121432.932500", "121433.932500", "121434.932500", "121435.932500", "121436.932500", "121437.932500", "121438.932500", "121439.932500", "121440.932500", "121441.932500", "121442.932500", "121443.932500", "121444.932500", "121445.932500", "121446.932500", "121447.932500", "121448.932500", "121449.932500", "121450.932500", "121451.932500", "121452.932500", "121453.932500", "121454.932500", "121455.932500", "121456.932500", "121457.932500", "121458.932500", "121459.932500", "121500.932500", "121501.932500", "121502.932500", "121503.932500", "121504.932500", "121505.932500", "121506.932500", "121507.932500", "121508.932500", "121509.932500", "121510.932500", "121511.932500", "121512.932500", "121513.932500", "121514.932500", "121515.932500", "121516.932500", "121517.932500", "121518.932500", "121519.932500", "121520.932500", "121521.932500", "121522.932500", "121523.932500", "121524.932500", "121525.932500", "121526.932500", "121527.932500", "121528.932500", "121529.932500", "121530.932500", "121531.932500", "121532.932500", "121533.932500", "121534.932500", "121535.932500", "121536.932500", "121537.932500", "121538.932500", "121539.932500", "121540.932500", "121541.932500", "121542.932500", "121543.932500", "121544.932500", "121545.932500", "121546.932500", "121547.932500", "121548.932500", "121549.932500", "121550.932500", "121551.932500", "121552.932500", "121553.932500", "121554.932500"],
      "ContentTime": ["120833.894000", "120833.897000", "120833.900000", "120833.902000", "120833.904000", "120833.917000", "120833.930000", "120833.933000", "120833.935000", "120833.938000", "120833.940000", "120833.943000", "120833.945000", "120833.948000", "120833.950000", "120833.953000", "120833.955000", "120833.958000", "120833.960000", "120833.963000", "120833.965000", "120833.967000", "120833.970000", "120833.972000", "120833.975000", "120833.977000", "120853.858000", "120853.861000", "120853.864000", "120853.866000", "120853.869000", "120853.871000", "120853.873000", "120853.876000", "120853.879000", "120853.881000", "120853.883000", "120853.886000", "120853.888000", "120853.891000", "120853.893000", "120853.896000", "120853.898000", "120853.901000", "120853.903000", "120853.905000", "120913.858000", "120913.861000", "120913.864000", "120913.867000", "120913.869000", "120913.871000", "120913.874000", "120913.877000", "120913.879000", "120913.882000", "120913.884000", "120913.886000", "120913.889000", "120913.891000", "120913.894000", "120913.896000", "120913.899000", "120913.901000", "120913.904000", "120913.906000", "120933.858000", "120933.861000", "120933.864000", "120933.866000", "120933.869000", "120933.871000", "120933.873000", "120933.876000", "120933.878000", "120933.881000", "120933.883000", "120933.886000", "120933.889000", "120933.891000", "120933.893000", "120933.908000", "120933.911000", "120933.913000", "120933.915000", "120933.918000", "120953.858000", "120953.861000", "120953.863000", "120953.866000", "120953.868000", "120953.871000", "120953.873000", "120953.876000", "120953.878000", "120953.881000", "120953.883000", "120953.886000", "120953.888000", "120953.891000", "120953.893000", "120953.896000", "120953.898000", "120953.900000", "120953.903000", "120953.905000", "121013.858000", "121013.861000", "121013.863000", "121013.866000", "121013.868000", "121013.871000", "121013.873000", "121013.876000", "121013.878000", "121013.881000", "121013.883000", "121013.886000", "121013.888000", "121013.891000", "121013.893000", "121013.896000", "121013.898000", "121013.901000", "121013.903000", "121013.906000", "121033.858000", "121033.861000", "121033.863000", "121033.866000", "121033.869000", "121033.871000", "121033.873000", "121033.876000", "121033.878000", "121033.881000", "121033.883000", "121033.886000", "121033.888000", "121033.891000", "121033.893000", "121033.904000", "121033.906000", "121033.909000", "121033.911000", "121033.914000", "121053.859000", "121053.861000", "121053.864000", "121053.866000", "121053.869000", "121053.871000", "121053.874000", "121053.877000", "121053.879000", "121053.881000", "121053.884000", "121053.886000", "121053.889000", "121053.891000", "121053.894000", "121053.896000", "121053.899000", "121053.901000", "121053.904000", "121053.906000", "121113.858000", "121113.861000", "121113.863000", "121113.866000", "121113.868000", "121113.871000", "121113.873000", "121113.876000", "121113.878000", "121113.881000", "121113.883000", "121113.886000", "121113.888000", "121113.891000", "121113.893000", "121113.896000", "121113.898000", "121113.901000", "121113.903000", "121113.906000", "121133.858000", "121133.861000", "121133.863000", "121133.866000", "121133.869000", "121133.871000", "121133.873000", "121133.876000", "121133.879000", "121133.881000", "121133.883000", "121133.886000", "121133.889000", "121133.891000", "121133.893000", "121133.896000", "121133.898000", "121133.901000", "121133.903000", "121133.906000", "121153.858000", "121153.861000", "121153.863000", "121153.866000", "121153.869000", "121153.871000", "121153.873000", "121153.876000", "121153.879000", "121153.881000", "121153.883000", "121153.886000", "121153.888000", "121153.891000", "121153.893000", "121153.904000", "121153.907000", "121153.909000", "121153.911000", "121153.914000", "121213.858000", "121213.861000", "121213.863000", "121213.866000", "121213.869000", "121213.871000", "121213.873000", "121213.876000", "121213.879000", "121213.881000", "121213.884000", "121213.886000", "121213.889000", "121213.891000", "121213.893000", "121213.896000", "121213.898000", "121213.901000", "121213.903000", "121213.906000", "121233.858000", "121233.861000", "121233.863000", "121233.866000", "121233.869000", "121233.871000", "121233.873000", "121233.876000", "121233.879000", "121233.881000", "121233.883000", "121233.886000", "121233.888000", "121233.891000", "121233.893000", "121233.896000", "121233.898000", "121233.901000", "121233.903000", "121233.906000", "121253.858000", "121253.861000", "121253.863000", "121253.866000", "121253.869000", "121253.871000", "121253.873000", "121253.876000", "121253.879000", "121253.881000", "121253.883000", "121253.886000", "121253.888000", "121253.891000", "121253.893000", "121253.896000", "121253.898000", "121253.901000", "121253.903000", "121253.906000", "121313.858000", "121313.861000", "121313.863000", "121313.866000", "121313.869000", "121313.871000", "121313.873000", "121313.876000", "121313.879000", "121313.881000", "121313.883000", "121313.886000", "121313.888000", "121313.891000", "121313.893000", "121313.896000", "121313.898000", "121313.901000", "121313.903000", "121313.906000", "121333.858000", "121333.861000", "121333.864000", "121333.866000", "121333.869000", "121333.871000", "121333.874000", "121333.876000", "121333.879000", "121333.881000", "121333.884000", "121333.886000", "121333.889000", "121333.891000", "121333.894000", "121333.896000", "121333.899000", "121333.901000", "121333.903000", "121333.906000", "121353.858000", "121353.861000", "121353.863000", "121353.866000", "121353.869000", "121353.871000", "121353.874000", "121353.876000", "121353.879000", "121353.881000", "121353.884000", "121353.886000", "121353.889000", "121353.891000", "121353.894000", "121353.896000", "121353.899000", "121353.901000", "121353.904000", "121353.906000", "121413.858000", "121413.861000", "121413.864000", "121413.866000", "121413.869000", "121413.871000", "121413.873000", "121413.876000", "121413.879000", "121413.881000", "121413.884000", "121413.886000", "121413.889000", "121413.891000", "121413.894000", "121413.896000", "121413.899000", "121413.901000", "121413.904000", "121413.906000", "121433.859000", "121433.861000", "121433.864000", "121433.866000", "121433.869000", "121433.871000", "121433.874000", "121433.876000", "121433.879000", "121433.881000", "121433.883000", "121433.886000", "121433.889000", "121433.891000", "121433.893000", "121433.896000", "121433.899000", "121433.901000", "121433.903000", "121433.906000", "121453.858000", "121453.861000", "121453.864000", "121453.866000", "121453.869000", "121453.871000", "121453.874000", "121453.876000", "121453.879000", "121453.881000", "121453.884000", "121453.886000", "121453.889000", "121453.891000", "121453.894000", "121453.896000", "121453.899000", "121453.901000", "121453.904000", "121453.906000", "121513.858000", "121513.861000", "121513.863000", "121513.866000", "121513.869000", "121513.871000", "121513.874000", "121513.876000", "121513.879000", "121513.881000", "121513.883000", "121513.886000", "121513.888000", "121513.891000", "121513.893000", "121513.896000", "121513.898000", "121513.901000", "121513.903000", "121513.906000", "121533.858000", "121533.861000", "121533.864000", "121533.866000", "121533.869000", "121533.871000", "121533.874000", "121533.876000", "121533.879000", "121533.881000", "121533.884000", "121533.886000", "121533.889000", "121533.891000", "121533.894000", "121533.896000", "121533.899000", "121533.901000", "121533.904000", "121533.906000", "121553.859000", "121553.861000", "121553.864000", "121553.866000", "121553.869000", "121553.871000", "121553.874000", "121553.877000", "121553.879000", "121553.881000", "121553.884000", "121553.886000", "121553.889000", "121553.891000", "121553.894000", "121553.896000", "121553.899000", "121553.901000", "121553.904000", "121553.906000", "121556.625000", "121556.629000", "121556.632000"],
