{
  "AcquisitionMatrixPE": 106,
  "AcquisitionNumber": 1,
  "AcquisitionTime": "09:41:48.482500",
  "BandwidthPerPixelPhaseEncode": 16.846,
  "BaseResolution": 106,
  "BodyPartExamined": "BRAIN",
  "CoilCombinationMethod": "Sum of Squares",
  "ConsistencyInfo": "N4_VE11C_LATEST_20160120",
  "ConversionSoftware": "dcm2niix",
  "ConversionSoftwareVersion": "v1.0.20220720",
  "DerivedVendorReportedEchoSpacing": 0.000560012,
  "DeviceSerialNumber": "166108",
  "DwellTime": 1.8e-06,
  "EchoTime": 0.0352,
  "EchoTrainLength": 106,
  "EffectiveEchoSpacing": 0.000560012,
  "FlipAngle": 60,
  "HeudiconvVersion": "1.3.0",
  "ImageComments": "Unaliased MB4/PE3/LB",
  "ImageOrientationPatientDICOM": [1, 0, 0, 0, 1, 0],
  "ImageOrientationText": "Tra",
  "ImageType": [
    "ORIGINAL",
    "PRIMARY",
    "M",
    "MB",
    "ND",
    "MOSAIC"
],
  "ImagingFrequency": 123.244,
  "InPlanePhaseEncodingDirectionDICOM": "COL",
  "InstitutionAddress": "Bedford Way 26,London,London,GB,WC1H 0AP",
  "InstitutionName": "University College",
  "InstitutionalDepartmentName": "Department",
  "MRAcquisitionType": "2D",
  "MagneticFieldStrength": 3,
  "Manufacturer": "Siemens",
  "ManufacturersModelName": "Prisma",
  "MatrixCoilMode": "SENSE",
  "Modality": "MR",
  "MultibandAccelerationFactor": 4,
  "NonlinearGradientCorrection": false,
  "PartialFourier": 1,
  "PatientPosition": "HFS",
  "PercentPhaseFOV": 100,
  "PercentSampling": 100,
  "PhaseEncodingDirection": "j-",
  "PhaseEncodingSteps": 106,
  "PhaseResolution": 1,
  "PixelBandwidth": 2620,
  "ProcedureStepDescription": "Egor^MovieProject2",
  "ProtocolName": "task-backtothefuture_run-1",
  "PulseSequenceDetails": "%CustomerSeq%\\cmrr_mbep2d_bold",
  "ReceiveCoilActiveElements": "HEA;HEP",
  "ReceiveCoilName": "Head_32",
  "ReconMatrixPE": 106,
  "RepetitionTime": 1.5,
  "SAR": 0.0828629,
  "ScanOptions": "FS\\EXT",
  "ScanningSequence": "EP",
  "SequenceName": "epfid2d1_106",
  "SequenceVariant": "SK\\SS",
  "SeriesDescription": "task-backtothefuture_run-1",
  "SeriesNumber": 3,
  "ShimSetting": [-1562, 576, 7425, 428, -91, -38, 140, -17],
  "SliceThickness": 2,
  "SliceTiming": [0, 1.0675, 0.6575, 0.2475, 1.315, 0.905, 0.4925, 0.0825, 1.15, 0.74, 0.33, 1.3975, 0.9875, 0.575, 0.165, 1.2325, 0.8225, 0.41, 0, 1.0675, 0.6575, 0.2475, 1.315, 0.905, 0.4925, 0.0825, 1.15, 0.74, 0.33, 1.3975, 0.9875, 0.575, 0.165, 1.2325, 0.8225, 0.41, 0, 1.0675, 0.6575, 0.2475, 1.315, 0.905, 0.4925, 0.0825, 1.15, 0.74, 0.33, 1.3975, 0.9875, 0.575, 0.165, 1.2325, 0.8225, 0.41, 0, 1.0675, 0.6575, 0.2475, 1.315, 0.905, 0.4925, 0.0825, 1.15, 0.74, 0.33, 1.3975, 0.9875, 0.575, 0.165, 1.2325, 0.8225, 0.41],
  "SoftwareVersions": "syngo MR E11",
  "SpacingBetweenSlices": 2,
  "StationName": "AWP166108",
  "TaskName": "backtothefuture",
  "TotalReadoutTime": 0.0588013,
  "TxRefAmp": 231.137,
  "WipMemBlock": "79554603-125e-411b-a8bc-52402644ea26||Sequence: R016 ve11c/master r/e634e98; Dec 19 2017 11:00:25 by eja",
  "dcmmeta_affine": [
    [-2.0, 0.0, 0.0, 106.0],
    [0.0, 2.0, 0.0, -83.51807403564453],
    [0.0, 0.0, 2.0, -45.698795318603516],
    [0.0, 0.0, 0.0, 1.0]
],
  "dcmmeta_reorient_transform": [
    [0.0, -1.0, 0.0, 105.0],
    [1.0, 0.0, 0.0, 0.0],
    [0.0, 0.0, 1.0, 0.0],
    [0.0, 0.0, 0.0, 1.0]
],
  "dcmmeta_shape": [106, 106, 72, 1360],
  "dcmmeta_slice_dim": 2,
  "dcmmeta_version": 0.6,
  "global": {
    "const": {
      "AcquisitionMatrix": [106, 0, 0, 106],
      "AngioFlag": "N",
      "BitsAllocated": 16,
      "BitsStored": 16,
      "BodyPartExamined": "BRAIN",
      "CardiacNumberOfImages": 1,
      "Columns": 954,
      "EchoNumbers": 1,
      "EchoTime": 35.2,
      "EchoTrainLength": 106,
      "FlipAngle": 60.0,
      "HighBit": 15,
      "ImageOrientationPatient": [1.0, 0.0, 0.0, 0.0, 1.0, 0.0],
      "ImagePositionPatient": [-954.0, -974.4819278717, -45.698795318604],
      "ImageType": [
        "ORIGINAL",
        "PRIMARY",
        "M",
        "MB",
        "ND",
        "MOSAIC"
],
      "ImagedNucleus": "1H",
      "ImagingFrequency": 123.243669,
      "InPlanePhaseEncodingDirection": "COL",
      "MRAcquisitionType": "2D",
      "MagneticFieldStrength": 3.0,
      "Manufacturer": "SIEMENS",
      "ManufacturerModelName": "Prisma",
      "Modality": "MR",
      "NominalInterval": 0,
      "NumberOfAverages": 1.0,
      "NumberOfPhaseEncodingSteps": 106,
      "PercentPhaseFieldOfView": 100.0,
      "PercentSampling": 100.0,
      "PerformedProcedureStepStartTime": "091113.935000",
      "PhotometricInterpretation": "MONOCHROME2",
      "PixelBandwidth": 2620.0,
      "PixelRepresentation": 0,
      "PixelSpacing": [2.0, 2.0],
      "ProtocolName": "task-backtothefuture_run-1",
      "RepetitionTime": 1500.0,
      "Rows": 954,
      "SAR": 0.08286288420609,
      "SamplesPerPixel": 1,
      "ScanOptions": [
        "FS",
        "EXT"
],
      "ScanningSequence": "EP",
      "SequenceName": "epfid2d1_106",
      "SequenceVariant": [
        "SK",
        "SS"
],
      "SeriesDescription": "task-backtothefuture_run-1",
      "SeriesNumber": 3,
      "SeriesTime": "094240.041000",
      "SliceLocation": -45.698795318604,
      "SliceThickness": 2.0,
      "SmallestImagePixelValue": 0,
      "SoftwareVersions": "syngo MR E11",
      "SpacingBetweenSlices": 2.0000000537281,
      "SpecificCharacterSet": "ISO_IR 100",
      "StudyID": "1",
      "StudyTime": "091113.875000",
      "TransmitCoilName": "Body",
      "VariableFlipAngleFlag": "N",
      "WindowCenterWidthExplanation": "Algo1",
      "dBdt": 0.0},
    "slices": {}
  },
  "time": {
    "samples": {
      "AcquisitionNumber": [1, 2, 3, 4, 5, 6, 7, 8, 9, 10, 11, 12, 13, 14, 15, 16, 17, 18, 19, 20, 21, 22, 23, 24, 25, 26, 27, 28, 29, 30, 31, 32, 33, 34, 35, 36, 37, 38, 39, 40, 41, 42, 43, 44, 45, 46, 47, 48, 49, 50, 51, 52, 53, 54, 55, 56, 57, 58, 59, 60, 61, 62, 63, 64, 65, 66, 67, 68, 69, 70, 71, 72, 73, 74, 75, 76, 77, 78, 79, 80, 81, 82, 83, 84, 85, 86, 87, 88, 89, 90, 91, 92, 93, 94, 95, 96, 97, 98, 99, 100, 101, 102, 103, 104, 105, 106, 107, 108, 109, 110, 111, 112, 113, 114, 115, 116, 117, 118, 119, 120, 121, 122, 123, 124, 125, 126, 127, 128, 129, 130, 131, 132, 133, 134, 135, 136, 137, 138, 139, 140, 141, 142, 143, 144, 145, 146, 147, 148, 149, 150, 151, 152, 153, 154, 155, 156, 157, 158, 159, 160, 161, 162, 163, 164, 165, 166, 167, 168, 169, 170, 171, 172, 173, 174, 175, 176, 177, 178, 179, 180, 181, 182, 183, 184, 185, 186, 187, 188, 189, 190, 191, 192, 193, 194, 195, 196, 197, 198, 199, 200, 201, 202, 203, 204, 205, 206, 207, 208, 209, 210, 211, 212, 213, 214, 215, 216, 217, 218, 219, 220, 221, 222, 223, 224, 225, 226, 227, 228, 229, 230, 231, 232, 233, 234, 235, 236, 237, 238, 239, 240, 241, 242, 243, 244, 245, 246, 247, 248, 249, 250, 251, 252, 253, 254, 255, 256, 257, 258, 259, 260, 261, 262, 263, 264, 265, 266, 267, 268, 269, 270, 271, 272, 273, 274, 275, 276, 277, 278, 279, 280, 281, 282, 283, 284, 285, 286, 287, 288, 289, 290, 291, 292, 293, 294, 295, 296, 297, 298, 299, 300, 301, 302, 303, 304, 305, 306, 307, 308, 309, 310, 311, 312, 313, 314, 315, 316, 317, 318, 319, 320, 321, 322, 323, 324, 325, 326, 327, 328, 329, 330, 331, 332, 333, 334, 335, 336, 337, 338, 339, 340, 341, 342, 343, 344, 345, 346, 347, 348, 349, 350, 351, 352, 353, 354, 355, 356, 357, 358, 359, 360, 361, 362, 363, 364, 365, 366, 367, 368, 369, 370, 371, 372, 373, 374, 375, 376, 377, 378, 379, 380, 381, 382, 383, 384, 385, 386, 387, 388, 389, 390, 391, 392, 393, 394, 395, 396, 397, 398, 399, 400, 401, 402, 403, 404, 405, 406, 407, 408, 409, 410, 411, 412, 413, 414, 415, 416, 417, 418, 419, 420, 421, 422, 423, 424, 425, 426, 427, 428, 429, 430, 431, 432, 433, 434, 435, 436, 437, 438, 439, 440, 441, 442, 443, 444, 445, 446, 447, 448, 449, 450, 451, 452, 453, 454, 455, 456, 457, 458, 459, 460, 461, 462, 463, 464, 465, 466, 467, 468, 469, 470, 471, 472, 473, 474, 475, 476, 477, 478, 479, 480, 481, 482, 483, 484, 485, 486, 487, 488, 489, 490, 491, 492, 493, 494, 495, 496, 497, 498, 499, 500, 501, 502, 503, 504, 505, 506, 507, 508, 509, 510, 511, 512, 513, 514, 515, 516, 517, 518, 519, 520, 521, 522, 523, 524, 525, 526, 527, 528, 529, 530, 531, 532, 533, 534, 535, 536, 537, 538, 539, 540, 541, 542, 543, 544, 545, 546, 547, 548, 549, 550, 551, 552, 553, 554, 555, 556, 557, 558, 559, 560, 561, 562, 563, 564, 565, 566, 567, 568, 569, 570, 571, 572, 573, 574, 575, 576, 577, 578, 579, 580, 581, 582, 583, 584, 585, 586, 587, 588, 589, 590, 591, 592, 593, 594, 595, 596, 597, 598, 599, 600, 601, 602, 603, 604, 605, 606, 607, 608, 609, 610, 611, 612, 613, 614, 615, 616, 617, 618, 619, 620, 621, 622, 623, 624, 625, 626, 627, 628, 629, 630, 631, 632, 633, 634, 635, 636, 637, 638, 639, 640, 641, 642, 643, 644, 645, 646, 647, 648, 649, 650, 651, 652, 653, 654, 655, 656, 657, 658, 659, 660, 661, 662, 663, 664, 665, 666, 667, 668, 669, 670, 671, 672, 673, 674, 675, 676, 677, 678, 679, 680, 681, 682, 683, 684, 685, 686, 687, 688, 689, 690, 691, 692, 693, 694, 695, 696, 697, 698, 699, 700, 701, 702, 703, 704, 705, 706, 707, 708, 709, 710, 711, 712, 713, 714, 715, 716, 717, 718, 719, 720, 721, 722, 723, 724, 725, 726, 727, 728, 729, 730, 731, 732, 733, 734, 735, 736, 737, 738, 739, 740, 741, 742, 743, 744, 745, 746, 747, 748, 749, 750, 751, 752, 753, 754, 755, 756, 757, 758, 759, 760, 761, 762, 763, 764, 765, 766, 767, 768, 769, 770, 771, 772, 773, 774, 775, 776, 777, 778, 779, 780, 781, 782, 783, 784, 785, 786, 787, 788, 789, 790, 791, 792, 793, 794, 795, 796, 797, 798, 799, 800, 801, 802, 803, 804, 805, 806, 807, 808, 809, 810, 811, 812, 813, 814, 815, 816, 817, 818, 819, 820, 821, 822, 823, 824, 825, 826, 827, 828, 829, 830, 831, 832, 833, 834, 835, 836, 837, 838, 839, 840, 841, 842, 843, 844, 845, 846, 847, 848, 849, 850, 851, 852, 853, 854, 855, 856, 857, 858, 859, 860, 861, 862, 863, 864, 865, 866, 867, 868, 869, 870, 871, 872, 873, 874, 875, 876, 877, 878, 879, 880, 881, 882, 883, 884, 885, 886, 887, 888, 889, 890, 891, 892, 893, 894, 895, 896, 897, 898, 899, 900, 901, 902, 903, 904, 905, 906, 907, 908, 909, 910, 911, 912, 913, 914, 915, 916, 917, 918, 919, 920, 921, 922, 923, 924, 925, 926, 927, 928, 929, 930, 931, 932, 933, 934, 935, 936, 937, 938, 939, 940, 941, 942, 943, 944, 945, 946, 947, 948, 949, 950, 951, 952, 953, 954, 955, 956, 957, 958, 959, 960, 961, 962, 963, 964, 965, 966, 967, 968, 969, 970, 971, 972, 973, 974, 975, 976, 977, 978, 979, 980, 981, 982, 983, 984, 985, 986, 987, 988, 989, 990, 991, 992, 993, 994, 995, 996, 997, 998, 999, 1000, 1001, 1002, 1003, 1004, 1005, 1006, 1007, 1008, 1009, 1010, 1011, 1012, 1013, 1014, 1015, 1016, 1017, 1018, 1019, 1020, 1021, 1022, 1023, 1024, 1025, 1026, 1027, 1028, 1029, 1030, 1031, 1032, 1033, 1034, 1035, 1036, 1037, 1038, 1039, 1040, 1041, 1042, 1043, 1044, 1045, 1046, 1047, 1048, 1049, 1050, 1051, 1052, 1053, 1054, 1055, 1056, 1057, 1058, 1059, 1060, 1061, 1062, 1063, 1064, 1065, 1066, 1067, 1068, 1069, 1070, 1071, 1072, 1073, 1074, 1075, 1076, 1077, 1078, 1079, 1080, 1081, 1082, 1083, 1084, 1085, 1086, 1087, 1088, 1089, 1090, 1091, 1092, 1093, 1094, 1095, 1096, 1097, 1098, 1099, 1100, 1101, 1102, 1103, 1104, 1105, 1106, 1107, 1108, 1109, 1110, 1111, 1112, 1113, 1114, 1115, 1116, 1117, 1118, 1119, 1120, 1121, 1122, 1123, 1124, 1125, 1126, 1127, 1128, 1129, 1130, 1131, 1132, 1133, 1134, 1135, 1136, 1137, 1138, 1139, 1140, 1141, 1142, 1143, 1144, 1145, 1146, 1147, 1148, 1149, 1150, 1151, 1152, 1153, 1154, 1155, 1156, 1157, 1158, 1159, 1160, 1161, 1162, 1163, 1164, 1165, 1166, 1167, 1168, 1169, 1170, 1171, 1172, 1173, 1174, 1175, 1176, 1177, 1178, 1179, 1180, 1181, 1182, 1183, 1184, 1185, 1186, 1187, 1188, 1189, 1190, 1191, 1192, 1193, 1194, 1195, 1196, 1197, 1198, 1199, 1200, 1201, 1202, 1203, 1204, 1205, 1206, 1207, 1208, 1209, 1210, 1211, 1212, 1213, 1214, 1215, 1216, 1217, 1218, 1219, 1220, 1221, 1222, 1223, 1224, 1225, 1226, 1227, 1228, 1229, 1230, 1231, 1232, 1233, 1234, 1235, 1236, 1237, 1238, 1239, 1240, 1241, 1242, 1243, 1244, 1245, 1246, 1247, 1248, 1249, 1250, 1251, 1252, 1253, 1254, 1255, 1256, 1257, 1258, 1259, 1260, 1261, 1262, 1263, 1264, 1265, 1266, 1267, 1268, 1269, 1270, 1271, 1272, 1273, 1274, 1275, 1276, 1277, 1278, 1279, 1280, 1281, 1282, 1283, 1284, 1285, 1286, 1287, 1288, 1289, 1290, 1291, 1292, 1293, 1294, 1295, 1296, 1297, 1298, 1299, 1300, 1301, 1302, 1303, 1304, 1305, 1306, 1307, 1308, 1309, 1310, 1311, 1312, 1313, 1314, 1315, 1316, 1317, 1318, 1319, 1320, 1321, 1322, 1323, 1324, 1325, 1326, 1327, 1328, 1329, 1330, 1331, 1332, 1333, 1334, 1335, 1336, 1337, 1338, 1339, 1340, 1341, 1342, 1343, 1344, 1345, 1346, 1347, 1348, 1349, 1350, 1351, 1352, 1353, 1354, 1355, 1356, 1357, 1358, 1359, 1360],
      "AcquisitionTime": ["094148.482500", "094149.982500", "094151.482500", "094152.982500", "094154.482500", "094155.982500", "094157.482500", "094158.982500", "094200.482500", "094201.982500", "094203.482500", "094204.982500", "094206.482500", "094207.982500", "094209.482500", "094210.982500", "094212.482500", "094213.982500", "094215.482500", "094216.982500", "094218.482500", "094219.982500", "094221.482500", "094222.982500", "094224.482500", "094225.982500", "094227.482500", "094228.982500", "094230.482500", "094231.982500", "094233.482500", "094234.982500", "094236.482500", "094237.982500", "094239.482500", "094240.982500", "094242.482500", "094243.982500", "094245.482500", "094246.982500", "094248.482500", "094249.982500", "094251.482500", "094252.982500", "094254.482500", "094255.982500", "094257.482500", "094258.982500", "094300.482500", "094301.982500", "094303.482500", "094304.982500", "094306.482500", "094307.982500", "094309.482500", "094310.982500", "094312.482500", "094313.982500", "094315.482500", "094316.982500", "094318.482500", "094319.982500", "094321.482500", "094322.982500", "094324.482500", "094325.982500", "094327.482500", "094328.982500", "094330.482500", "094331.982500", "094333.482500", "094334.982500", "094336.482500", "094337.982500", "094339.482500", "094340.982500", "094342.482500", "094343.982500", "094345.482500", "094346.982500", "094348.482500", "094349.982500", "094351.482500", "094352.982500", "094354.482500", "094355.982500", "094357.482500", "094358.982500", "094400.482500", "094401.982500", "094403.482500", "094404.982500", "094406.482500", "094407.982500", "094409.482500", "094410.982500", "094412.482500", "094413.982500", "094415.482500", "094416.982500", "094418.482500", "094419.982500", "094421.482500", "094422.982500", "094424.482500", "094425.982500", "094427.482500", "094428.982500", "094430.482500", "094431.982500", "094433.482500", "094434.982500", "094436.482500", "094437.982500", "094439.482500", "094440.982500", "094442.482500", "094443.982500", "094445.482500", "094446.982500", "094448.482500", "094449.982500", "094451.482500", "094452.982500", "094454.482500", "094455.982500", "094457.482500", "094458.982500", "094500.482500", "094501.982500", "094503.482500", "094504.982500", "094506.482500", "094507.982500", "094509.482500", "094510.982500", "094512.482500", "094513.982500", "094515.482500", "094516.982500", "094518.482500", "094519.982500", "094521.482500", "094522.982500", "094524.482500", "094525.982500", "094527.482500", "094528.982500", "094530.482500", "094531.982500", "094533.482500", "094534.982500", "094536.482500", "094537.982500", "094539.482500", "094540.982500", "094542.482500", "094543.982500", "094545.482500", "094546.982500", "094548.482500", "094549.982500", "094551.482500", "094552.982500", "094554.482500", "094555.982500", "094557.482500", "094558.982500", "094600.482500", "094601.982500", "094603.482500", "094604.982500", "094606.482500", "094607.982500", "094609.482500", "094610.982500", "094612.482500", "094613.982500", "094615.482500", "094616.982500", "094618.482500", "094619.982500", "094621.482500", "094622.982500", "094624.482500", "094625.982500", "094627.482500", "094628.982500", "094630.482500", "094631.982500", "094633.482500", "094634.982500", "094636.482500", "094637.982500", "094639.482500", "094640.982500", "094642.482500", "094643.982500", "094645.482500", "094646.982500", "094648.482500", "094649.982500", "094651.482500", "094652.982500", "094654.482500", "094655.982500", "094657.482500", "094658.982500", "094700.482500", "094701.982500", "094703.482500", "094704.982500", "094706.482500", "094707.982500", "094709.482500", "094710.982500", "094712.482500", "094713.982500", "094715.482500", "094716.982500", "094718.482500", "094719.982500", "094721.482500", "094722.982500", "094724.482500", "094725.982500", "094727.482500", "094728.982500", "094730.482500", "094731.982500", "094733.482500", "094734.982500", "094736.482500", "094737.982500", "094739.482500", "094740.982500", "094742.482500", "094743.982500", "094745.482500", "094746.982500", "094748.482500", "094749.982500", "094751.482500", "094752.982500", "094754.482500", "094755.982500", "094757.482500", "094758.982500", "094800.482500", "094801.982500", "094803.482500", "094804.982500", "094806.482500", "094807.982500", "094809.482500", "094810.982500", "094812.482500", "094813.982500", "094815.482500", "094816.982500", "094818.482500", "094819.982500", "094821.482500", "094822.982500", "094824.482500", "094825.982500", "094827.482500", "094828.982500", "094830.482500", "094831.982500", "094833.482500", "094834.982500", "094836.482500", "094837.982500", "094839.482500", "094840.982500", "094842.482500", "094843.982500", "094845.482500", "094846.982500", "094848.482500", "094849.982500", "094851.482500", "094852.982500", "094854.482500", "094855.982500", "094857.482500", "094858.982500", "094900.482500", "094901.982500", "094903.482500", "094904.982500", "094906.482500", "094907.982500", "094909.482500", "094910.982500", "094912.482500", "094913.982500", "094915.482500", "094916.982500", "094918.482500", "094919.982500", "094921.482500", "094922.982500", "094924.482500", "094925.982500", "094927.482500", "094928.982500", "094930.482500", "094931.982500", "094933.482500", "094934.982500", "094936.482500", "094937.982500", "094939.482500", "094940.982500", "094942.482500", "094943.982500", "094945.482500", "094946.982500", "094948.482500", "094949.982500", "094951.482500", "094952.982500", "094954.482500", "094955.982500", "094957.482500", "094958.982500", "095000.482500", "095001.982500", "095003.482500", "095004.982500", "095006.482500", "095007.982500", "095009.482500", "095010.982500", "095012.482500", "095013.982500", "095015.482500", "095016.982500", "095018.482500", "095019.982500", "095021.482500", "095022.982500", "095024.482500", "095025.982500", "095027.482500", "095028.982500", "095030.482500", "095031.982500", "095033.482500", "095034.982500", "095036.482500", "095037.982500", "095039.482500", "095040.982500", "095042.482500", "095043.982500", "095045.482500", "095046.982500", "095048.482500", "095049.982500", "095051.482500", "095052.982500", "095054.482500", "095055.982500", "095057.482500", "095058.982500", "095100.482500", "095101.982500", "095103.482500", "095104.982500", "095106.482500", "095107.982500", "095109.482500", "095110.982500", "095112.482500", "095113.982500", "095115.482500", "095116.982500", "095118.482500", "095119.982500", "095121.482500", "095122.982500", "095124.482500", "095125.982500", "095127.482500", "095128.982500", "095130.482500", "095131.982500", "095133.482500", "095134.982500", "095136.482500", "095137.982500", "095139.482500", "095140.982500", "095142.482500", "095143.982500", "095145.482500", "095146.982500", "095148.482500", "095149.982500", "095151.482500", "095152.982500", "095154.482500", "095155.982500", "095157.482500", "095158.982500", "095200.482500", "095201.982500", "095203.482500", "095204.982500", "095206.482500", "095207.982500", "095209.482500", "095210.982500", "095212.482500", "095213.982500", "095215.482500", "095216.982500", "095218.482500", "095219.982500", "095221.482500", "095222.982500", "095224.482500", "095225.982500", "095227.482500", "095228.982500", "095230.482500", "095231.982500", "095233.482500", "095234.982500", "095236.482500", "095237.982500", "095239.482500", "095240.982500", "095242.482500", "095243.982500", "095245.482500", "095246.982500", "095248.482500", "095249.982500", "095251.482500", "095252.982500", "095254.482500", "095255.982500", "095257.482500", "095258.982500", "095300.482500", "095301.982500", "095303.482500", "095304.982500", "095306.482500", "095307.982500", "095309.482500", "095310.982500", "095312.482500", "095313.982500", "095315.482500", "095316.982500", "095318.482500", "095319.982500", "095321.482500", "095322.982500", "095324.482500", "095325.982500", "095327.482500", "095328.982500", "095330.482500", "095331.982500", "095333.482500", "095334.982500", "095336.482500", "095337.982500", "095339.482500", "095340.982500", "095342.482500", "095343.982500", "095345.482500", "095346.982500", "095348.482500", "095349.982500", "095351.482500", "095352.982500", "095354.482500", "095355.982500", "095357.482500", "095358.982500", "095400.482500", "095401.982500", "095403.482500", "095404.982500", "095406.482500", "095407.982500", "095409.482500", "095410.982500", "095412.482500", "095413.982500", "095415.482500", "095416.982500", "095418.482500", "095419.982500", "095421.482500", "095422.982500", "095424.482500", "095425.982500", "095427.482500", "095428.982500", "095430.482500", "095431.982500", "095433.482500", "095434.982500", "095436.482500", "095437.982500", "095439.482500", "095440.982500", "095442.482500", "095443.982500", "095445.482500", "095446.982500", "095448.482500", "095449.982500", "095451.482500", "095452.982500", "095454.482500", "095455.982500", "095457.482500", "095458.982500", "095500.482500", "095501.982500", "095503.482500", "095504.982500", "095506.482500", "095507.982500", "095509.482500", "095510.982500", "095512.482500", "095513.982500", "095515.482500", "095516.982500", "095518.482500", "095519.982500", "095521.482500", "095522.982500", "095524.482500", "095525.982500", "095527.482500", "095528.982500", "095530.482500", "095531.982500", "095533.482500", "095534.982500", "095536.482500", "095537.982500", "095539.482500", "095540.982500", "095542.482500", "095543.982500", "095545.482500", "095546.982500", "095548.482500", "095549.982500", "095551.482500", "095552.982500", "095554.482500", "095555.982500", "095557.482500", "095558.982500", "095600.482500", "095601.982500", "095603.482500", "095604.982500", "095606.482500", "095607.982500", "095609.482500", "095610.982500", "095612.482500", "095613.982500", "095615.482500", "095616.982500", "095618.482500", "095619.982500", "095621.482500", "095622.982500", "095624.482500", "095625.982500", "095627.482500", "095628.982500", "095630.482500", "095631.982500", "095633.482500", "095634.982500", "095636.482500", "095637.982500", "095639.482500", "095640.982500", "095642.482500", "095643.982500", "095645.482500", "095646.982500", "095648.482500", "095649.982500", "095651.482500", "095652.982500", "095654.482500", "095655.982500", "095657.482500", "095658.982500", "095700.482500", "095701.982500", "095703.482500", "095704.982500", "095706.482500", "095707.982500", "095709.482500", "095710.982500", "095712.482500", "095713.982500", "095715.482500", "095716.982500", "095718.482500", "095719.982500", "095721.482500", "095722.982500", "095724.482500", "095725.982500", "095727.482500", "095728.982500", "095730.482500", "095731.982500", "095733.482500", "095734.982500", "095736.482500", "095737.982500", "095739.482500", "095740.982500", "095742.482500", "095743.982500", "095745.482500", "095746.982500", "095748.482500", "095749.982500", "095751.482500", "095752.982500", "095754.482500", "095755.982500", "095757.482500", "095758.982500", "095800.482500", "095801.982500", "095803.482500", "095804.982500", "095806.482500", "095807.982500", "095809.482500", "095810.982500", "095812.482500", "095813.982500", "095815.482500", "095816.982500", "095818.482500", "095819.982500", "095821.482500", "095822.982500", "095824.482500", "095825.982500", "095827.482500", "095828.982500", "095830.482500", "095831.982500", "095833.482500", "095834.982500", "095836.482500", "095837.982500", "095839.482500", "095840.982500", "095842.482500", "095843.982500", "095845.482500", "095846.982500", "095848.482500", "095849.982500", "095851.482500", "095852.982500", "095854.482500", "095855.982500", "095857.482500", "095858.982500", "095900.482500", "095901.982500", "095903.482500", "095904.982500", "095906.482500", "095907.982500", "095909.482500", "095910.982500", "095912.482500", "095913.982500", "095915.482500", "095916.982500", "095918.482500", "095919.982500", "095921.482500", "095922.982500", "095924.482500", "095925.982500", "095927.482500", "095928.982500", "095930.482500", "095931.982500", "095933.482500", "095934.982500", "095936.482500", "095937.982500", "095939.482500", "095940.982500", "095942.482500", "095943.982500", "095945.482500", "095946.982500", "095948.482500", "095949.982500", "095951.482500", "095952.982500", "095954.482500", "095955.982500", "095957.482500", "095958.982500", "100000.482500", "100001.982500", "100003.482500", "100004.982500", "100006.482500", "100007.982500", "100009.482500", "100010.982500", "100012.482500", "100013.982500", "100015.482500", "100016.982500", "100018.482500", "100019.982500", "100021.482500", "100022.982500", "100024.482500", "100025.982500", "100027.482500", "100028.982500", "100030.482500", "100031.982500", "100033.482500", "100034.982500", "100036.482500", "100037.982500", "100039.482500", "100040.982500", "100042.482500", "100043.982500", "100045.482500", "100046.982500", "100048.482500", "100049.982500", "100051.482500", "100052.982500", "100054.482500", "100055.982500", "100057.482500", "100058.982500", "100100.482500", "100101.982500", "100103.482500", "100104.982500", "100106.482500", "100107.982500", "100109.482500", "100110.982500", "100112.482500", "100113.982500", "100115.482500", "100116.982500", "100118.482500", "100119.982500", "100121.482500", "100122.982500", "100124.482500", "100125.982500", "100127.482500", "100128.982500", "100130.482500", "100131.982500", "100133.482500", "100134.982500", "100136.482500", "100137.982500", "100139.482500", "100140.982500", "100142.482500", "100143.982500", "100145.482500", "100146.982500", "100148.482500", "100149.982500", "100151.482500", "100152.982500", "100154.482500", "100155.982500", "100157.482500", "100158.982500", "100200.482500", "100201.982500", "100203.482500", "100204.982500", "100206.482500", "100207.982500", "100209.482500", "100210.982500", "100212.482500", "100213.982500", "100215.482500", "100216.982500", "100218.482500", "100219.982500", "100221.482500", "100222.982500", "100224.482500", "100225.982500", "100227.482500", "100228.982500", "100230.482500", "100231.982500", "100233.482500", "100234.982500", "100236.482500", "100237.982500", "100239.482500", "100240.982500", "100242.482500", "100243.982500", "100245.482500", "100246.982500", "100248.482500", "100249.982500", "100251.482500", "100252.982500", "100254.482500", "100255.982500", "100257.482500", "100258.982500", "100300.482500", "100301.982500", "100303.482500", "100304.982500", "100306.482500", "100307.982500", "100309.482500", "100310.982500", "100312.482500", "100313.982500", "100315.482500", "100316.982500", "100318.482500", "100319.982500", "100321.482500", "100322.982500", "100324.482500", "100325.982500", "100327.482500", "100328.982500", "100330.482500", "100331.982500", "100333.482500", "100334.982500", "100336.482500", "100337.982500", "100339.482500", "100340.982500", "100342.482500", "100343.982500", "100345.482500", "100346.982500", "100348.482500", "100349.982500", "100351.482500", "100352.982500", "100354.482500", "100355.982500", "100357.482500", "100358.982500", "100400.482500", "100401.982500", "100403.482500", "100404.982500", "100406.482500", "100407.982500", "100409.482500", "100410.982500", "100412.482500", "100413.982500", "100415.482500", "100416.982500", "100418.482500", "100419.982500", "100421.482500", "100422.982500", "100424.482500", "100425.982500", "100427.482500", "100428.982500", "100430.482500", "100431.982500", "100433.482500", "100434.982500", "100436.482500", "100437.982500", "100439.482500", "100440.982500", "100442.482500", "100443.982500", "100445.482500", "100446.982500", "100448.482500", "100449.982500", "100451.482500", "100452.982500", "100454.482500", "100455.982500", "100457.482500", "100458.982500", "100500.482500", "100501.982500", "100503.482500", "100504.982500", "100506.482500", "100507.982500", "100509.482500", "100510.982500", "100512.482500", "100513.982500", "100515.482500", "100516.982500", "100518.482500", "100519.982500", "100521.482500", "100522.982500", "100524.482500", "100525.982500", "100527.482500", "100528.982500", "100530.482500", "100531.982500", "100533.482500", "100534.982500", "100536.482500", "100537.982500", "100539.482500", "100540.982500", "100542.482500", "100543.982500", "100545.482500", "100546.982500", "100548.482500", "100549.982500", "100551.482500", "100552.982500", "100554.482500", "100555.982500", "100557.482500", "100558.982500", "100600.482500", "100601.982500", "100603.482500", "100604.982500", "100606.482500", "100607.982500", "100609.482500", "100610.982500", "100612.482500", "100613.982500", "100615.482500", "100616.982500", "100618.482500", "100619.982500", "100621.482500", "100622.982500", "100624.482500", "100625.982500", "100627.482500", "100628.982500", "100630.482500", "100631.982500", "100633.482500", "100634.982500", "100636.482500", "100637.982500", "100639.482500", "100640.982500", "100642.482500", "100643.982500", "100645.482500", "100646.982500", "100648.482500", "100649.982500", "100651.482500", "100652.982500", "100654.482500", "100655.982500", "100657.482500", "100658.982500", "100700.482500", "100701.982500", "100703.482500", "100704.982500", "100706.482500", "100707.982500", "100709.482500", "100710.982500", "100712.482500", "100713