{
  "AcquisitionMatrixPE": 106,
  "AcquisitionNumber": 1,
  "AcquisitionTime": "14:03:8.582500",
  "BandwidthPerPixelPhaseEncode": 16.846,
  "BaseResolution": 106,
  "BodyPartExamined": "BRAIN",
  "CoilCombinationMethod": "Sum of Squares",
  "ConsistencyInfo": "N4_VE11C_LATEST_20160120",
  "ConversionSoftware": "dcm2niix",
  "ConversionSoftwareVersion": "v1.0.20220720",
  "DerivedVendorReportedEchoSpacing": 0.000560012,
  "DeviceSerialNumber": "166108",
  "DwellTime": 1.8e-06,
  "EchoTime": 0.0352,
  "EchoTrainLength": 106,
  "EffectiveEchoSpacing": 0.000560012,
  "FlipAngle": 60,
  "HeudiconvVersion": "1.3.0",
  "ImageComments": "Unaliased MB4/PE3/LB",
  "ImageOrientationPatientDICOM": [1, 0, 0, 0, 1, 0],
  "ImageOrientationText": "Tra",
  "ImageType": [
    "ORIGINAL",
    "PRIMARY",
    "M",
    "MB",
    "ND",
    "MOSAIC"
],
  "ImagingFrequency": 123.244,
  "InPlanePhaseEncodingDirectionDICOM": "COL",
  "InstitutionAddress": "Bedford Way 26,London,London,GB,WC1H 0AP",
  "InstitutionName": "University College",
  "InstitutionalDepartmentName": "Department",
  "MRAcquisitionType": "2D",
  "MagneticFieldStrength": 3,
  "Manufacturer": "Siemens",
  "ManufacturersModelName": "Prisma",
  "MatrixCoilMode": "SENSE",
  "Modality": "MR",
  "MultibandAccelerationFactor": 4,
  "NonlinearGradientCorrection": false,
  "PartialFourier": 1,
  "PatientPosition": "HFS",
  "PercentPhaseFOV": 100,
  "PercentSampling": 100,
  "PhaseEncodingDirection": "j-",
  "PhaseEncodingSteps": 106,
  "PhaseResolution": 1,
  "PixelBandwidth": 2620,
  "ProcedureStepDescription": "Egor^MovieProject2",
  "ProtocolName": "task-backtothefuture_run-1",
  "PulseSequenceDetails": "%CustomerSeq%\\cmrr_mbep2d_bold",
  "ReceiveCoilActiveElements": "HEA;HEP",
  "ReceiveCoilName": "Head_32",
  "ReconMatrixPE": 106,
  "RepetitionTime": 1.5,
  "SAR": 0.0720154,
  "ScanOptions": "FS\\EXT",
  "ScanningSequence": "EP",
  "SequenceName": "epfid2d1_106",
  "SequenceVariant": "SK\\SS",
  "SeriesDescription": "task-backtothefuture_run-1",
  "SeriesNumber": 3,
  "ShimSetting": [-1520, 643, 7433, 219, -59, 228, 139, -68],
  "SliceThickness": 2,
  "SliceTiming": [0, 1.0675, 0.6575, 0.245, 1.315, 0.905, 0.4925, 0.0825, 1.15, 0.74, 0.3275, 1.3975, 0.985, 0.575, 0.165, 1.2325, 0.8225, 0.41, 0, 1.0675, 0.6575, 0.245, 1.315, 0.905, 0.4925, 0.0825, 1.15, 0.74, 0.3275, 1.3975, 0.985, 0.575, 0.165, 1.2325, 0.8225, 0.41, 0, 1.0675, 0.6575, 0.245, 1.315, 0.905, 0.4925, 0.0825, 1.15, 0.74, 0.3275, 1.3975, 0.985, 0.575, 0.165, 1.2325, 0.8225, 0.41, 0, 1.0675, 0.6575, 0.245, 1.315, 0.905, 0.4925, 0.0825, 1.15, 0.74, 0.3275, 1.3975, 0.985, 0.575, 0.165, 1.2325, 0.8225, 0.41],
  "SoftwareVersions": "syngo MR E11",
  "SpacingBetweenSlices": 2,
  "StationName": "AWP166108",
  "TaskName": "backtothefuture",
  "TotalReadoutTime": 0.0588013,
  "TxRefAmp": 217.379,
  "WipMemBlock": "d83f8d07-8d1f-4167-aefe-5869a37aec08||Sequence: R016 ve11c/master r/e634e98; Dec 19 2017 11:00:25 by eja",
  "dcmmeta_affine": [
    [-2.0, 0.0, 0.0, 106.0],
    [0.0, 2.0, 0.0, -92.55421447753906],
    [0.0, 0.0, 2.0, -46.90361404418945],
    [0.0, 0.0, 0.0, 1.0]
],
  "dcmmeta_reorient_transform": [
    [0.0, -1.0, 0.0, 105.0],
    [1.0, 0.0, 0.0, 0.0],
    [0.0, 0.0, 1.0, 0.0],
    [0.0, 0.0, 0.0, 1.0]
],
  "dcmmeta_shape": [106, 106, 72, 1360],
  "dcmmeta_slice_dim": 2,
  "dcmmeta_version": 0.6,
  "global": {
    "const": {
      "AcquisitionMatrix": [106, 0, 0, 106],
      "AngioFlag": "N",
      "BitsAllocated": 16,
      "BitsStored": 16,
      "BodyPartExamined": "BRAIN",
      "CardiacNumberOfImages": 1,
      "Columns": 954,
      "EchoNumbers": 1,
      "EchoTime": 35.2,
      "EchoTrainLength": 106,
      "FlipAngle": 60.0,
      "HighBit": 15,
      "ImageOrientationPatient": [1.0, 0.0, 0.0, 0.0, 1.0, 0.0],
      "ImagePositionPatient": [-954.0, -965.44578266144, -46.903614044189],
      "ImageType": [
        "ORIGINAL",
        "PRIMARY",
        "M",
        "MB",
        "ND",
        "MOSAIC"
],
      "ImagedNucleus": "1H",
      "ImagingFrequency": 123.24364,
      "InPlanePhaseEncodingDirection": "COL",
      "MRAcquisitionType": "2D",
      "MagneticFieldStrength": 3.0,
      "Manufacturer": "SIEMENS",
      "ManufacturerModelName": "Prisma",
      "Modality": "MR",
      "NominalInterval": 0,
      "NumberOfAverages": 1.0,
      "NumberOfPhaseEncodingSteps": 106,
      "PercentPhaseFieldOfView": 100.0,
      "PercentSampling": 100.0,
      "PerformedProcedureStepStartTime": "133038.791000",
      "PhotometricInterpretation": "MONOCHROME2",
      "PixelBandwidth": 2620.0,
      "PixelRepresentation": 0,
      "PixelSpacing": [2.0, 2.0],
      "ProtocolName": "task-backtothefuture_run-1",
      "RepetitionTime": 1500.0,
      "Rows": 954,
      "SAR": 0.0720154497878,
      "SamplesPerPixel": 1,
      "ScanOptions": [
        "FS",
        "EXT"
],
      "ScanningSequence": "EP",
      "SequenceName": "epfid2d1_106",
      "SequenceVariant": [
        "SK",
        "SS"
],
      "SeriesDescription": "task-backtothefuture_run-1",
      "SeriesNumber": 3,
      "SeriesTime": "140402.418000",
      "SliceLocation": -46.903614044189,
      "SliceThickness": 2.0,
      "SmallestImagePixelValue": 0,
      "SoftwareVersions": "syngo MR E11",
      "SpacingBetweenSlices": 1.9999999462719,
      "SpecificCharacterSet": "ISO_IR 100",
      "StudyID": "1",
      "StudyTime": "133038.656000",
      "TransmitCoilName": "Body",
      "VariableFlipAngleFlag": "N",
      "WindowCenterWidthExplanation": "Algo1",
      "dBdt": 0.0},
    "slices": {}
  },
  "time": {
    "samples": {
      "AcquisitionNumber": [1, 2, 3, 4, 5, 6, 7, 8, 9, 10, 11, 12, 13, 14, 15, 16, 17, 18, 19, 20, 21, 22, 23, 24, 25, 26, 27, 28, 29, 30, 31, 32, 33, 34, 35, 36, 37, 38, 39, 40, 41, 42, 43, 44, 45, 46, 47, 48, 49, 50, 51, 52, 53, 54, 55, 56, 57, 58, 59, 60, 61, 62, 63, 64, 65, 66, 67, 68, 69, 70, 71, 72, 73, 74, 75, 76, 77, 78, 79, 80, 81, 82, 83, 84, 85, 86, 87, 88, 89, 90, 91, 92, 93, 94, 95, 96, 97, 98, 99, 100, 101, 102, 103, 104, 105, 106, 107, 108, 109, 110, 111, 112, 113, 114, 115, 116, 117, 118, 119, 120, 121, 122, 123, 124, 125, 126, 127, 128, 129, 130, 131, 132, 133, 134, 135, 136, 137, 138, 139, 140, 141, 142, 143, 144, 145, 146, 147, 148, 149, 150, 151, 152, 153, 154, 155, 156, 157, 158, 159, 160, 161, 162, 163, 164, 165, 166, 167, 168, 169, 170, 171, 172, 173, 174, 175, 176, 177, 178, 179, 180, 181, 182, 183, 184, 185, 186, 187, 188, 189, 190, 191, 192, 193, 194, 195, 196, 197, 198, 199, 200, 201, 202, 203, 204, 205, 206, 207, 208, 209, 210, 211, 212, 213, 214, 215, 216, 217, 218, 219, 220, 221, 222, 223, 224, 225, 226, 227, 228, 229, 230, 231, 232, 233, 234, 235, 236, 237, 238, 239, 240, 241, 242, 243, 244, 245, 246, 247, 248, 249, 250, 251, 252, 253, 254, 255, 256, 257, 258, 259, 260, 261, 262, 263, 264, 265, 266, 267, 268, 269, 270, 271, 272, 273, 274, 275, 276, 277, 278, 279, 280, 281, 282, 283, 284, 285, 286, 287, 288, 289, 290, 291, 292, 293, 294, 295, 296, 297, 298, 299, 300, 301, 302, 303, 304, 305, 306, 307, 308, 309, 310, 311, 312, 313, 314, 315, 316, 317, 318, 319, 320, 321, 322, 323, 324, 325, 326, 327, 328, 329, 330, 331, 332, 333, 334, 335, 336, 337, 338, 339, 340, 341, 342, 343, 344, 345, 346, 347, 348, 349, 350, 351, 352, 353, 354, 355, 356, 357, 358, 359, 360, 361, 362, 363, 364, 365, 366, 367, 368, 369, 370, 371, 372, 373, 374, 375, 376, 377, 378, 379, 380, 381, 382, 383, 384, 385, 386, 387, 388, 389, 390, 391, 392, 393, 394, 395, 396, 397, 398, 399, 400, 401, 402, 403, 404, 405, 406, 407, 408, 409, 410, 411, 412, 413, 414, 415, 416, 417, 418, 419, 420, 421, 422, 423, 424, 425, 426, 427, 428, 429, 430, 431, 432, 433, 434, 435, 436, 437, 438, 439, 440, 441, 442, 443, 444, 445, 446, 447, 448, 449, 450, 451, 452, 453, 454, 455, 456, 457, 458, 459, 460, 461, 462, 463, 464, 465, 466, 467, 468, 469, 470, 471, 472, 473, 474, 475, 476, 477, 478, 479, 480, 481, 482, 483, 484, 485, 486, 487, 488, 489, 490, 491, 492, 493, 494, 495, 496, 497, 498, 499, 500, 501, 502, 503, 504, 505, 506, 507, 508, 509, 510, 511, 512, 513, 514, 515, 516, 517, 518, 519, 520, 521, 522, 523, 524, 525, 526, 527, 528, 529, 530, 531, 532, 533, 534, 535, 536, 537, 538, 539, 540, 541, 542, 543, 544, 545, 546, 547, 548, 549, 550, 551, 552, 553, 554, 555, 556, 557, 558, 559, 560, 561, 562, 563, 564, 565, 566, 567, 568, 569, 570, 571, 572, 573, 574, 575, 576, 577, 578, 579, 580, 581, 582, 583, 584, 585, 586, 587, 588, 589, 590, 591, 592, 593, 594, 595, 596, 597, 598, 599, 600, 601, 602, 603, 604, 605, 606, 607, 608, 609, 610, 611, 612, 613, 614, 615, 616, 617, 618, 619, 620, 621, 622, 623, 624, 625, 626, 627, 628, 629, 630, 631, 632, 633, 634, 635, 636, 637, 638, 639, 640, 641, 642, 643, 644, 645, 646, 647, 648, 649, 650, 651, 652, 653, 654, 655, 656, 657, 658, 659, 660, 661, 662, 663, 664, 665, 666, 667, 668, 669, 670, 671, 672, 673, 674, 675, 676, 677, 678, 679, 680, 681, 682, 683, 684, 685, 686, 687, 688, 689, 690, 691, 692, 693, 694, 695, 696, 697, 698, 699, 700, 701, 702, 703, 704, 705, 706, 707, 708, 709, 710, 711, 712, 713, 714, 715, 716, 717, 718, 719, 720, 721, 722, 723, 724, 725, 726, 727, 728, 729, 730, 731, 732, 733, 734, 735, 736, 737, 738, 739, 740, 741, 742, 743, 744, 745, 746, 747, 748, 749, 750, 751, 752, 753, 754, 755, 756, 757, 758, 759, 760, 761, 762, 763, 764, 765, 766, 767, 768, 769, 770, 771, 772, 773, 774, 775, 776, 777, 778, 779, 780, 781, 782, 783, 784, 785, 786, 787, 788, 789, 790, 791, 792, 793, 794, 795, 796, 797, 798, 799, 800, 801, 802, 803, 804, 805, 806, 807, 808, 809, 810, 811, 812, 813, 814, 815, 816, 817, 818, 819, 820, 821, 822, 823, 824, 825, 826, 827, 828, 829, 830, 831, 832, 833, 834, 835, 836, 837, 838, 839, 840, 841, 842, 843, 844, 845, 846, 847, 848, 849, 850, 851, 852, 853, 854, 855, 856, 857, 858, 859, 860, 861, 862, 863, 864, 865, 866, 867, 868, 869, 870, 871, 872, 873, 874, 875, 876, 877, 878, 879, 880, 881, 882, 883, 884, 885, 886, 887, 888, 889, 890, 891, 892, 893, 894, 895, 896, 897, 898, 899, 900, 901, 902, 903, 904, 905, 906, 907, 908, 909, 910, 911, 912, 913, 914, 915, 916, 917, 918, 919, 920, 921, 922, 923, 924, 925, 926, 927, 928, 929, 930, 931, 932, 933, 934, 935, 936, 937, 938, 939, 940, 941, 942, 943, 944, 945, 946, 947, 948, 949, 950, 951, 952, 953, 954, 955, 956, 957, 958, 959, 960, 961, 962, 963, 964, 965, 966, 967, 968, 969, 970, 971, 972, 973, 974, 975, 976, 977, 978, 979, 980, 981, 982, 983, 984, 985, 986, 987, 988, 989, 990, 991, 992, 993, 994, 995, 996, 997, 998, 999, 1000, 1001, 1002, 1003, 1004, 1005, 1006, 1007, 1008, 1009, 1010, 1011, 1012, 1013, 1014, 1015, 1016, 1017, 1018, 1019, 1020, 1021, 1022, 1023, 1024, 1025, 1026, 1027, 1028, 1029, 1030, 1031, 1032, 1033, 1034, 1035, 1036, 1037, 1038, 1039, 1040, 1041, 1042, 1043, 1044, 1045, 1046, 1047, 1048, 1049, 1050, 1051, 1052, 1053, 1054, 1055, 1056, 1057, 1058, 1059, 1060, 1061, 1062, 1063, 1064, 1065, 1066, 1067, 1068, 1069, 1070, 1071, 1072, 1073, 1074, 1075, 1076, 1077, 1078, 1079, 1080, 1081, 1082, 1083, 1084, 1085, 1086, 1087, 1088, 1089, 1090, 1091, 1092, 1093, 1094, 1095, 1096, 1097, 1098, 1099, 1100, 1101, 1102, 1103, 1104, 1105, 1106, 1107, 1108, 1109, 1110, 1111, 1112, 1113, 1114, 1115, 1116, 1117, 1118, 1119, 1120, 1121, 1122, 1123, 1124, 1125, 1126, 1127, 1128, 1129, 1130, 1131, 1132, 1133, 1134, 1135, 1136, 1137, 1138, 1139, 1140, 1141, 1142, 1143, 1144, 1145, 1146, 1147, 1148, 1149, 1150, 1151, 1152, 1153, 1154, 1155, 1156, 1157, 1158, 1159, 1160, 1161, 1162, 1163, 1164, 1165, 1166, 1167, 1168, 1169, 1170, 1171, 1172, 1173, 1174, 1175, 1176, 1177, 1178, 1179, 1180, 1181, 1182, 1183, 1184, 1185, 1186, 1187, 1188, 1189, 1190, 1191, 1192, 1193, 1194, 1195, 1196, 1197, 1198, 1199, 1200, 1201, 1202, 1203, 1204, 1205, 1206, 1207, 1208, 1209, 1210, 1211, 1212, 1213, 1214, 1215, 1216, 1217, 1218, 1219, 1220, 1221, 1222, 1223, 1224, 1225, 1226, 1227, 1228, 1229, 1230, 1231, 1232, 1233, 1234, 1235, 1236, 1237, 1238, 1239, 1240, 1241, 1242, 1243, 1244, 1245, 1246, 1247, 1248, 1249, 1250, 1251, 1252, 1253, 1254, 1255, 1256, 1257, 1258, 1259, 1260, 1261, 1262, 1263, 1264, 1265, 1266, 1267, 1268, 1269, 1270, 1271, 1272, 1273, 1274, 1275, 1276, 1277, 1278, 1279, 1280, 1281, 1282, 1283, 1284, 1285, 1286, 1287, 1288, 1289, 1290, 1291, 1292, 1293, 1294, 1295, 1296, 1297, 1298, 1299, 1300, 1301, 1302, 1303, 1304, 1305, 1306, 1307, 1308, 1309, 1310, 1311, 1312, 1313, 1314, 1315, 1316, 1317, 1318, 1319, 1320, 1321, 1322, 1323, 1324, 1325, 1326, 1327, 1328, 1329, 1330, 1331, 1332, 1333, 1334, 1335, 1336, 1337, 1338, 1339, 1340, 1341, 1342, 1343, 1344, 1345, 1346, 1347, 1348, 1349, 1350, 1351, 1352, 1353, 1354, 1355, 1356, 1357, 1358, 1359, 1360],
      "AcquisitionTime": ["140308.582500", "140310.082500", "140311.582500", "140313.082500", "140314.582500", "140316.082500", "140317.582500", "140319.082500", "140320.582500", "140322.082500", "140323.582500", "140325.082500", "140326.582500", "140328.082500", "140329.582500", "140331.082500", "140332.582500", "140334.082500", "140335.582500", "140337.082500", "140338.582500", "140340.082500", "140341.582500", "140343.082500", "140344.582500", "140346.082500", "140347.582500", "140349.082500", "140350.582500", "140352.082500", "140353.582500", "140355.082500", "140356.582500", "140358.082500", "140359.582500", "140401.082500", "140402.582500", "140404.082500", "140405.582500", "140407.082500", "140408.582500", "140410.082500", "140411.582500", "140413.082500", "140414.582500", "140416.082500", "140417.582500", "140419.082500", "140420.582500", "140422.082500", "140423.582500", "140425.082500", "140426.582500", "140428.082500", "140429.582500", "140431.082500", "140432.582500", "140434.082500", "140435.582500", "140437.082500", "140438.582500", "140440.082500", "140441.582500", "140443.082500", "140444.582500", "140446.082500", "140447.582500", "140449.082500", "140450.582500", "140452.082500", "140453.582500", "140455.082500", "140456.582500", "140458.082500", "140459.582500", "140501.082500", "140502.582500", "140504.082500", "140505.582500", "140507.082500", "140508.582500", "140510.082500", "140511.582500", "140513.082500", "140514.582500", "140516.082500", "140517.582500", "140519.082500", "140520.582500", "140522.082500", "140523.582500", "140525.082500", "140526.582500", "140528.082500", "140529.582500", "140531.082500", "140532.582500", "140534.082500", "140535.582500", "140537.082500", "140538.582500", "140540.082500", "140541.582500", "140543.082500", "140544.582500", "140546.082500", "140547.582500", "140549.082500", "140550.582500", "140552.082500", "140553.582500", "140555.082500", "140556.582500", "140558.082500", "140559.582500", "140601.082500", "140602.582500", "140604.082500", "140605.582500", "140607.082500", "140608.582500", "140610.082500", "140611.582500", "140613.082500", "140614.582500", "140616.082500", "140617.582500", "140619.082500", "140620.582500", "140622.082500", "140623.582500", "140625.082500", "140626.582500", "140628.082500", "140629.582500", "140631.082500", "140632.582500", "140634.082500", "140635.582500", "140637.082500", "140638.582500", "140640.082500", "140641.582500", "140643.082500", "140644.582500", "140646.082500", "140647.582500", "140649.082500", "140650.582500", "140652.082500", "140653.582500", "140655.082500", "140656.582500", "140658.082500", "140659.582500", "140701.082500", "140702.582500", "140704.082500", "140705.582500", "140707.082500", "140708.582500", "140710.082500", "140711.582500", "140713.082500", "140714.582500", "140716.082500", "140717.582500", "140719.082500", "140720.582500", "140722.082500", "140723.582500", "140725.082500", "140726.582500", "140728.082500", "140729.582500", "140731.082500", "140732.582500", "140734.082500", "140735.582500", "140737.082500", "140738.582500", "140740.082500", "140741.582500", "140743.082500", "140744.582500", "140746.082500", "140747.582500", "140749.082500", "140750.582500", "140752.082500", "140753.582500", "140755.082500", "140756.582500", "140758.082500", "140759.582500", "140801.082500", "140802.582500", "140804.082500", "140805.582500", "140807.082500", "140808.582500", "140810.082500", "140811.582500", "140813.082500", "140814.582500", "140816.082500", "140817.582500", "140819.082500", "140820.582500", "140822.082500", "140823.582500", "140825.082500", "140826.582500", "140828.082500", "140829.582500", "140831.082500", "140832.582500", "140834.082500", "140835.582500", "140837.082500", "140838.582500", "140840.082500", "140841.582500", "140843.082500", "140844.582500", "140846.082500", "140847.582500", "140849.082500", "140850.582500", "140852.082500", "140853.582500", "140855.082500", "140856.582500", "140858.082500", "140859.582500", "140901.082500", "140902.582500", "140904.082500", "140905.582500", "140907.082500", "140908.582500", "140910.082500", "140911.582500", "140913.082500", "140914.582500", "140916.082500", "140917.582500", "140919.082500", "140920.582500", "140922.082500", "140923.582500", "140925.082500", "140926.582500", "140928.082500", "140929.582500", "140931.082500", "140932.582500", "140934.082500", "140935.582500", "140937.082500", "140938.582500", "140940.082500", "140941.582500", "140943.082500", "140944.582500", "140946.082500", "140947.582500", "140949.082500", "140950.582500", "140952.082500", "140953.582500", "140955.082500", "140956.582500", "140958.082500", "140959.582500", "141001.082500", "141002.582500", "141004.082500", "141005.582500", "141007.082500", "141008.582500", "141010.082500", "141011.582500", "141013.082500", "141014.582500", "141016.082500", "141017.582500", "141019.082500", "141020.582500", "141022.082500", "141023.582500", "141025.082500", "141026.582500", "141028.082500", "141029.582500", "141031.082500", "141032.582500", "141034.082500", "141035.582500", "141037.082500", "141038.582500", "141040.082500", "141041.582500", "141043.082500", "141044.582500", "141046.082500", "141047.582500", "141049.082500", "141050.582500", "141052.082500", "141053.582500", "141055.082500", "141056.582500", "141058.082500", "141059.582500", "141101.082500", "141102.582500", "141104.082500", "141105.582500", "141107.082500", "141108.582500", "141110.082500", "141111.582500", "141113.082500", "141114.582500", "141116.082500", "141117.582500", "141119.082500", "141120.582500", "141122.082500", "141123.582500", "141125.082500", "141126.582500", "141128.082500", "141129.582500", "141131.082500", "141132.582500", "141134.082500", "141135.582500", "141137.082500", "141138.582500", "141140.082500", "141141.582500", "141143.082500", "141144.582500", "141146.082500", "141147.582500", "141149.082500", "141150.582500", "141152.082500", "141153.582500", "141155.082500", "141156.582500", "141158.082500", "141159.582500", "141201.082500", "141202.582500", "141204.082500", "141205.582500", "141207.082500", "141208.582500", "141210.082500", "141211.582500", "141213.082500", "141214.582500", "141216.082500", "141217.582500", "141219.082500", "141220.582500", "141222.082500", "141223.582500", "141225.082500", "141226.582500", "141228.082500", "141229.582500", "141231.082500", "141232.582500", "141234.082500", "141235.582500", "141237.082500", "141238.582500", "141240.082500", "141241.582500", "141243.082500", "141244.582500", "141246.082500", "141247.582500", "141249.082500", "141250.582500", "141252.082500", "141253.582500", "141255.082500", "141256.582500", "141258.082500", "141259.582500", "141301.082500", "141302.582500", "141304.082500", "141305.582500", "141307.082500", "141308.582500", "141310.082500", "141311.582500", "141313.082500", "141314.582500", "141316.082500", "141317.582500", "141319.082500", "141320.582500", "141322.082500", "141323.582500", "141325.082500", "141326.582500", "141328.082500", "141329.582500", "141331.082500", "141332.582500", "141334.082500", "141335.582500", "141337.082500", "141338.582500", "141340.082500", "141341.582500", "141343.082500", "141344.582500", "141346.082500", "141347.582500", "141349.082500", "141350.582500", "141352.082500", "141353.582500", "141355.082500", "141356.582500", "141358.082500", "141359.582500", "141401.082500", "141402.582500", "141404.082500", "141405.582500", "141407.082500", "141408.582500", "141410.082500", "141411.582500", "141413.082500", "141414.582500", "141416.082500", "141417.582500", "141419.082500", "141420.582500", "141422.082500", "141423.582500", "141425.082500", "141426.582500", "141428.082500", "141429.582500", "141431.082500", "141432.582500", "141434.082500", "141435.582500", "141437.082500", "141438.582500", "141440.082500", "141441.582500", "141443.082500", "141444.582500", "141446.082500", "141447.582500", "141449.082500", "141450.582500", "141452.082500", "141453.582500", "141455.082500", "141456.582500", "141458.082500", "141459.582500", "141501.082500", "141502.582500", "141504.082500", "141505.582500", "141507.082500", "141508.582500", "141510.082500", "141511.582500", "141513.082500", "141514.582500", "141516.082500", "141517.582500", "141519.082500", "141520.582500", "141522.082500", "141523.582500", "141525.082500", "141526.582500", "141528.082500", "141529.582500", "141531.082500", "141532.582500", "141534.082500", "141535.582500", "141537.082500", "141538.582500", "141540.082500", "141541.582500", "141543.082500", "141544.582500", "141546.082500", "141547.582500", "141549.082500", "141550.582500", "141552.082500", "141553.582500", "141555.082500", "141556.582500", "141558.082500", "141559.582500", "141601.082500", "141602.582500", "141604.082500", "141605.582500", "141607.082500", "141608.582500", "141610.082500", "141611.582500", "141613.082500", "141614.582500", "141616.082500", "141617.582500", "141619.082500", "141620.582500", "141622.082500", "141623.582500", "141625.082500", "141626.582500", "141628.082500", "141629.582500", "141631.082500", "141632.582500", "141634.082500", "141635.582500", "141637.082500", "141638.582500", "141640.082500", "141641.582500", "141643.082500", "141644.582500", "141646.082500", "141647.582500", "141649.082500", "141650.582500", "141652.082500", "141653.582500", "141655.082500", "141656.582500", "141658.082500", "141659.582500", "141701.082500", "141702.582500", "141704.082500", "141705.582500", "141707.082500", "141708.582500", "141710.082500", "141711.582500", "141713.082500", "141714.582500", "141716.082500", "141717.582500", "141719.082500", "141720.582500", "141722.082500", "141723.582500", "141725.082500", "141726.582500", "141728.082500", "141729.582500", "141731.082500", "141732.582500", "141734.082500", "141735.582500", "141737.082500", "141738.582500", "141740.082500", "141741.582500", "141743.082500", "141744.582500", "141746.082500", "141747.582500", "141749.082500", "141750.582500", "141752.082500", "141753.582500", "141755.082500", "141756.582500", "141758.082500", "141759.582500", "141801.082500", "141802.582500", "141804.082500", "141805.582500", "141807.082500", "141808.582500", "141810.082500", "141811.582500", "141813.082500", "141814.582500", "141816.082500", "141817.582500", "141819.082500", "141820.582500", "141822.082500", "141823.582500", "141825.082500", "141826.582500", "141828.082500", "141829.582500", "141831.082500", "141832.582500", "141834.082500", "141835.582500", "141837.082500", "141838.582500", "141840.082500", "141841.582500", "141843.082500", "141844.582500", "141846.082500", "141847.582500", "141849.082500", "141850.582500", "141852.082500", "141853.582500", "141855.082500", "141856.582500", "141858.082500", "141859.582500", "141901.082500", "141902.582500", "141904.082500", "141905.582500", "141907.082500", "141908.582500", "141910.082500", "141911.582500", "141913.082500", "141914.582500", "141916.082500", "141917.582500", "141919.082500", "141920.582500", "141922.082500", "141923.582500", "141925.082500", "141926.582500", "141928.082500", "141929.582500", "141931.082500", "141932.582500", "141934.082500", "141935.582500", "141937.082500", "141938.582500", "141940.082500", "141941.582500", "141943.082500", "141944.582500", "141946.082500", "141947.582500", "141949.082500", "141950.582500", "141952.082500", "141953.582500", "141955.082500", "141956.582500", "141958.082500", "141959.582500", "142001.082500", "142002.582500", "142004.082500", "142005.582500", "142007.082500", "142008.582500", "142010.082500", "142011.582500", "142013.082500", "142014.582500", "142016.082500", "142017.582500", "142019.082500", "142020.582500", "142022.082500", "142023.582500", "142025.082500", "142026.582500", "142028.082500", "142029.582500", "142031.082500", "142032.582500", "142034.082500", "142035.582500", "142037.082500", "142038.582500", "142040.082500", "142041.582500", "142043.082500", "142044.582500", "142046.082500", "142047.582500", "142049.082500", "142050.582500", "142052.082500", "142053.582500", "142055.082500", "142056.582500", "142058.082500", "142059.582500", "142101.082500", "142102.582500", "142104.082500", "142105.582500", "142107.082500", "142108.582500", "142110.082500", "142111.582500", "142113.082500", "142114.582500", "142116.082500", "142117.582500", "142119.082500", "142120.582500", "142122.082500", "142123.582500", "142125.082500", "142126.582500", "142128.082500", "142129.582500", "142131.082500", "142132.582500", "142134.082500", "142135.582500", "142137.082500", "142138.582500", "142140.082500", "142141.582500", "142143.082500", "142144.582500", "142146.082500", "142147.582500", "142149.082500", "142150.582500", "142152.082500", "142153.582500", "142155.082500", "142156.582500", "142158.082500", "142159.582500", "142201.082500", "142202.582500", "142204.082500", "142205.582500", "142207.082500", "142208.582500", "142210.082500", "142211.582500", "142213.082500", "142214.582500", "142216.082500", "142217.582500", "142219.082500", "142220.582500", "142222.082500", "142223.582500", "142225.082500", "142226.582500", "142228.082500", "142229.582500", "142231.082500", "142232.582500", "142234.082500", "142235.582500", "142237.082500", "142238.582500", "142240.082500", "142241.582500", "142243.082500", "142244.582500", "142246.082500", "142247.582500", "142249.082500", "142250.582500", "142252.082500", "142253.582500", "142255.082500", "142256.582500", "142258.082500", "142259.582500", "142301.082500", "142302.582500", "142304.082500", "142305.582500", "142307.082500", "142308.582500", "142310.082500", "142311.582500", "142313.082500", "142314.582500", "142316.082500", "142317.582500", "142319.082500", "142320.582500", "142322.082500", "142323.582500", "142325.082500", "142326.582500", "142328.082500", "142329.582500", "142331.082500", "142332.582500", "142334.082500", "142335.582500", "142337.082500", "142338.582500", "142340.082500", "142341.582500", "142343.082500", "142344.582500", "142346.082500", "142347.582500", "142349.082500", "142350.582500", "142352.082500", "142353.582500", "142355.082500", "142356.582500", "142358.082500", "142359.582500", "142401.082500", "142402.582500", "142404.082500", "142405.582500", "142407.082500", "142408.582500", "142410.082500", "142411.582500", "142413.082500", "142414.582500", "142416.082500", "142417.582500", "142419.082500", "142420.582500", "142422.082500", "142423.582500", "142425.082500", "142426.582500", "142428.082500", "142429.582500", "142431.082500", "142432.582500", "142434.082500", "142435.582500", "142437.082500", "142438.582500", "142440.082500", "142441.582500", "142443.082500", "142444.582500", "142446.082500", "142447.582500", "142449.082500", "142450.582500", "142452.082500", "142453.582500", "142455.082500", "142456.582500", "142458.082500", "142459.582500", "142501.082500", "142502.582500", "142504.082500", "142505.582500", "142507.082500", "142508.582500", "142510.082500", "142511.582500", "142513.082500", "142514.582500", "142516.082500", "142517.582500", "142519.082500", "142520.582500", "142522.082500", "142523.582500", "142525.082500", "142526.582500", "142528.082500", "142529.582500", "142531.082500", "142532.582500", "142534.082500", "142535.582500", "142537.082500", "142538.582500", "142540.082500", "142541.582500", "142543.082500", "142544.582500", "142546.082500", "142547.582500", "142549.082500", "142550.582500", "142552.082500", "142553.582500", "142555.082500", "142556.582500", "142558.082500", "142559.582500", "142601.082500", "142602.582500", "142604.082500", "142605.582500", "142607.082500", "142608.582500", "142610.082500", "142611.582500", "142613.082500", "142614.582500", "142616.082500", "142617.582500", "142619.082500", "142620.582500", "142622.082500", "142623.582500", "142625.082500", "142626.582500", "142628.082500", "142629.582500", "142631.082500", "142632.582500", "142634.082500", "142635.582500", "142637.082500", "142638.582500", "142640.082500", "142641.582500", "142643.082500", "142644.582500", "142646.082500", "142647.582500", "142649.082500", "142650.582500", "142652.082500", "142653.582500", "142655.082500", "142656.582500", "142658.082500", "142659.582500", "142701.082500", "142702.582500", "142704.082500", "142705.582500", "142707.082500", "142708.582500", "142710.082500", "142711.582500", "142713.082500", "142714.582500", "142716.082500", "142717.582500", "142719.082500", "142720.582500", "142722.082500", "142723.582500", "142725.082500", "142726.582500", "142728.082500", "142729.582500", "142731.082500", "142732.582500", "142734.082500", "142735.582500", "142737.082500", "142738.582500", "142740.082500", "142741.582500", "142743.082500", "142744.582500", "142746.082500", "142747.582500", "142749.082500", "142750.582500", "142752.082500", "142753.582500", "142755.082500", "142756.582500", "142758.082500", "142759.582500", "142801.082500", "142802.582500", "142804.082500", "142805.582500", "142807.082500", "142808.582500", "142810.082500", "142811.582500", "142813.082500", "142814.582500", "142816.082500", "142817.582500", "142819.082500", "142820.582500", "142822.082500", "142823.582500", "142825.082500", "142826.582500", "142828.082500", "142829.582500", "142831.082500", "142832.582500", "142834.08