{
  "AcquisitionMatrixPE": 106,
  "AcquisitionNumber": 1,
  "AcquisitionTime": "14:41:2.427500",
  "BandwidthPerPixelPhaseEncode": 16.846,
  "BaseResolution": 106,
  "BodyPartExamined": "BRAIN",
  "CoilCombinationMethod": "Sum of Squares",
  "ConsistencyInfo": "N4_VE11C_LATEST_20160120",
  "ConversionSoftware": "dcm2niix",
  "ConversionSoftwareVersion": "v1.0.20220720",
  "DerivedVendorReportedEchoSpacing": 0.000560012,
  "DeviceSerialNumber": "166108",
  "DwellTime": 1.8e-06,
  "EchoTime": 0.0352,
  "EchoTrainLength": 106,
  "EffectiveEchoSpacing": 0.000560012,
  "FlipAngle": 60,
  "HeudiconvVersion": "1.3.0",
  "ImageComments": "Unaliased MB4/PE3/LB",
  "ImageOrientationPatientDICOM": [1, 0, 0, 0, 1, 0],
  "ImageOrientationText": "Tra",
  "ImageType": [
    "ORIGINAL",
    "PRIMARY",
    "M",
    "MB",
    "ND",
    "MOSAIC"
],
  "ImagingFrequency": 123.244,
  "InPlanePhaseEncodingDirectionDICOM": "COL",
  "InstitutionAddress": "Bedford Way 26,London,London,GB,WC1H 0AP",
  "InstitutionName": "University College",
  "InstitutionalDepartmentName": "Department",
  "MRAcquisitionType": "2D",
  "MagneticFieldStrength": 3,
  "Manufacturer": "Siemens",
  "ManufacturersModelName": "Prisma",
  "MatrixCoilMode": "SENSE",
  "Modality": "MR",
  "MultibandAccelerationFactor": 4,
  "NonlinearGradientCorrection": false,
  "PartialFourier": 1,
  "PatientPosition": "HFS",
  "PercentPhaseFOV": 100,
  "PercentSampling": 100,
  "PhaseEncodingDirection": "j-",
  "PhaseEncodingSteps": 106,
  "PhaseResolution": 1,
  "PixelBandwidth": 2620,
  "ProcedureStepDescription": "Egor^MovieProject2",
  "ProtocolName": "task-backtothefuture_run-2",
  "PulseSequenceDetails": "%CustomerSeq%\\cmrr_mbep2d_bold",
  "ReceiveCoilActiveElements": "HEA;HEP",
  "ReceiveCoilName": "Head_32",
  "ReconMatrixPE": 106,
  "RepetitionTime": 1.5,
  "SAR": 0.0720292,
  "ScanOptions": "FS\\EXT",
  "ScanningSequence": "EP",
  "SequenceName": "epfid2d1_106",
  "SequenceVariant": "SK\\SS",
  "SeriesDescription": "task-backtothefuture_run-2",
  "SeriesNumber": 7,
  "ShimSetting": [-1520, 643, 7433, 219, -59, 228, 139, -68],
  "SliceThickness": 2,
  "SliceTiming": [0, 1.07, 0.6575, 0.2475, 1.3175, 0.905, 0.495, 0.0825, 1.1525, 0.74, 0.33, 1.3975, 0.9875, 0.5775, 0.165, 1.235, 0.8225, 0.4125, 0, 1.07, 0.6575, 0.2475, 1.3175, 0.905, 0.495, 0.0825, 1.1525, 0.74, 0.33, 1.3975, 0.9875, 0.5775, 0.165, 1.235, 0.8225, 0.4125, 0, 1.07, 0.6575, 0.2475, 1.3175, 0.905, 0.495, 0.0825, 1.1525, 0.74, 0.33, 1.3975, 0.9875, 0.5775, 0.165, 1.235, 0.8225, 0.4125, 0, 1.07, 0.6575, 0.2475, 1.3175, 0.905, 0.495, 0.0825, 1.1525, 0.74, 0.33, 1.3975, 0.9875, 0.5775, 0.165, 1.235, 0.8225, 0.4125],
  "SoftwareVersions": "syngo MR E11",
  "SpacingBetweenSlices": 2,
  "StationName": "AWP166108",
  "TaskName": "backtothefuture",
  "TotalReadoutTime": 0.0588013,
  "TxRefAmp": 217.379,
  "WipMemBlock": "d994f9cc-5fbe-4bef-a26f-6e4f4fa1f9e9||Sequence: R016 ve11c/master r/e634e98; Dec 19 2017 11:00:25 by eja",
  "dcmmeta_affine": [
    [-2.0, 0.0, 0.0, 106.0],
    [0.0, 2.0, 0.0, -92.55421447753906],
    [0.0, 0.0, 2.0, -46.90361404418945],
    [0.0, 0.0, 0.0, 1.0]
],
  "dcmmeta_reorient_transform": [
    [0.0, -1.0, 0.0, 105.0],
    [1.0, 0.0, 0.0, 0.0],
    [0.0, 0.0, 1.0, 0.0],
    [0.0, 0.0, 0.0, 1.0]
],
  "dcmmeta_shape": [106, 106, 72, 1522],
  "dcmmeta_slice_dim": 2,
  "dcmmeta_version": 0.6,
  "global": {
    "const": {
      "AcquisitionMatrix": [106, 0, 0, 106],
      "AngioFlag": "N",
      "BitsAllocated": 16,
      "BitsStored": 16,
      "BodyPartExamined": "BRAIN",
      "CardiacNumberOfImages": 1,
      "Columns": 954,
      "EchoNumbers": 1,
      "EchoTime": 35.2,
      "EchoTrainLength": 106,
      "FlipAngle": 60.0,
      "HighBit": 15,
      "ImageOrientationPatient": [1.0, 0.0, 0.0, 0.0, 1.0, 0.0],
      "ImagePositionPatient": [-954.0, -965.44578266144, -46.903614044189],
      "ImageType": [
        "ORIGINAL",
        "PRIMARY",
        "M",
        "MB",
        "ND",
        "MOSAIC"
],
      "ImagedNucleus": "1H",
      "ImagingFrequency": 123.243661,
      "InPlanePhaseEncodingDirection": "COL",
      "MRAcquisitionType": "2D",
      "MagneticFieldStrength": 3.0,
      "Manufacturer": "SIEMENS",
      "ManufacturerModelName": "Prisma",
      "Modality": "MR",
      "NominalInterval": 0,
      "NumberOfAverages": 1.0,
      "NumberOfPhaseEncodingSteps": 106,
      "PercentPhaseFieldOfView": 100.0,
      "PercentSampling": 100.0,
      "PerformedProcedureStepStartTime": "133038.791000",
      "PhotometricInterpretation": "MONOCHROME2",
      "PixelBandwidth": 2620.0,
      "PixelRepresentation": 0,
      "PixelSpacing": [2.0, 2.0],
      "ProtocolName": "task-backtothefuture_run-2",
      "RepetitionTime": 1500.0,
      "Rows": 954,
      "SAR": 0.07202921647003,
      "SamplesPerPixel": 1,
      "ScanOptions": [
        "FS",
        "EXT"
],
      "ScanningSequence": "EP",
      "SequenceName": "epfid2d1_106",
      "SequenceVariant": [
        "SK",
        "SS"
],
      "SeriesDescription": "task-backtothefuture_run-2",
      "SeriesNumber": 7,
      "SeriesTime": "144157.530000",
      "SliceLocation": -46.903614044189,
      "SliceThickness": 2.0,
      "SmallestImagePixelValue": 0,
      "SoftwareVersions": "syngo MR E11",
      "SpacingBetweenSlices": 1.9999999462719,
      "SpecificCharacterSet": "ISO_IR 100",
      "StudyID": "1",
      "StudyTime": "133038.656000",
      "TransmitCoilName": "Body",
      "VariableFlipAngleFlag": "N",
      "WindowCenterWidthExplanation": "Algo1",
      "dBdt": 0.0},
    "slices": {}
  },
  "time": {
    "samples": {
      "AcquisitionNumber": [1, 2, 3, 4, 5, 6, 7, 8, 9, 10, 11, 12, 13, 14, 15, 16, 17, 18, 19, 20, 21, 22, 23, 24, 25, 26, 27, 28, 29, 30, 31, 32, 33, 34, 35, 36, 37, 38, 39, 40, 41, 42, 43, 44, 45, 46, 47, 48, 49, 50, 51, 52, 53, 54, 55, 56, 57, 58, 59, 60, 61, 62, 63, 64, 65, 66, 67, 68, 69, 70, 71, 72, 73, 74, 75, 76, 77, 78, 79, 80, 81, 82, 83, 84, 85, 86, 87, 88, 89, 90, 91, 92, 93, 94, 95, 96, 97, 98, 99, 100, 101, 102, 103, 104, 105, 106, 107, 108, 109, 110, 111, 112, 113, 114, 115, 116, 117, 118, 119, 120, 121, 122, 123, 124, 125, 126, 127, 128, 129, 130, 131, 132, 133, 134, 135, 136, 137, 138, 139, 140, 141, 142, 143, 144, 145, 146, 147, 148, 149, 150, 151, 152, 153, 154, 155, 156, 157, 158, 159, 160, 161, 162, 163, 164, 165, 166, 167, 168, 169, 170, 171, 172, 173, 174, 175, 176, 177, 178, 179, 180, 181, 182, 183, 184, 185, 186, 187, 188, 189, 190, 191, 192, 193, 194, 195, 196, 197, 198, 199, 200, 201, 202, 203, 204, 205, 206, 207, 208, 209, 210, 211, 212, 213, 214, 215, 216, 217, 218, 219, 220, 221, 222, 223, 224, 225, 226, 227, 228, 229, 230, 231, 232, 233, 234, 235, 236, 237, 238, 239, 240, 241, 242, 243, 244, 245, 246, 247, 248, 249, 250, 251, 252, 253, 254, 255, 256, 257, 258, 259, 260, 261, 262, 263, 264, 265, 266, 267, 268, 269, 270, 271, 272, 273, 274, 275, 276, 277, 278, 279, 280, 281, 282, 283, 284, 285, 286, 287, 288, 289, 290, 291, 292, 293, 294, 295, 296, 297, 298, 299, 300, 301, 302, 303, 304, 305, 306, 307, 308, 309, 310, 311, 312, 313, 314, 315, 316, 317, 318, 319, 320, 321, 322, 323, 324, 325, 326, 327, 328, 329, 330, 331, 332, 333, 334, 335, 336, 337, 338, 339, 340, 341, 342, 343, 344, 345, 346, 347, 348, 349, 350, 351, 352, 353, 354, 355, 356, 357, 358, 359, 360, 361, 362, 363, 364, 365, 366, 367, 368, 369, 370, 371, 372, 373, 374, 375, 376, 377, 378, 379, 380, 381, 382, 383, 384, 385, 386, 387, 388, 389, 390, 391, 392, 393, 394, 395, 396, 397, 398, 399, 400, 401, 402, 403, 404, 405, 406, 407, 408, 409, 410, 411, 412, 413, 414, 415, 416, 417, 418, 419, 420, 421, 422, 423, 424, 425, 426, 427, 428, 429, 430, 431, 432, 433, 434, 435, 436, 437, 438, 439, 440, 441, 442, 443, 444, 445, 446, 447, 448, 449, 450, 451, 452, 453, 454, 455, 456, 457, 458, 459, 460, 461, 462, 463, 464, 465, 466, 467, 468, 469, 470, 471, 472, 473, 474, 475, 476, 477, 478, 479, 480, 481, 482, 483, 484, 485, 486, 487, 488, 489, 490, 491, 492, 493, 494, 495, 496, 497, 498, 499, 500, 501, 502, 503, 504, 505, 506, 507, 508, 509, 510, 511, 512, 513, 514, 515, 516, 517, 518, 519, 520, 521, 522, 523, 524, 525, 526, 527, 528, 529, 530, 531, 532, 533, 534, 535, 536, 537, 538, 539, 540, 541, 542, 543, 544, 545, 546, 547, 548, 549, 550, 551, 552, 553, 554, 555, 556, 557, 558, 559, 560, 561, 562, 563, 564, 565, 566, 567, 568, 569, 570, 571, 572, 573, 574, 575, 576, 577, 578, 579, 580, 581, 582, 583, 584, 585, 586, 587, 588, 589, 590, 591, 592, 593, 594, 595, 596, 597, 598, 599, 600, 601, 602, 603, 604, 605, 606, 607, 608, 609, 610, 611, 612, 613, 614, 615, 616, 617, 618, 619, 620, 621, 622, 623, 624, 625, 626, 627, 628, 629, 630, 631, 632, 633, 634, 635, 636, 637, 638, 639, 640, 641, 642, 643, 644, 645, 646, 647, 648, 649, 650, 651, 652, 653, 654, 655, 656, 657, 658, 659, 660, 661, 662, 663, 664, 665, 666, 667, 668, 669, 670, 671, 672, 673, 674, 675, 676, 677, 678, 679, 680, 681, 682, 683, 684, 685, 686, 687, 688, 689, 690, 691, 692, 693, 694, 695, 696, 697, 698, 699, 700, 701, 702, 703, 704, 705, 706, 707, 708, 709, 710, 711, 712, 713, 714, 715, 716, 717, 718, 719, 720, 721, 722, 723, 724, 725, 726, 727, 728, 729, 730, 731, 732, 733, 734, 735, 736, 737, 738, 739, 740, 741, 742, 743, 744, 745, 746, 747, 748, 749, 750, 751, 752, 753, 754, 755, 756, 757, 758, 759, 760, 761, 762, 763, 764, 765, 766, 767, 768, 769, 770, 771, 772, 773, 774, 775, 776, 777, 778, 779, 780, 781, 782, 783, 784, 785, 786, 787, 788, 789, 790, 791, 792, 793, 794, 795, 796, 797, 798, 799, 800, 801, 802, 803, 804, 805, 806, 807, 808, 809, 810, 811, 812, 813, 814, 815, 816, 817, 818, 819, 820, 821, 822, 823, 824, 825, 826, 827, 828, 829, 830, 831, 832, 833, 834, 835, 836, 837, 838, 839, 840, 841, 842, 843, 844, 845, 846, 847, 848, 849, 850, 851, 852, 853, 854, 855, 856, 857, 858, 859, 860, 861, 862, 863, 864, 865, 866, 867, 868, 869, 870, 871, 872, 873, 874, 875, 876, 877, 878, 879, 880, 881, 882, 883, 884, 885, 886, 887, 888, 889, 890, 891, 892, 893, 894, 895, 896, 897, 898, 899, 900, 901, 902, 903, 904, 905, 906, 907, 908, 909, 910, 911, 912, 913, 914, 915, 916, 917, 918, 919, 920, 921, 922, 923, 924, 925, 926, 927, 928, 929, 930, 931, 932, 933, 934, 935, 936, 937, 938, 939, 940, 941, 942, 943, 944, 945, 946, 947, 948, 949, 950, 951, 952, 953, 954, 955, 956, 957, 958, 959, 960, 961, 962, 963, 964, 965, 966, 967, 968, 969, 970, 971, 972, 973, 974, 975, 976, 977, 978, 979, 980, 981, 982, 983, 984, 985, 986, 987, 988, 989, 990, 991, 992, 993, 994, 995, 996, 997, 998, 999, 1000, 1001, 1002, 1003, 1004, 1005, 1006, 1007, 1008, 1009, 1010, 1011, 1012, 1013, 1014, 1015, 1016, 1017, 1018, 1019, 1020, 1021, 1022, 1023, 1024, 1025, 1026, 1027, 1028, 1029, 1030, 1031, 1032, 1033, 1034, 1035, 1036, 1037, 1038, 1039, 1040, 1041, 1042, 1043, 1044, 1045, 1046, 1047, 1048, 1049, 1050, 1051, 1052, 1053, 1054, 1055, 1056, 1057, 1058, 1059, 1060, 1061, 1062, 1063, 1064, 1065, 1066, 1067, 1068, 1069, 1070, 1071, 1072, 1073, 1074, 1075, 1076, 1077, 1078, 1079, 1080, 1081, 1082, 1083, 1084, 1085, 1086, 1087, 1088, 1089, 1090, 1091, 1092, 1093, 1094, 1095, 1096, 1097, 1098, 1099, 1100, 1101, 1102, 1103, 1104, 1105, 1106, 1107, 1108, 1109, 1110, 1111, 1112, 1113, 1114, 1115, 1116, 1117, 1118, 1119, 1120, 1121, 1122, 1123, 1124, 1125, 1126, 1127, 1128, 1129, 1130, 1131, 1132, 1133, 1134, 1135, 1136, 1137, 1138, 1139, 1140, 1141, 1142, 1143, 1144, 1145, 1146, 1147, 1148, 1149, 1150, 1151, 1152, 1153, 1154, 1155, 1156, 1157, 1158, 1159, 1160, 1161, 1162, 1163, 1164, 1165, 1166, 1167, 1168, 1169, 1170, 1171, 1172, 1173, 1174, 1175, 1176, 1177, 1178, 1179, 1180, 1181, 1182, 1183, 1184, 1185, 1186, 1187, 1188, 1189, 1190, 1191, 1192, 1193, 1194, 1195, 1196, 1197, 1198, 1199, 1200, 1201, 1202, 1203, 1204, 1205, 1206, 1207, 1208, 1209, 1210, 1211, 1212, 1213, 1214, 1215, 1216, 1217, 1218, 1219, 1220, 1221, 1222, 1223, 1224, 1225, 1226, 1227, 1228, 1229, 1230, 1231, 1232, 1233, 1234, 1235, 1236, 1237, 1238, 1239, 1240, 1241, 1242, 1243, 1244, 1245, 1246, 1247, 1248, 1249, 1250, 1251, 1252, 1253, 1254, 1255, 1256, 1257, 1258, 1259, 1260, 1261, 1262, 1263, 1264, 1265, 1266, 1267, 1268, 1269, 1270, 1271, 1272, 1273, 1274, 1275, 1276, 1277, 1278, 1279, 1280, 1281, 1282, 1283, 1284, 1285, 1286, 1287, 1288, 1289, 1290, 1291, 1292, 1293, 1294, 1295, 1296, 1297, 1298, 1299, 1300, 1301, 1302, 1303, 1304, 1305, 1306, 1307, 1308, 1309, 1310, 1311, 1312, 1313, 1314, 1315, 1316, 1317, 1318, 1319, 1320, 1321, 1322, 1323, 1324, 1325, 1326, 1327, 1328, 1329, 1330, 1331, 1332, 1333, 1334, 1335, 1336, 1337, 1338, 1339, 1340, 1341, 1342, 1343, 1344, 1345, 1346, 1347, 1348, 1349, 1350, 1351, 1352, 1353, 1354, 1355, 1356, 1357, 1358, 1359, 1360, 1361, 1362, 1363, 1364, 1365, 1366, 1367, 1368, 1369, 1370, 1371, 1372, 1373, 1374, 1375, 1376, 1377, 1378, 1379, 1380, 1381, 1382, 1383, 1384, 1385, 1386, 1387, 1388, 1389, 1390, 1391, 1392, 1393, 1394, 1395, 1396, 1397, 1398, 1399, 1400, 1401, 1402, 1403, 1404, 1405, 1406, 1407, 1408, 1409, 1410, 1411, 1412, 1413, 1414, 1415, 1416, 1417, 1418, 1419, 1420, 1421, 1422, 1423, 1424, 1425, 1426, 1427, 1428, 1429, 1430, 1431, 1432, 1433, 1434, 1435, 1436, 1437, 1438, 1439, 1440, 1441, 1442, 1443, 1444, 1445, 1446, 1447, 1448, 1449, 1450, 1451, 1452, 1453, 1454, 1455, 1456, 1457, 1458, 1459, 1460, 1461, 1462, 1463, 1464, 1465, 1466, 1467, 1468, 1469, 1470, 1471, 1472, 1473, 1474, 1475, 1476, 1477, 1478, 1479, 1480, 1481, 1482, 1483, 1484, 1485, 1486, 1487, 1488, 1489, 1490, 1491, 1492, 1493, 1494, 1495, 1496, 1497, 1498, 1499, 1500, 1501, 1502, 1503, 1504, 1505, 1506, 1507, 1508, 1509, 1510, 1511, 1512, 1513, 1514, 1515, 1516, 1517, 1518, 1519, 1520, 1521, 1522],
      "AcquisitionTime": ["144102.427500", "144103.927500", "144105.427500", "144106.927500", "144108.427500", "144109.927500", "144111.427500", "144112.927500", "144114.427500", "144115.927500", "144117.427500", "144118.927500", "144120.427500", "144121.927500", "144123.427500", "144124.927500", "144126.427500", "144127.927500", "144129.427500", "144130.927500", "144132.427500", "144133.927500", "144135.427500", "144136.927500", "144138.427500", "144139.927500", "144141.427500", "144142.927500", "144144.427500", "144145.927500", "144147.427500", "144148.927500", "144150.427500", "144151.927500", "144153.427500", "144154.927500", "144156.427500", "144157.927500", "144159.427500", "144200.927500", "144202.427500", "144203.927500", "144205.427500", "144206.927500", "144208.427500", "144209.927500", "144211.427500", "144212.927500", "144214.427500", "144215.927500", "144217.427500", "144218.927500", "144220.427500", "144221.927500", "144223.427500", "144224.927500", "144226.427500", "144227.927500", "144229.427500", "144230.927500", "144232.427500", "144233.927500", "144235.427500", "144236.927500", "144238.427500", "144239.927500", "144241.427500", "144242.927500", "144244.427500", "144245.927500", "144247.427500", "144248.927500", "144250.427500", "144251.927500", "144253.427500", "144254.927500", "144256.427500", "144257.927500", "144259.427500", "144300.927500", "144302.427500", "144303.927500", "144305.427500", "144306.927500", "144308.427500", "144309.927500", "144311.427500", "144312.927500", "144314.427500", "144315.927500", "144317.427500", "144318.927500", "144320.427500", "144321.927500", "144323.427500", "144324.927500", "144326.427500", "144327.927500", "144329.427500", "144330.927500", "144332.427500", "144333.927500", "144335.427500", "144336.927500", "144338.427500", "144339.927500", "144341.427500", "144342.927500", "144344.427500", "144345.927500", "144347.427500", "144348.927500", "144350.427500", "144351.927500", "144353.427500", "144354.927500", "144356.427500", "144357.927500", "144359.427500", "144400.927500", "144402.427500", "144403.927500", "144405.427500", "144406.927500", "144408.427500", "144409.927500", "144411.427500", "144412.927500", "144414.427500", "144415.927500", "144417.427500", "144418.927500", "144420.427500", "144421.927500", "144423.427500", "144424.927500", "144426.427500", "144427.927500", "144429.427500", "144430.927500", "144432.427500", "144433.927500", "144435.427500", "144436.927500", "144438.427500", "144439.927500", "144441.427500", "144442.927500", "144444.427500", "144445.927500", "144447.427500", "144448.927500", "144450.427500", "144451.927500", "144453.427500", "144454.927500", "144456.427500", "144457.927500", "144459.427500", "144500.927500", "144502.427500", "144503.927500", "144505.427500", "144506.927500", "144508.427500", "144509.927500", "144511.427500", "144512.927500", "144514.427500", "144515.927500", "144517.427500", "144518.927500", "144520.427500", "144521.927500", "144523.427500", "144524.927500", "144526.427500", "144527.927500", "144529.427500", "144530.927500", "144532.427500", "144533.927500", "144535.427500", "144536.927500", "144538.427500", "144539.927500", "144541.427500", "144542.927500", "144544.427500", "144545.927500", "144547.427500", "144548.927500", "144550.427500", "144551.927500", "144553.427500", "144554.927500", "144556.427500", "144557.927500", "144559.427500", "144600.927500", "144602.427500", "144603.927500", "144605.427500", "144606.927500", "144608.427500", "144609.927500", "144611.427500", "144612.927500", "144614.427500", "144615.927500", "144617.427500", "144618.927500", "144620.427500", "144621.927500", "144623.427500", "144624.927500", "144626.427500", "144627.927500", "144629.427500", "144630.927500", "144632.427500", "144633.927500", "144635.427500", "144636.927500", "144638.427500", "144639.927500", "144641.427500", "144642.927500", "144644.427500", "144645.927500", "144647.427500", "144648.927500", "144650.427500", "144651.927500", "144653.427500", "144654.927500", "144656.427500", "144657.927500", "144659.427500", "144700.927500", "144702.427500", "144703.927500", "144705.427500", "144706.927500", "144708.427500", "144709.927500", "144711.427500", "144712.927500", "144714.427500", "144715.927500", "144717.427500", "144718.927500", "144720.427500", "144721.927500", "144723.427500", "144724.927500", "144726.427500", "144727.927500", "144729.427500", "144730.927500", "144732.427500", "144733.927500", "144735.427500", "144736.927500", "144738.427500", "144739.927500", "144741.427500", "144742.927500", "144744.427500", "144745.927500", "144747.427500", "144748.927500", "144750.427500", "144751.927500", "144753.427500", "144754.927500", "144756.427500", "144757.927500", "144759.427500", "144800.927500", "144802.427500", "144803.927500", "144805.427500", "144806.927500", "144808.427500", "144809.927500", "144811.427500", "144812.927500", "144814.427500", "144815.927500", "144817.427500", "144818.927500", "144820.427500", "144821.927500", "144823.427500", "144824.927500", "144826.427500", "144827.927500", "144829.427500", "144830.927500", "144832.427500", "144833.927500", "144835.427500", "144836.927500", "144838.427500", "144839.927500", "144841.427500", "144842.927500", "144844.427500", "144845.927500", "144847.427500", "144848.927500", "144850.427500", "144851.927500", "144853.427500", "144854.927500", "144856.427500", "144857.927500", "144859.427500", "144900.927500", "144902.427500", "144903.927500", "144905.427500", "144906.927500", "144908.427500", "144909.927500", "144911.427500", "144912.927500", "144914.427500", "144915.927500", "144917.427500", "144918.927500", "144920.427500", "144921.927500", "144923.427500", "144924.927500", "144926.427500", "144927.927500", "144929.427500", "144930.927500", "144932.427500", "144933.927500", "144935.427500", "144936.927500", "144938.427500", "144939.927500", "144941.427500", "144942.927500", "144944.427500", "144945.927500", "144947.427500", "144948.927500", "144950.427500", "144951.927500", "144953.427500", "144954.927500", "144956.427500", "144957.927500", "144959.427500", "145000.927500", "145002.427500", "145003.927500", "145005.427500", "145006.927500", "145008.427500", "145009.927500", "145011.427500", "145012.927500", "145014.427500", "145015.927500", "145017.427500", "145018.927500", "145020.427500", "145021.927500", "145023.427500", "145024.927500", "145026.427500", "145027.927500", "145029.427500", "145030.927500", "145032.427500", "145033.927500", "145035.427500", "145036.927500", "145038.427500", "145039.927500", "145041.427500", "145042.927500", "145044.427500", "145045.927500", "145047.427500", "145048.927500", "145050.427500", "145051.927500", "145053.427500", "145054.927500", "145056.427500", "145057.927500", "145059.427500", "145100.927500", "145102.427500", "145103.927500", "145105.427500", "145106.927500", "145108.427500", "145109.927500", "145111.427500", "145112.927500", "145114.427500", "145115.927500", "145117.427500", "145118.927500", "145120.427500", "145121.927500", "145123.427500", "145124.927500", "145126.427500", "145127.927500", "145129.427500", "145130.927500", "145132.427500", "145133.927500", "145135.427500", "145136.927500", "145138.427500", "145139.927500", "145141.427500", "145142.927500", "145144.427500", "145145.927500", "145147.427500", "145148.927500", "145150.427500", "145151.927500", "145153.427500", "145154.927500", "145156.427500", "145157.927500", "145159.427500", "145200.927500", "145202.427500", "145203.927500", "145205.427500", "145206.927500", "145208.427500", "145209.927500", "145211.427500", "145212.927500", "145214.427500", "145215.927500", "145217.427500", "145218.927500", "145220.427500", "145221.927500", "145223.427500", "145224.927500", "145226.427500", "145227.927500", "145229.427500", "145230.927500", "145232.427500", "145233.927500", "145235.427500", "145236.927500", "145238.427500", "145239.927500", "145241.427500", "145242.927500", "145244.427500", "145245.927500", "145247.427500", "145248.927500", "145250.427500", "145251.927500", "145253.427500", "145254.927500", "145256.427500", "145257.927500", "145259.427500", "145300.927500", "145302.427500", "145303.927500", "145305.427500", "145306.927500", "145308.427500", "145309.927500", "145311.427500", "145312.927500", "145314.427500", "145315.927500", "145317.427500", "145318.927500", "145320.427500", "145321.927500", "145323.427500", "145324.927500", "145326.427500", "145327.927500", "145329.427500", "145330.927500", "145332.427500", "145333.927500", "145335.427500", "145336.927500", "145338.427500", "145339.927500", "145341.427500", "145342.927500", "145344.427500", "145345.927500", "145347.427500", "145348.927500", "145350.427500", "145351.927500", "145353.427500", "145354.927500", "145356.427500", "145357.927500", "145359.427500", "145400.927500", "145402.427500", "145403.927500", "145405.427500", "145406.927500", "145408.427500", "145409.927500", "145411.427500", "145412.927500", "145414.427500", "145415.927500", "145417.427500", "145418.927500", "145420.427500", "145421.927500", "145423.427500", "145424.927500", "145426.427500", "145427.927500", "145429.427500", "145430.927500", "145432.427500", "145433.927500", "145435.427500", "145436.927500", "145438.427500", "145439.927500", "145441.427500", "145442.927500", "145444.427500", "145445.927500", "145447.427500", "145448.927500", "145450.427500", "145451.927500", "145453.427500", "145454.927500", "145456.427500", "145457.927500", "145459.427500", "145500.927500", "145502.427500", "145503.927500", "145505.427500", "145506.927500", "145508.427500", "145509.927500", "145511.427500", "145512.927500", "145514.427500", "145515.927500", "145517.427500", "145518.927500", "145520.427500", "145521.927500", "145523.427500", "145524.927500", "145526.427500", "145527.927500", "145529.427500", "145530.927500", "145532.427500", "145533.927500", "145535.427500", "145536.927500", "145538.427500", "145539.927500", "145541.427500", "145542.927500", "145544.427500", "145545.927500", "145547.427500", "145548.927500", "145550.427500", "145551.927500", "145553.427500", "145554.927500", "145556.427500", "145557.927500", "145559.427500", "145600.927500", "145602.427500", "145603.927500", "145605.427500", "145606.927500", "145608.427500", "145609.927500", "145611.427500", "145612.927500", "145614.427500", "145615.927500", "145617.427500", "145618.927500", "145620.427500", "145621.927500", "145623.427500", "145624.927500", "145626.427500", "145627.927500", "145629.427500", "145630.927500", "145632.427500", "145633.927500", "145635.427500", "145636.927500", "145638.427500", "145639.927500", "145641.427500", "145642.927500", "145644.427500", "145645.927500", "145647.427500", "145648.927500", "145650.427500", "145651.927500", "145653.427500", "145654.927500", "145656.427500", "145657.927500", "145659.427500", "145700.927500", "145702.427500", "145703.927500", "145705.427500", "145706.927500", "145708.427500", "145709.927500", "145711.427500", "145712.927500", "145714.427500", "145715.927500", "145717.427500", "145718.927500", "145720.427500", "145721.927500", "145723.427500", "145724.927500", "145726.427500", "145727.927500", "145729.427500", "145730.927500", "145732.427500", "145733.927500", "145735.427500", "145736.927500", "145738.427500", "145739.927500", "145741.427500", "145742.927500", "145744.427500", "145745.927500", "145747.427500", "145748.927500", "145750.427500", "145751.927500", "145753.427500", "145754.927500", "145756.427500", "145757.927500", "145759.427500", "145800.927500", "145802.427500", "145803.927500", "145805.427500", "145806.927500", "145808.427500", "145809.927500", "145811.427500", "145812.927500", "145814.427500", "145815.927500", "145817.427500", "145818.927500", "145820.427500", "145821.927500", "145823.427500", "145824.927500", "145826.427500", "145827.927500", "145829.427500", "145830.927500", "145832.427500", "145833.927500", "145835.427500", "145836.927500", "145838.427500", "145839.927500", "145841.427500", "145842.927500", "145844.427500", "145845.927500", "145847.427500", "145848.927500", "145850.427500", "145851.927500", "145853.427500", "145854.927500", "145856.427500", "145857.927500", "145859.427500", "145900.927500", "145902.427500", "145903.927500", "145905.427500", "145906.927500", "145908.427500", "145909.927500", "145911.427500", "145912.927500", "145914.427500", "145915.927500", "145917.427500", "145918.927500", "145920.427500", "145921.927500", "145923.427500", "145924.927500", "145926.427500", "145927.927500", "145929.427500", "145930.927500", "145932.427500", "145933.927500", "145935.427500", "145936.927500", "145938.427500", "145939.927500", "145941.427500", "145942.927500", "145944.427500", "145945.927500", "145947.427500", "145948.927500", "145950.427500", "145951.927500", "145953.427500", "145954.927500", "145956.427500", "145957.927500", "145959.427500", "150000.927500", "150002.427500", "150003.927500", "150005.427500", "150006.927500", "150008.427500", "150009.927500", "150011.427500", "150012.927500", "150014.427500", "150015.927500", "150017.427500", "150018.927500", "150020.427500", "150021.927500", "150023.427500", "150024.927500", "150026.427500", "150027.927500", "150029.427500", "150030.927500", "150032.427500", "150033.927500", "150035.427500", "150036.927500", "150038.427500", "150039.927500", "150041.427500", "150042.927500", "150044.427500", "150045.927500", "150047.427500", "150048.927500", "150050.427500", "150051.927500", "150053.427500", "150054.927500", "150056.427500", "150057.927500", "150059.427500", "150100.927500", "150102.427500", "150103.927500", "150105.427500", "150106.927500", "150108.427500", "150109.927500", "150111.427500", "150112.927500", "150114.427500", "150115.927500", "150117.427500", "150118.927500", "150120.427500", "150121.927500", "150123.427500", "150124.927500", "150126.427500", "150127.927500", "150129.427500", "150130.927500", "150132.427500", "150133.927500", "150135.427500", "150136.927500", "150138.427500", "150139.927500", "150141.427500", "150142.927500", "150144.427500", "150145.927500", "150147.427500", "150148.927500", "150150.427500", "150151.927500", "150153.427500", "150154.927500", "150156.427500", "150157.927500", "150159.427500", "150200.927500", "150202.427500", "150203.927500", "150205.427500", "150206.927500", "150208.427500", "150209.927500", "150211.427500", "150212.927500", "150214.427500", "150215.927500", "150217.427500", "150218.927500", "150220.427500", "150221.927500", "150223.427500", "150224.927500", "150226.427500", "150227.927500", "150229.427500", "150230.927500", "150232.427500", "150233.927500", "150235.427500", "150236.927500", "150238.427500", "150239.927500", "150241.427500", "150242.927500", "150244.427500", "150245.927500", "150247.427500", "150248.927500", "150250.427500", "150251.927500", "150253.427500", "150254.927500", "150256.427500", "150257.927500", "150259.427500", "150300.927500", "150302.427500", "150303.927500", "150305.427500", "150306.927500", "150308.427500", "150309.927500", "150311.427500", "150312.927500", "150314.427500", "150315.927500", "150317.427500", "150318.927500", "150320.427500", "150321.927500", "150323.427500", "150324.927500", "150326.427500", "150327.927500", "150329.427500", "150330.927500", "150332.427500", "150333.927500", "150335.427500", "150336.927500", "150338.427500", "150339.927500", "150341.427500", "150342.927500", "150344.427500", "150345.927500", "150347.427500", "150348.927500", "150350.427500", "150351.927500", "150353.427500", "150354.927500", "150356.427500", "150357.927500", "150359.427500", "150400.927500", "150402.427500", "150403.927500", "150405.427500", "150406.927500", "150408.427500", "150409.927500", "150411.427500", "150412.927500", "150414.427500", "150415.927500", "150417.427500", "150418.927500", "150420.427500", "150421.927500", "150423.427500", "150424.927500", "150426.427500", "150427.927500", "150429.427500", "150430.927500", "150432.427500", "150433.927500", "150435.427500", "150436.927500", "150438.427500", "150439.927500", "150441.427500", "150442.927500", "150444.427500", "150445.927500", "150447.427500", "150448.927500", "150450.427500", "150451.927500", "150453.427500", "150454.927500", "150456.427500", "150457.927500", "150459.427500", "150500.927500