{
  "AcquisitionMatrixPE": 106,
  "AcquisitionNumber": 1,
  "AcquisitionTime": "17:20:28.690000",
  "BandwidthPerPixelPhaseEncode": 13.477,
  "BaseResolution": 106,
  "BodyPartExamined": "BRAIN",
  "CoilCombinationMethod": "Sum of Squares",
  "ConsistencyInfo": "N4_VE11C_LATEST_20160120",
  "ConversionSoftware": "dcm2niix",
  "ConversionSoftwareVersion": "v1.0.20220720",
  "DerivedVendorReportedEchoSpacing": 0.000700005,
  "DeviceSerialNumber": "166108",
  "DwellTime": 2.6e-06,
  "EchoTime": 0.03,
  "EchoTrainLength": 80,
  "EffectiveEchoSpacing": 0.000700005,
  "FlipAngle": 62,
  "HeudiconvVersion": "1.3.0",
  "ImageComments": "Unaliased MB4/PE3/LB",
  "ImageOrientationPatientDICOM": [1, 0, 0, 0, 0.994522, -0.104528],
  "ImageOrientationText": "Tra>Cor(-6.0)",
  "ImageType": [
    "ORIGINAL",
    "PRIMARY",
    "M",
    "MB",
    "ND",
    "MOSAIC"
],
  "ImagingFrequency": 123.244,
  "InPlanePhaseEncodingDirectionDICOM": "COL",
  "InstitutionAddress": "Bedford Way 26,London,London,GB,WC1H 0AP",
  "InstitutionName": "University College",
  "InstitutionalDepartmentName": "Department",
  "MRAcquisitionType": "2D",
  "MagneticFieldStrength": 3,
  "Manufacturer": "Siemens",
  "ManufacturersModelName": "Prisma",
  "MatrixCoilMode": "SENSE",
  "Modality": "MR",
  "MultibandAccelerationFactor": 4,
  "NonlinearGradientCorrection": false,
  "PartialFourier": 0.75,
  "PatientPosition": "HFS",
  "PercentPhaseFOV": 100,
  "PercentSampling": 100,
  "PhaseEncodingDirection": "j-",
  "PhaseEncodingSteps": 80,
  "PhaseResolution": 1,
  "PixelBandwidth": 1815,
  "ProcedureStepDescription": "Egor^MovieProject2",
  "ProtocolName": "func-bold_task-motor_run-02",
  "PulseSequenceDetails": "%CustomerSeq%\\cmrr_mbep2d_bold",
  "ReceiveCoilActiveElements": "HEA;HEP",
  "ReceiveCoilName": "Head_32",
  "ReconMatrixPE": 106,
  "RepetitionTime": 1,
  "SAR": 0.0424825,
  "ScanOptions": "PFP\\FS\\EXT",
  "ScanningSequence": "EP",
  "SequenceName": "epfid2d1_106",
  "SequenceVariant": "SK\\SS",
  "SeriesDescription": "func-bold_task-motor_run-02",
  "SeriesNumber": 4,
  "ShimSetting": [-1530, 571, 7439, 517, -82, 195, 256, -111],
  "SliceThickness": 2,
  "SliceTiming": [0, 0.535, 0.09, 0.625, 0.1775, 0.7125, 0.2675, 0.8025, 0.3575, 0.8925, 0.445, 0, 0.535, 0.09, 0.625, 0.1775, 0.7125, 0.2675, 0.8025, 0.3575, 0.8925, 0.445, 0, 0.535, 0.09, 0.625, 0.1775, 0.7125, 0.2675, 0.8025, 0.3575, 0.8925, 0.445, 0, 0.535, 0.09, 0.625, 0.1775, 0.7125, 0.2675, 0.8025, 0.3575, 0.8925, 0.445],
  "SoftwareVersions": "syngo MR E11",
  "SpacingBetweenSlices": 2,
  "StationName": "AWP166108",
  "TaskName": "somatotopy",
  "TotalReadoutTime": 0.0735005,
  "TxRefAmp": 231.881,
  "WipMemBlock": "54889422-a97e-4c15-a0f1-3c4742bf96f1||Sequence: R016 ve11c/master r/e634e98; Dec 19 2017 11:00:25 by eja",
  "dcmmeta_affine": [
    [-2.0, 0.0, 0.0, 106.0],
    [0.0, 1.9890438318252563, -0.20905691385269165, -93.44660949707031],
    [0.0, 0.20905691385269165, 1.9890437126159668, -17.52996063232422],
    [0.0, 0.0, 0.0, 1.0]
],
  "dcmmeta_reorient_transform": [
    [0.0, -1.0, 0.0, 105.0],
    [1.0, 0.0, 0.0, 0.0],
    [0.0, 0.0, 1.0, 0.0],
    [0.0, 0.0, 0.0, 1.0]
],
  "dcmmeta_shape": [106, 106, 44, 469],
  "dcmmeta_slice_dim": 2,
  "dcmmeta_version": 0.6,
  "global": {
    "const": {
      "AcquisitionMatrix": [106, 0, 0, 106],
      "AngioFlag": "N",
      "BitsAllocated": 16,
      "BitsStored": 16,
      "BodyPartExamined": "BRAIN",
      "CardiacNumberOfImages": 1,
      "Columns": 742,
      "EchoNumbers": 1,
      "EchoTime": 30.0,
      "EchoTrainLength": 80,
      "FlipAngle": 62.0,
      "HighBit": 15,
      "ImageOrientationPatient": [1.0, 0.0, 0.0, 0.0, 0.99452189574418, -0.1045284596912],
      "ImagePositionPatient": [-742.0, -747.91891687686, 70.901116217268],
      "ImageType": [
        "ORIGINAL",
        "PRIMARY",
        "M",
        "MB",
        "ND",
        "MOSAIC"
],
      "ImagedNucleus": "1H",
      "ImagingFrequency": 123.243631,
      "InPlanePhaseEncodingDirection": "COL",
      "MRAcquisitionType": "2D",
      "MagneticFieldStrength": 3.0,
      "Manufacturer": "SIEMENS",
      "ManufacturerModelName": "Prisma",
      "Modality": "MR",
      "NominalInterval": 0,
      "NumberOfAverages": 1.0,
      "NumberOfPhaseEncodingSteps": 80,
      "PercentPhaseFieldOfView": 100.0,
      "PercentSampling": 100.0,
      "PerformedProcedureStepStartTime": "165755.468000",
      "PhotometricInterpretation": "MONOCHROME2",
      "PixelBandwidth": 1815.0,
      "PixelRepresentation": 0,
      "PixelSpacing": [2.0, 2.0],
      "ProtocolName": "func-bold_task-motor_run-02",
      "RepetitionTime": 1000.0,
      "Rows": 742,
      "SAR": 0.04248253285221,
      "SamplesPerPixel": 1,
      "ScanOptions": [
        "PFP",
        "FS",
        "EXT"
],
      "ScanningSequence": "EP",
      "SequenceName": "epfid2d1_106",
      "SequenceVariant": [
        "SK",
        "SS"
],
      "SeriesDescription": "func-bold_task-motor_run-02",
      "SeriesNumber": 4,
      "SeriesTime": "172055.165000",
      "SliceLocation": -7.6660998442362,
      "SliceThickness": 2.0,
      "SmallestImagePixelValue": 0,
      "SoftwareVersions": "syngo MR E11",
      "SpacingBetweenSlices": 1.9999999658201,
      "SpecificCharacterSet": "ISO_IR 100",
      "StudyID": "1",
      "StudyTime": "165755.404000",
      "TransmitCoilName": "Body",
      "VariableFlipAngleFlag": "N",
      "WindowCenterWidthExplanation": "Algo1",
      "dBdt": 0.0},
    "slices": {}
  },
  "time": {
    "samples": {
      "AcquisitionNumber": [1, 2, 3, 4, 5, 6, 7, 8, 9, 10, 11, 12, 13, 14, 15, 16, 17, 18, 19, 20, 21, 22, 23, 24, 25, 26, 27, 28, 29, 30, 31, 32, 33, 34, 35, 36, 37, 38, 39, 40, 41, 42, 43, 44, 45, 46, 47, 48, 49, 50, 51, 52, 53, 54, 55, 56, 57, 58, 59, 60, 61, 62, 63, 64, 65, 66, 67, 68, 69, 70, 71, 72, 73, 74, 75, 76, 77, 78, 79, 80, 81, 82, 83, 84, 85, 86, 87, 88, 89, 90, 91, 92, 93, 94, 95, 96, 97, 98, 99, 100, 101, 102, 103, 104, 105, 106, 107, 108, 109, 110, 111, 112, 113, 114, 115, 116, 117, 118, 119, 120, 121, 122, 123, 124, 125, 126, 127, 128, 129, 130, 131, 132, 133, 134, 135, 136, 137, 138, 139, 140, 141, 142, 143, 144, 145, 146, 147, 148, 149, 150, 151, 152, 153, 154, 155, 156, 157, 158, 159, 160, 161, 162, 163, 164, 165, 166, 167, 168, 169, 170, 171, 172, 173, 174, 175, 176, 177, 178, 179, 180, 181, 182, 183, 184, 185, 186, 187, 188, 189, 190, 191, 192, 193, 194, 195, 196, 197, 198, 199, 200, 201, 202, 203, 204, 205, 206, 207, 208, 209, 210, 211, 212, 213, 214, 215, 216, 217, 218, 219, 220, 221, 222, 223, 224, 225, 226, 227, 228, 229, 230, 231, 232, 233, 234, 235, 236, 237, 238, 239, 240, 241, 242, 243, 244, 245, 246, 247, 248, 249, 250, 251, 252, 253, 254, 255, 256, 257, 258, 259, 260, 261, 262, 263, 264, 265, 266, 267, 268, 269, 270, 271, 272, 273, 274, 275, 276, 277, 278, 279, 280, 281, 282, 283, 284, 285, 286, 287, 288, 289, 290, 291, 292, 293, 294, 295, 296, 297, 298, 299, 300, 301, 302, 303, 304, 305, 306, 307, 308, 309, 310, 311, 312, 313, 314, 315, 316, 317, 318, 319, 320, 321, 322, 323, 324, 325, 326, 327, 328, 329, 330, 331, 332, 333, 334, 335, 336, 337, 338, 339, 340, 341, 342, 343, 344, 345, 346, 347, 348, 349, 350, 351, 352, 353, 354, 355, 356, 357, 358, 359, 360, 361, 362, 363, 364, 365, 366, 367, 368, 369, 370, 371, 372, 373, 374, 375, 376, 377, 378, 379, 380, 381, 382, 383, 384, 385, 386, 387, 388, 389, 390, 391, 392, 393, 394, 395, 396, 397, 398, 399, 400, 401, 402, 403, 404, 405, 406, 407, 408, 409, 410, 411, 412, 413, 414, 415, 416, 417, 418, 419, 420, 421, 422, 423, 424, 425, 426, 427, 428, 429, 430, 431, 432, 433, 434, 435, 436, 437, 438, 439, 440, 441, 442, 443, 444, 445, 446, 447, 448, 449, 450, 451, 452, 453, 454, 455, 456, 457, 458, 459, 460, 461, 462, 463, 464, 465, 466, 467, 468, 469],
      "AcquisitionTime": ["172028.690000", "172029.690000", "172030.690000", "172031.690000", "172032.690000", "172033.690000", "172034.690000", "172035.690000", "172036.690000", "172037.690000", "172038.690000", "172039.690000", "172040.690000", "172041.690000", "172042.690000", "172043.690000", "172044.690000", "172045.690000", "172046.690000", "172047.690000", "172048.690000", "172049.690000", "172050.690000", "172051.690000", "172052.690000", "172053.690000", "172054.690000", "172055.690000", "172056.690000", "172057.690000", "172058.690000", "172059.690000", "172100.690000", "172101.690000", "172102.690000", "172103.690000", "172104.690000", "172105.690000", "172106.690000", "172107.690000", "172108.690000", "172109.690000", "172110.690000", "172111.690000", "172112.690000", "172113.690000", "172114.690000", "172115.690000", "172116.690000", "172117.690000", "172118.690000", "172119.690000", "172120.690000", "172121.690000", "172122.690000", "172123.690000", "172124.690000", "172125.690000", "172126.690000", "172127.690000", "172128.690000", "172129.690000", "172130.690000", "172131.690000", "172132.690000", "172133.690000", "172134.690000", "172135.690000", "172136.690000", "172137.690000", "172138.690000", "172139.690000", "172140.690000", "172141.690000", "172142.690000", "172143.690000", "172144.690000", "172145.690000", "172146.690000", "172147.690000", "172148.690000", "172149.690000", "172150.690000", "172151.690000", "172152.690000", "172153.690000", "172154.690000", "172155.690000", "172156.690000", "172157.690000", "172158.690000", "172159.690000", "172200.690000", "172201.690000", "172202.690000", "172203.690000", "172204.690000", "172205.690000", "172206.690000", "172207.690000", "172208.690000", "172209.690000", "172210.690000", "172211.690000", "172212.690000", "172213.690000", "172214.690000", "172215.690000", "172216.690000", "172217.690000", "172218.690000", "172219.690000", "172220.690000", "172221.690000", "172222.690000", "172223.690000", "172224.690000", "172225.690000", "172226.690000", "172227.690000", "172228.690000", "172229.690000", "172230.690000", "172231.690000", "172232.690000", "172233.690000", "172234.690000", "172235.690000", "172236.690000", "172237.690000", "172238.690000", "172239.690000", "172240.690000", "172241.690000", "172242.690000", "172243.690000", "172244.690000", "172245.690000", "172246.690000", "172247.690000", "172248.690000", "172249.690000", "172250.690000", "172251.690000", "172252.690000", "172253.690000", "172254.690000", "172255.690000", "172256.690000", "172257.690000", "172258.690000", "172259.690000", "172300.690000", "172301.690000", "172302.690000", "172303.690000", "172304.690000", "172305.690000", "172306.690000", "172307.690000", "172308.690000", "172309.690000", "172310.690000", "172311.690000", "172312.690000", "172313.690000", "172314.690000", "172315.690000", "172316.690000", "172317.690000", "172318.690000", "172319.690000", "172320.690000", "172321.690000", "172322.690000", "172323.690000", "172324.690000", "172325.690000", "172326.690000", "172327.690000", "172328.690000", "172329.690000", "172330.690000", "172331.690000", "172332.690000", "172333.690000", "172334.690000", "172335.690000", "172336.690000", "172337.690000", "172338.690000", "172339.690000", "172340.690000", "172341.690000", "172342.690000", "172343.690000", "172344.690000", "172345.690000", "172346.690000", "172347.690000", "172348.690000", "172349.690000", "172350.690000", "172351.690000", "172352.690000", "172353.690000", "172354.690000", "172355.690000", "172356.690000", "172357.690000", "172358.690000", "172359.690000", "172400.690000", "172401.690000", "172402.690000", "172403.690000", "172404.690000", "172405.690000", "172406.690000", "172407.690000", "172408.690000", "172409.690000", "172410.690000", "172411.690000", "172412.690000", "172413.690000", "172414.690000", "172415.690000", "172416.690000", "172417.690000", "172418.690000", "172419.690000", "172420.690000", "172421.690000", "172422.690000", "172423.690000", "172424.690000", "172425.690000", "172426.690000", "172427.690000", "172428.690000", "172429.690000", "172430.690000", "172431.690000", "172432.690000", "172433.690000", "172434.690000", "172435.690000", "172436.690000", "172437.690000", "172438.690000", "172439.690000", "172440.690000", "172441.690000", "172442.690000", "172443.690000", "172444.690000", "172445.690000", "172446.690000", "172447.690000", "172448.690000", "172449.690000", "172450.690000", "172451.690000", "172452.690000", "172453.690000", "172454.690000", "172455.690000", "172456.690000", "172457.690000", "172458.690000", "172459.690000", "172500.690000", "172501.690000", "172502.690000", "172503.690000", "172504.690000", "172505.690000", "172506.690000", "172507.690000", "172508.690000", "172509.690000", "172510.690000", "172511.690000", "172512.690000", "172513.690000", "172514.690000", "172515.690000", "172516.690000", "172517.690000", "172518.690000", "172519.690000", "172520.690000", "172521.690000", "172522.690000", "172523.690000", "172524.690000", "172525.690000", "172526.690000", "172527.690000", "172528.690000", "172529.690000", "172530.690000", "172531.690000", "172532.690000", "172533.690000", "172534.690000", "172535.690000", "172536.690000", "172537.690000", "172538.690000", "172539.690000", "172540.690000", "172541.690000", "172542.690000", "172543.690000", "172544.690000", "172545.690000", "172546.690000", "172547.690000", "172548.690000", "172549.690000", "172550.690000", "172551.690000", "172552.690000", "172553.690000", "172554.690000", "172555.690000", "172556.690000", "172557.690000", "172558.690000", "172559.690000", "172600.690000", "172601.690000", "172602.690000", "172603.690000", "172604.690000", "172605.690000", "172606.690000", "172607.690000", "172608.690000", "172609.690000", "172610.690000", "172611.690000", "172612.690000", "172613.690000", "172614.690000", "172615.690000", "172616.690000", "172617.690000", "172618.690000", "172619.690000", "172620.690000", "172621.690000", "172622.690000", "172623.690000", "172624.690000", "172625.690000", "172626.690000", "172627.690000", "172628.690000", "172629.690000", "172630.690000", "172631.690000", "172632.690000", "172633.690000", "172634.690000", "172635.690000", "172636.690000", "172637.690000", "172638.690000", "172639.690000", "172640.690000", "172641.690000", "172642.690000", "172643.690000", "172644.690000", "172645.690000", "172646.690000", "172647.690000", "172648.690000", "172649.690000", "172650.690000", "172651.690000", "172652.690000", "172653.690000", "172654.690000", "172655.690000", "172656.690000", "172657.690000", "172658.690000", "172659.690000", "172700.690000", "172701.690000", "172702.690000", "172703.690000", "172704.690000", "172705.690000", "172706.690000", "172707.690000", "172708.690000", "172709.690000", "172710.690000", "172711.690000", "172712.690000", "172713.690000", "172714.690000", "172715.690000", "172716.690000", "172717.690000", "172718.690000", "172719.690000", "172720.690000", "172721.690000", "172722.690000", "172723.690000", "172724.690000", "172725.690000", "172726.690000", "172727.690000", "172728.690000", "172729.690000", "172730.690000", "172731.690000", "172732.690000", "172733.690000", "172734.690000", "172735.690000", "172736.690000", "172737.690000", "172738.690000", "172739.690000", "172740.690000", "172741.690000", "172742.690000", "172743.690000", "172744.690000", "172745.690000", "172746.690000", "172747.690000", "172748.690000", "172749.690000", "172750.690000", "172751.690000", "172752.690000", "172753.690000", "172754.690000", "172755.690000", "172756.690000", "172757.690000", "172758.690000", "172759.690000", "172800.690000", "172801.690000", "172802.690000", "172803.690000", "172804.690000", "172805.690000", "172806.690000", "172807.690000", "172808.690000", "172809.690000", "172810.690000", "172811.690000", "172812.690000", "172813.690000", "172814.690000", "172815.690000", "172816.690000"],
      "ContentTime": ["172055.167000", "172055.170000", "172055.172000", "172055.175000", "172055.178000", "172055.180000", "172055.182000", "172055.185000", "172055.199000", "172055.202000", "172055.204000", "172055.207000", "172055.209000", "172055.225000", "172055.228000", "172055.230000", "172055.233000", "172055.235000", "172055.238000", "172055.240000", "172055.243000", "172055.245000", "172055.248000", "172055.250000", "172055.253000", "172115.131000", "172115.134000", "172115.137000", "172115.139000", "172115.142000", "172115.144000", "172115.147000", "172115.149000", "172115.152000", "172115.154000", "172115.157000", "172115.159000", "172115.162000", "172115.164000", "172115.167000", "172115.169000", "172115.172000", "172115.182000", "172115.185000", "172115.187000", "172135.130000", "172135.133000", "172135.136000", "172135.138000", "172135.141000", "172135.143000", "172135.146000", "172135.148000", "172135.151000", "172135.153000", "172135.156000", "172135.158000", "172135.160000", "172135.163000", "172135.166000", "172135.168000", "172135.171000", "172135.173000", "172135.176000", "172135.178000", "172155.130000", "172155.133000", "172155.136000", "172155.138000", "172155.141000", "172155.143000", "172155.146000", "172155.148000", "172155.151000", "172155.153000", "172155.156000", "172155.158000", "172155.161000", "172155.163000", "172155.166000", "172155.168000", "172155.171000", "172155.173000", "172155.176000", "172155.178000", "172215.130000", "172215.133000", "172215.136000", "172215.138000", "172215.141000", "172215.143000", "172215.146000", "172215.148000", "172215.150000", "172215.153000", "172215.155000", "172215.158000", "172215.161000", "172215.163000", "172215.166000", "172215.168000", "172215.170000", "172215.173000", "172215.175000", "172215.185000", "172235.130000", "172235.134000", "172235.137000", "172235.139000", "172235.142000", "172235.144000", "172235.147000", "172235.149000", "172235.152000", "172235.154000", "172235.157000", "172235.159000", "172235.162000", "172235.164000", "172235.167000", "172235.169000", "172235.172000", "172235.174000", "172235.177000", "172235.179000", "172255.131000", "172255.134000", "172255.137000", "172255.140000", "172255.142000", "172255.145000", "172255.147000", "172255.150000", "172255.152000", "172255.155000", "172255.157000", "172255.160000", "172255.162000", "172255.165000", "172255.167000", "172255.170000", "172255.172000", "172255.174000", "172255.177000", "172255.180000", "172315.131000", "172315.134000", "172315.137000", "172315.139000", "172315.141000", "172315.144000", "172315.147000", "172315.149000", "172315.152000", "172315.154000", "172315.157000", "172315.159000", "172315.162000", "172315.164000", "172315.167000", "172315.169000", "172315.172000", "172315.174000", "172315.177000", "172315.179000", "172335.131000", "172335.134000", "172335.137000", "172335.139000", "172335.141000", "172335.144000", "172335.147000", "172335.149000", "172335.151000", "172335.154000", "172335.157000", "172335.159000", "172335.162000", "172335.164000", "172335.167000", "172335.169000", "172335.172000", "172335.174000", "172335.177000", "172335.179000", "172355.130000", "172355.133000", "172355.136000", "172355.138000", "172355.141000", "172355.143000", "172355.146000", "172355.148000", "172355.151000", "172355.153000", "172355.156000", "172355.159000", "172355.161000", "172355.164000", "172355.166000", "172355.169000", "172355.171000", "172355.174000", "172355.176000", "172355.179000", "172415.130000", "172415.133000", "172415.136000", "172415.138000", "172415.141000", "172415.143000", "172415.146000", "172415.166000", "172415.168000", "172415.171000", "172415.174000", "172415.176000", "172415.179000", "172415.181000", "172415.184000", "172415.186000", "172415.189000", "172415.191000", "172415.194000", "172415.196000", "172435.130000", "172435.133000", "172435.136000", "172435.139000", "172435.141000", "172435.144000", "172435.146000", "172435.149000", "172435.151000", "172435.154000", "172435.156000", "172435.159000", "172435.161000", "172435.164000", "172435.166000", "172435.169000", "172435.171000", "172435.174000", "172435.176000", "172435.179000", "172455.130000", "172455.133000", "172455.136000", "172455.138000", "172455.141000", "172455.143000", "172455.146000", "172455.148000", "172455.151000", "172455.153000", "172455.156000", "172455.158000", "172455.161000", "172455.163000", "172455.166000", "172455.168000", "172455.170000", "172455.173000", "172455.175000", "172455.178000", "172515.131000", "172515.134000", "172515.137000", "172515.139000", "172515.142000", "172515.144000", "172515.147000", "172515.150000", "172515.152000", "172515.155000", "172515.157000", "172515.160000", "172515.162000", "172515.165000", "172515.167000", "172515.170000", "172515.173000", "172515.175000", "172515.178000", "172515.180000", "172535.131000", "172535.134000", "172535.137000", "172535.139000", "172535.142000", "172535.144000", "172535.147000", "172535.149000", "172535.152000", "172535.154000", "172535.157000", "172535.159000", "172535.162000", "172535.164000", "172535.167000", "172535.169000", "172535.172000", "172535.174000", "172535.177000", "172535.179000", "172555.131000", "172555.134000", "172555.137000", "172555.139000", "172555.142000", "172555.144000", "172555.147000", "172555.149000", "172555.152000", "172555.154000", "172555.157000", "172555.159000", "172555.162000", "172555.164000", "172555.167000", "172555.169000", "172555.172000", "172555.174000", "172555.177000", "172555.179000", "172615.130000", "172615.133000", "172615.136000", "172615.138000", "172615.141000", "172615.143000", "172615.146000", "172615.148000", "172615.151000", "172615.153000", "172615.156000", "172615.158000", "172615.161000", "172615.163000", "172615.166000", "172615.168000", "172615.171000", "172615.173000", "172615.176000", "172615.179000", "172635.130000", "172635.133000", "172635.136000", "172635.138000", "172635.141000", "172635.143000", "172635.146000", "172635.148000", "172635.151000", "172635.153000", "172635.156000", "172635.158000", "172635.161000", "172635.163000", "172635.166000", "172635.168000", "172635.171000", "172635.173000", "172635.176000", "172635.178000", "172655.130000", "172655.133000", "172655.136000", "172655.138000", "172655.140000", "172655.143000", "172655.145000", "172655.148000", "172655.150000", "172655.153000", "172655.155000", "172655.158000", "172655.160000", "172655.163000", "172655.165000", "172655.168000", "172655.170000", "172655.173000", "172655.175000", "172655.178000", "172715.131000", "172715.133000", "172715.136000", "172715.138000", "172715.141000", "172715.143000", "172715.146000", "172715.148000", "172715.151000", "172715.153000", "172715.156000", "172715.158000", "172715.161000", "172715.163000", "172715.166000", "172715.169000", "172715.171000", "172715.173000", "172715.176000", "172715.178000", "172735.131000", "172735.134000", "172735.137000", "172735.139000", "172735.142000", "172735.155000", "172735.157000", "172735.160000", "172735.162000", "172735.165000", "172735.167000", "172735.170000", "172735.172000", "172735.175000", "172735.177000", "172735.180000", "172735.182000", "172735.185000", "172735.187000", "172735.190000", "172755.131000", "172755.134000", "172755.137000", "172755.139000", "172755.142000", "172755.144000", "172755.147000", "172755.149000", "172755.152000", "172755.154000", "172755.157000", "172755.159000", "172755.162000", "172755.164000", "172755.167000", "172755.169000", "172755.172000", "172755.174000", "172755.177000", "172755.179000", "172815.131000", "172815.134000", "172815.137000", "172815.139000", "172815.142000", "172815.144000", "172815.147000", "172815.149000", "172815.152000", "172815.154000", "172815.157000", "172815.159000", "172815.162000", "172815.164000", "172815.167000", "172815.170000", "172815.172000", "172815.175000", "172815.177000", "172815.180000", "172818.458000", "172818.461000", "172818.464000", "172818.466000"],
