{
  "AcquisitionMatrixPE": 106,
  "AcquisitionNumber": 1,
  "AcquisitionTime": "17:29:24.095000",
  "BandwidthPerPixelPhaseEncode": 13.477,
  "BaseResolution": 106,
  "BodyPartExamined": "BRAIN",
  "CoilCombinationMethod": "Sum of Squares",
  "ConsistencyInfo": "N4_VE11C_LATEST_20160120",
  "ConversionSoftware": "dcm2niix",
  "ConversionSoftwareVersion": "v1.0.20220720",
  "DerivedVendorReportedEchoSpacing": 0.000700005,
  "DeviceSerialNumber": "166108",
  "DwellTime": 2.6e-06,
  "EchoTime": 0.03,
  "EchoTrainLength": 80,
  "EffectiveEchoSpacing": 0.000700005,
  "FlipAngle": 62,
  "HeudiconvVersion": "1.3.0",
  "ImageComments": "Unaliased MB4/PE3/LB",
  "ImageOrientationPatientDICOM": [1, 0, 0, 0, 0.994522, -0.104528],
  "ImageOrientationText": "Tra>Cor(-6.0)",
  "ImageType": [
    "ORIGINAL",
    "PRIMARY",
    "M",
    "MB",
    "ND",
    "MOSAIC"
],
  "ImagingFrequency": 123.244,
  "InPlanePhaseEncodingDirectionDICOM": "COL",
  "InstitutionAddress": "Bedford Way 26,London,London,GB,WC1H 0AP",
  "InstitutionName": "University College",
  "InstitutionalDepartmentName": "Department",
  "MRAcquisitionType": "2D",
  "MagneticFieldStrength": 3,
  "Manufacturer": "Siemens",
  "ManufacturersModelName": "Prisma",
  "MatrixCoilMode": "SENSE",
  "Modality": "MR",
  "MultibandAccelerationFactor": 4,
  "NonlinearGradientCorrection": false,
  "PartialFourier": 0.75,
  "PatientPosition": "HFS",
  "PercentPhaseFOV": 100,
  "PercentSampling": 100,
  "PhaseEncodingDirection": "j-",
  "PhaseEncodingSteps": 80,
  "PhaseResolution": 1,
  "PixelBandwidth": 1815,
  "ProcedureStepDescription": "Egor^MovieProject2",
  "ProtocolName": "func-bold_task-motor_run-01",
  "PulseSequenceDetails": "%CustomerSeq%\\cmrr_mbep2d_bold",
  "ReceiveCoilActiveElements": "HEA;HEP",
  "ReceiveCoilName": "Head_32",
  "ReconMatrixPE": 106,
  "RepetitionTime": 1,
  "SAR": 0.0424817,
  "ScanOptions": "PFP\\FS\\EXT",
  "ScanningSequence": "EP",
  "SequenceName": "epfid2d1_106",
  "SequenceVariant": "SK\\SS",
  "SeriesDescription": "func-bold_task-motor_run-01",
  "SeriesNumber": 6,
  "ShimSetting": [-1530, 571, 7439, 517, -82, 195, 256, -111],
  "SliceThickness": 2,
  "SliceTiming": [0, 0.535, 0.0875, 0.6225, 0.1775, 0.7125, 0.2675, 0.8, 0.355, 0.89, 0.445, 0, 0.535, 0.0875, 0.6225, 0.1775, 0.7125, 0.2675, 0.8, 0.355, 0.89, 0.445, 0, 0.535, 0.0875, 0.6225, 0.1775, 0.7125, 0.2675, 0.8, 0.355, 0.89, 0.445, 0, 0.535, 0.0875, 0.6225, 0.1775, 0.7125, 0.2675, 0.8, 0.355, 0.89, 0.445],
  "SoftwareVersions": "syngo MR E11",
  "SpacingBetweenSlices": 2,
  "StationName": "AWP166108",
  "TaskName": "somatotopy",
  "TotalReadoutTime": 0.0735005,
  "TxRefAmp": 231.881,
  "WipMemBlock": "d1d83519-19c5-48bf-8b39-d04439d2fff1||Sequence: R016 ve11c/master r/e634e98; Dec 19 2017 11:00:25 by eja",
  "dcmmeta_affine": [
    [-2.0, 0.0, 0.0, 106.0],
    [0.0, 1.9890438318252563, -0.20905691385269165, -93.44660949707031],
    [0.0, 0.20905691385269165, 1.9890437126159668, -17.52996063232422],
    [0.0, 0.0, 0.0, 1.0]
],
  "dcmmeta_reorient_transform": [
    [0.0, -1.0, 0.0, 105.0],
    [1.0, 0.0, 0.0, 0.0],
    [0.0, 0.0, 1.0, 0.0],
    [0.0, 0.0, 0.0, 1.0]
],
  "dcmmeta_shape": [106, 106, 44, 467],
  "dcmmeta_slice_dim": 2,
  "dcmmeta_version": 0.6,
  "global": {
    "const": {
      "AcquisitionMatrix": [106, 0, 0, 106],
      "AngioFlag": "N",
      "BitsAllocated": 16,
      "BitsStored": 16,
      "BodyPartExamined": "BRAIN",
      "CardiacNumberOfImages": 1,
      "Columns": 742,
      "EchoNumbers": 1,
      "EchoTime": 30.0,
      "EchoTrainLength": 80,
      "FlipAngle": 62.0,
      "HighBit": 15,
      "ImageOrientationPatient": [1.0, 0.0, 0.0, 0.0, 0.99452189574418, -0.1045284596912],
      "ImagePositionPatient": [-742.0, -747.91891687686, 70.901116217268],
      "ImageType": [
        "ORIGINAL",
        "PRIMARY",
        "M",
        "MB",
        "ND",
        "MOSAIC"
],
      "ImagedNucleus": "1H",
      "ImagingFrequency": 123.243631,
      "InPlanePhaseEncodingDirection": "COL",
      "MRAcquisitionType": "2D",
      "MagneticFieldStrength": 3.0,
      "Manufacturer": "SIEMENS",
      "ManufacturerModelName": "Prisma",
      "Modality": "MR",
      "NominalInterval": 0,
      "NumberOfAverages": 1.0,
      "NumberOfPhaseEncodingSteps": 80,
      "PercentPhaseFieldOfView": 100.0,
      "PercentSampling": 100.0,
      "PerformedProcedureStepStartTime": "165755.468000",
      "PhotometricInterpretation": "MONOCHROME2",
      "PixelBandwidth": 1815.0,
      "PixelRepresentation": 0,
      "PixelSpacing": [2.0, 2.0],
      "ProtocolName": "func-bold_task-motor_run-01",
      "RepetitionTime": 1000.0,
      "Rows": 742,
      "SAR": 0.04248173365515,
      "SamplesPerPixel": 1,
      "ScanOptions": [
        "PFP",
        "FS",
        "EXT"
],
      "ScanningSequence": "EP",
      "SequenceName": "epfid2d1_106",
      "SequenceVariant": [
        "SK",
        "SS"
],
      "SeriesDescription": "func-bold_task-motor_run-01",
      "SeriesNumber": 6,
      "SeriesTime": "172951.930000",
      "SliceLocation": -7.6660998442362,
      "SliceThickness": 2.0,
      "SmallestImagePixelValue": 0,
      "SoftwareVersions": "syngo MR E11",
      "SpacingBetweenSlices": 1.9999999658201,
      "SpecificCharacterSet": "ISO_IR 100",
      "StudyID": "1",
      "StudyTime": "165755.404000",
      "TransmitCoilName": "Body",
      "VariableFlipAngleFlag": "N",
      "WindowCenterWidthExplanation": "Algo1",
      "dBdt": 0.0},
    "slices": {}
  },
  "time": {
    "samples": {
      "AcquisitionNumber": [1, 2, 3, 4, 5, 6, 7, 8, 9, 10, 11, 12, 13, 14, 15, 16, 17, 18, 19, 20, 21, 22, 23, 24, 25, 26, 27, 28, 29, 30, 31, 32, 33, 34, 35, 36, 37, 38, 39, 40, 41, 42, 43, 44, 45, 46, 47, 48, 49, 50, 51, 52, 53, 54, 55, 56, 57, 58, 59, 60, 61, 62, 63, 64, 65, 66, 67, 68, 69, 70, 71, 72, 73, 74, 75, 76, 77, 78, 79, 80, 81, 82, 83, 84, 85, 86, 87, 88, 89, 90, 91, 92, 93, 94, 95, 96, 97, 98, 99, 100, 101, 102, 103, 104, 105, 106, 107, 108, 109, 110, 111, 112, 113, 114, 115, 116, 117, 118, 119, 120, 121, 122, 123, 124, 125, 126, 127, 128, 129, 130, 131, 132, 133, 134, 135, 136, 137, 138, 139, 140, 141, 142, 143, 144, 145, 146, 147, 148, 149, 150, 151, 152, 153, 154, 155, 156, 157, 158, 159, 160, 161, 162, 163, 164, 165, 166, 167, 168, 169, 170, 171, 172, 173, 174, 175, 176, 177, 178, 179, 180, 181, 182, 183, 184, 185, 186, 187, 188, 189, 190, 191, 192, 193, 194, 195, 196, 197, 198, 199, 200, 201, 202, 203, 204, 205, 206, 207, 208, 209, 210, 211, 212, 213, 214, 215, 216, 217, 218, 219, 220, 221, 222, 223, 224, 225, 226, 227, 228, 229, 230, 231, 232, 233, 234, 235, 236, 237, 238, 239, 240, 241, 242, 243, 244, 245, 246, 247, 248, 249, 250, 251, 252, 253, 254, 255, 256, 257, 258, 259, 260, 261, 262, 263, 264, 265, 266, 267, 268, 269, 270, 271, 272, 273, 274, 275, 276, 277, 278, 279, 280, 281, 282, 283, 284, 285, 286, 287, 288, 289, 290, 291, 292, 293, 294, 295, 296, 297, 298, 299, 300, 301, 302, 303, 304, 305, 306, 307, 308, 309, 310, 311, 312, 313, 314, 315, 316, 317, 318, 319, 320, 321, 322, 323, 324, 325, 326, 327, 328, 329, 330, 331, 332, 333, 334, 335, 336, 337, 338, 339, 340, 341, 342, 343, 344, 345, 346, 347, 348, 349, 350, 351, 352, 353, 354, 355, 356, 357, 358, 359, 360, 361, 362, 363, 364, 365, 366, 367, 368, 369, 370, 371, 372, 373, 374, 375, 376, 377, 378, 379, 380, 381, 382, 383, 384, 385, 386, 387, 388, 389, 390, 391, 392, 393, 394, 395, 396, 397, 398, 399, 400, 401, 402, 403, 404, 405, 406, 407, 408, 409, 410, 411, 412, 413, 414, 415, 416, 417, 418, 419, 420, 421, 422, 423, 424, 425, 426, 427, 428, 429, 430, 431, 432, 433, 434, 435, 436, 437, 438, 439, 440, 441, 442, 443, 444, 445, 446, 447, 448, 449, 450, 451, 452, 453, 454, 455, 456, 457, 458, 459, 460, 461, 462, 463, 464, 465, 466, 467],
      "AcquisitionTime": ["172924.095000", "172925.095000", "172926.095000", "172927.095000", "172928.095000", "172929.095000", "172930.095000", "172931.095000", "172932.095000", "172933.095000", "172934.095000", "172935.095000", "172936.095000", "172937.095000", "172938.095000", "172939.095000", "172940.095000", "172941.095000", "172942.095000", "172943.095000", "172944.095000", "172945.095000", "172946.095000", "172947.095000", "172948.095000", "172949.095000", "172950.095000", "172951.095000", "172952.095000", "172953.095000", "172954.095000", "172955.095000", "172956.095000", "172957.095000", "172958.095000", "172959.095000", "173000.095000", "173001.095000", "173002.095000", "173003.095000", "173004.095000", "173005.095000", "173006.095000", "173007.095000", "173008.095000", "173009.095000", "173010.095000", "173011.095000", "173012.095000", "173013.095000", "173014.095000", "173015.095000", "173016.095000", "173017.095000", "173018.095000", "173019.095000", "173020.095000", "173021.095000", "173022.095000", "173023.095000", "173024.095000", "173025.095000", "173026.095000", "173027.095000", "173028.095000", "173029.095000", "173030.095000", "173031.095000", "173032.095000", "173033.095000", "173034.095000", "173035.095000", "173036.095000", "173037.095000", "173038.095000", "173039.095000", "173040.095000", "173041.095000", "173042.095000", "173043.095000", "173044.095000", "173045.095000", "173046.095000", "173047.095000", "173048.095000", "173049.095000", "173050.095000", "173051.095000", "173052.095000", "173053.095000", "173054.095000", "173055.095000", "173056.095000", "173057.095000", "173058.095000", "173059.095000", "173100.095000", "173101.095000", "173102.095000", "173103.095000", "173104.095000", "173105.095000", "173106.095000", "173107.095000", "173108.095000", "173109.095000", "173110.095000", "173111.095000", "173112.095000", "173113.095000", "173114.095000", "173115.095000", "173116.095000", "173117.095000", "173118.095000", "173119.095000", "173120.095000", "173121.095000", "173122.095000", "173123.095000", "173124.095000", "173125.095000", "173126.095000", "173127.095000", "173128.095000", "173129.095000", "173130.095000", "173131.095000", "173132.095000", "173133.095000", "173134.095000", "173135.095000", "173136.095000", "173137.095000", "173138.095000", "173139.095000", "173140.095000", "173141.095000", "173142.095000", "173143.095000", "173144.095000", "173145.095000", "173146.095000", "173147.095000", "173148.095000", "173149.095000", "173150.095000", "173151.095000", "173152.095000", "173153.095000", "173154.095000", "173155.095000", "173156.095000", "173157.095000", "173158.095000", "173159.095000", "173200.095000", "173201.095000", "173202.095000", "173203.095000", "173204.095000", "173205.095000", "173206.095000", "173207.095000", "173208.095000", "173209.095000", "173210.095000", "173211.095000", "173212.095000", "173213.095000", "173214.095000", "173215.095000", "173216.095000", "173217.095000", "173218.095000", "173219.095000", "173220.095000", "173221.095000", "173222.095000", "173223.095000", "173224.095000", "173225.095000", "173226.095000", "173227.095000", "173228.095000", "173229.095000", "173230.095000", "173231.095000", "173232.095000", "173233.095000", "173234.095000", "173235.095000", "173236.095000", "173237.095000", "173238.095000", "173239.095000", "173240.095000", "173241.095000", "173242.095000", "173243.095000", "173244.095000", "173245.095000", "173246.095000", "173247.095000", "173248.095000", "173249.095000", "173250.095000", "173251.095000", "173252.095000", "173253.095000", "173254.095000", "173255.095000", "173256.095000", "173257.095000", "173258.095000", "173259.095000", "173300.095000", "173301.095000", "173302.095000", "173303.095000", "173304.095000", "173305.095000", "173306.095000", "173307.095000", "173308.095000", "173309.095000", "173310.095000", "173311.095000", "173312.095000", "173313.095000", "173314.095000", "173315.095000", "173316.095000", "173317.095000", "173318.095000", "173319.095000", "173320.095000", "173321.095000", "173322.095000", "173323.095000", "173324.095000", "173325.095000", "173326.095000", "173327.095000", "173328.095000", "173329.095000", "173330.095000", "173331.095000", "173332.095000", "173333.095000", "173334.095000", "173335.095000", "173336.095000", "173337.095000", "173338.095000", "173339.095000", "173340.095000", "173341.095000", "173342.095000", "173343.095000", "173344.095000", "173345.095000", "173346.095000", "173347.095000", "173348.095000", "173349.095000", "173350.095000", "173351.095000", "173352.095000", "173353.095000", "173354.095000", "173355.095000", "173356.095000", "173357.095000", "173358.095000", "173359.095000", "173400.095000", "173401.095000", "173402.095000", "173403.095000", "173404.095000", "173405.095000", "173406.095000", "173407.095000", "173408.095000", "173409.095000", "173410.095000", "173411.095000", "173412.095000", "173413.095000", "173414.095000", "173415.095000", "173416.095000", "173417.095000", "173418.095000", "173419.095000", "173420.095000", "173421.095000", "173422.095000", "173423.095000", "173424.095000", "173425.095000", "173426.095000", "173427.095000", "173428.095000", "173429.095000", "173430.095000", "173431.095000", "173432.095000", "173433.095000", "173434.095000", "173435.095000", "173436.095000", "173437.095000", "173438.095000", "173439.095000", "173440.095000", "173441.095000", "173442.095000", "173443.095000", "173444.095000", "173445.095000", "173446.095000", "173447.095000", "173448.095000", "173449.095000", "173450.095000", "173451.095000", "173452.095000", "173453.095000", "173454.095000", "173455.095000", "173456.095000", "173457.095000", "173458.095000", "173459.095000", "173500.095000", "173501.095000", "173502.095000", "173503.095000", "173504.095000", "173505.095000", "173506.095000", "173507.095000", "173508.095000", "173509.095000", "173510.095000", "173511.095000", "173512.095000", "173513.095000", "173514.095000", "173515.095000", "173516.095000", "173517.095000", "173518.095000", "173519.095000", "173520.095000", "173521.095000", "173522.095000", "173523.095000", "173524.095000", "173525.095000", "173526.095000", "173527.095000", "173528.095000", "173529.095000", "173530.095000", "173531.095000", "173532.095000", "173533.095000", "173534.095000", "173535.095000", "173536.095000", "173537.095000", "173538.095000", "173539.095000", "173540.095000", "173541.095000", "173542.095000", "173543.095000", "173544.095000", "173545.095000", "173546.095000", "173547.095000", "173548.095000", "173549.095000", "173550.095000", "173551.095000", "173552.095000", "173553.095000", "173554.095000", "173555.095000", "173556.095000", "173557.095000", "173558.095000", "173559.095000", "173600.095000", "173601.095000", "173602.095000", "173603.095000", "173604.095000", "173605.095000", "173606.095000", "173607.095000", "173608.095000", "173609.095000", "173610.095000", "173611.095000", "173612.095000", "173613.095000", "173614.095000", "173615.095000", "173616.095000", "173617.095000", "173618.095000", "173619.095000", "173620.095000", "173621.095000", "173622.095000", "173623.095000", "173624.095000", "173625.095000", "173626.095000", "173627.095000", "173628.095000", "173629.095000", "173630.095000", "173631.095000", "173632.095000", "173633.095000", "173634.095000", "173635.095000", "173636.095000", "173637.095000", "173638.095000", "173639.095000", "173640.095000", "173641.095000", "173642.095000", "173643.095000", "173644.095000", "173645.095000", "173646.095000", "173647.095000", "173648.095000", "173649.095000", "173650.095000", "173651.095000", "173652.095000", "173653.095000", "173654.095000", "173655.095000", "173656.095000", "173657.095000", "173658.095000", "173659.095000", "173700.095000", "173701.095000", "173702.095000", "173703.095000", "173704.095000", "173705.095000", "173706.095000", "173707.095000", "173708.095000", "173709.095000", "173710.095000"],
      "ContentTime": ["172951.932000", "172951.935000", "172951.938000", "172951.940000", "172951.942000", "172951.945000", "172951.947000", "172951.950000", "172951.957000", "172951.960000", "172951.972000", "172951.975000", "172951.977000", "172951.980000", "172951.982000", "172951.985000", "172951.987000", "172951.990000", "172951.992000", "172951.995000", "172951.997000", "172952.001000", "172952.003000", "172952.006000", "172952.008000", "172952.011000", "172952.013000", "173011.901000", "173011.905000", "173011.907000", "173011.910000", "173011.912000", "173011.915000", "173011.917000", "173011.920000", "173011.922000", "173011.925000", "173011.927000", "173011.930000", "173011.932000", "173011.944000", "173011.947000", "173011.949000", "173011.951000", "173011.954000", "173011.965000", "173011.967000", "173031.901000", "173031.904000", "173031.906000", "173031.909000", "173031.911000", "173031.914000", "173031.916000", "173031.919000", "173031.921000", "173031.923000", "173031.926000", "173031.928000", "173031.931000", "173031.933000", "173031.936000", "173031.938000", "173031.940000", "173031.943000", "173031.951000", "173031.953000", "173051.901000", "173051.903000", "173051.906000", "173051.908000", "173051.911000", "173051.913000", "173051.916000", "173051.918000", "173051.921000", "173051.923000", "173051.936000", "173051.938000", "173051.941000", "173051.943000", "173051.946000", "173051.948000", "173051.950000", "173051.953000", "173051.955000", "173051.958000", "173111.900000", "173111.903000", "173111.906000", "173111.908000", "173111.911000", "173111.913000", "173111.916000", "173111.918000", "173111.920000", "173111.923000", "173111.925000", "173111.928000", "173111.930000", "173111.933000", "173111.935000", "173111.938000", "173111.940000", "173111.943000", "173111.945000", "173111.947000", "173131.900000", "173131.903000", "173131.906000", "173131.908000", "173131.910000", "173131.913000", "173131.915000", "173131.926000", "173131.929000", "173131.931000", "173131.934000", "173131.936000", "173131.938000", "173131.941000", "173131.943000", "173131.946000", "173131.948000", "173131.951000", "173131.953000", "173131.955000", "173151.900000", "173151.903000", "173151.905000", "173151.908000", "173151.910000", "173151.913000", "173151.915000", "173151.918000", "173151.920000", "173151.923000", "173151.925000", "173151.928000", "173151.930000", "173151.933000", "173151.935000", "173151.938000", "173151.940000", "173151.942000", "173151.945000", "173151.947000", "173211.900000", "173211.903000", "173211.905000", "173211.908000", "173211.910000", "173211.913000", "173211.915000", "173211.918000", "173211.920000", "173211.923000", "173211.925000", "173211.927000", "173211.930000", "173211.932000", "173211.935000", "173211.937000", "173211.940000", "173211.942000", "173211.945000", "173211.947000", "173231.901000", "173231.904000", "173231.907000", "173231.909000", "173231.912000", "173231.926000", "173231.929000", "173231.931000", "173231.934000", "173231.936000", "173231.938000", "173231.941000", "173231.944000", "173231.946000", "173231.948000", "173231.951000", "173231.953000", "173231.956000", "173231.958000", "173231.961000", "173251.901000", "173251.904000", "173251.906000", "173251.909000", "173251.911000", "173251.914000", "173251.916000", "173251.919000", "173251.922000", "173251.924000", "173251.927000", "173251.929000", "173251.932000", "173251.934000", "173251.937000", "173251.939000", "173251.942000", "173251.944000", "173251.946000", "173251.949000", "173311.900000", "173311.903000", "173311.905000", "173311.908000", "173311.910000", "173311.913000", "173311.915000", "173311.918000", "173311.920000", "173311.923000", "173311.925000", "173311.928000", "173311.930000", "173311.932000", "173311.935000", "173311.937000", "173311.940000", "173311.942000", "173311.945000", "173311.947000", "173331.901000", "173331.903000", "173331.906000", "173331.908000", "173331.911000", "173331.913000", "173331.916000", "173331.918000", "173331.921000", "173331.923000", "173331.926000", "173331.928000", "173331.931000", "173331.933000", "173331.936000", "173331.938000", "173331.941000", "173331.943000", "173331.945000", "173331.948000", "173351.900000", "173351.903000", "173351.905000", "173351.908000", "173351.910000", "173351.913000", "173351.915000", "173351.918000", "173351.920000", "173351.923000", "173351.925000", "173351.928000", "173351.930000", "173351.933000", "173351.935000", "173351.938000", "173351.940000", "173351.943000", "173351.945000", "173351.948000", "173411.901000", "173411.903000", "173411.906000", "173411.908000", "173411.911000", "173411.913000", "173411.916000", "173411.918000", "173411.921000", "173411.923000", "173411.925000", "173411.928000", "173411.930000", "173411.933000", "173411.935000", "173411.938000", "173411.940000", "173411.943000", "173411.945000", "173411.948000", "173431.900000", "173431.903000", "173431.906000", "173431.908000", "173431.911000", "173431.913000", "173431.916000", "173431.918000", "173431.921000", "173431.923000", "173431.926000", "173431.928000", "173431.931000", "173431.933000", "173431.935000", "173431.938000", "173431.940000", "173431.943000", "173431.945000", "173431.948000", "173451.901000", "173451.904000", "173451.906000", "173451.909000", "173451.930000", "173451.932000", "173451.935000", "173451.937000", "173451.940000", "173451.942000", "173451.945000", "173451.947000", "173451.950000", "173451.952000", "173451.955000", "173451.957000", "173451.959000", "173451.962000", "173451.964000", "173451.967000", "173511.901000", "173511.903000", "173511.906000", "173511.908000", "173511.911000", "173511.913000", "173511.916000", "173511.918000", "173511.921000", "173511.923000", "173511.926000", "173511.928000", "173511.931000", "173511.933000", "173511.936000", "173511.938000", "173511.941000", "173511.944000", "173511.946000", "173511.948000", "173531.900000", "173531.903000", "173531.905000", "173531.908000", "173531.911000", "173531.913000", "173531.915000", "173531.918000", "173531.920000", "173531.923000", "173531.925000", "173531.928000", "173531.930000", "173531.933000", "173531.935000", "173531.938000", "173531.940000", "173531.943000", "173531.945000", "173531.947000", "173551.900000", "173551.903000", "173551.905000", "173551.908000", "173551.911000", "173551.913000", "173551.915000", "173551.918000", "173551.920000", "173551.923000", "173551.925000", "173551.928000", "173551.930000", "173551.933000", "173551.935000", "173551.938000", "173551.940000", "173551.943000", "173551.945000", "173551.947000", "173611.900000", "173611.903000", "173611.905000", "173611.908000", "173611.910000", "173611.913000", "173611.915000", "173611.918000", "173611.920000", "173611.923000", "173611.925000", "173611.928000", "173611.930000", "173611.933000", "173611.935000", "173611.938000", "173611.940000", "173611.943000", "173611.945000", "173611.948000", "173631.901000", "173631.903000", "173631.906000", "173631.908000", "173631.911000", "173631.913000", "173631.916000", "173631.918000", "173631.921000", "173631.924000", "173631.926000", "173631.928000", "173631.931000", "173631.933000", "173631.936000", "173631.938000", "173631.941000", "173631.943000", "173631.946000", "173631.948000", "173651.901000", "173651.903000", "173651.906000", "173651.908000", "173651.911000", "173651.914000", "173651.916000", "173651.919000", "173651.921000", "173651.924000", "173651.926000", "173651.929000", "173651.931000", "173651.934000", "173651.936000", "173651.939000", "173651.941000", "173651.944000", "173651.946000", "173651.948000", "173711.906000", "173711.910000", "173711.914000", "173711.917000", "173711.920000", "173711.922000", "173711.925000", "173711.928000", "173711.931000", "173711.933000", "173711.936000", "173711.939000", "173711.942000", "173711.945000", "173711.947000", "173711.950000", "173711.953000", "173711.955000", "173711.958000", "173711.960000"],
