{
  "AcquisitionMatrixPE": 106,
  "AcquisitionNumber": 1,
  "AcquisitionTime": "17:44:32.825000",
  "BandwidthPerPixelPhaseEncode": 16.846,
  "BaseResolution": 106,
  "BodyPartExamined": "BRAIN",
  "CoilCombinationMethod": "Sum of Squares",
  "ConsistencyInfo": "N4_VE11C_LATEST_20160120",
  "ConversionSoftware": "dcm2niix",
  "ConversionSoftwareVersion": "v1.0.20220720",
  "DerivedVendorReportedEchoSpacing": 0.000560012,
  "DeviceSerialNumber": "166108",
  "DwellTime": 1.8e-06,
  "EchoTime": 0.0352,
  "EchoTrainLength": 106,
  "EffectiveEchoSpacing": 0.000560012,
  "FlipAngle": 60,
  "HeudiconvVersion": "1.3.0",
  "ImageComments": "Unaliased MB4/PE3/LB",
  "ImageOrientationPatientDICOM": [1, 0, 0, 0, 0.965926, -0.258819],
  "ImageOrientationText": "Tra>Cor(-15.0)",
  "ImageType": [
    "ORIGINAL",
    "PRIMARY",
    "M",
    "MB",
    "ND",
    "MOSAIC"
],
  "ImagingFrequency": 123.244,
  "InPlanePhaseEncodingDirectionDICOM": "COL",
  "InstitutionAddress": "Bedford Way 26,London,London,GB,WC1H 0AP",
  "InstitutionName": "University College",
  "InstitutionalDepartmentName": "Department",
  "MRAcquisitionType": "2D",
  "MagneticFieldStrength": 3,
  "Manufacturer": "Siemens",
  "ManufacturersModelName": "Prisma",
  "MatrixCoilMode": "SENSE",
  "Modality": "MR",
  "MultibandAccelerationFactor": 4,
  "NonlinearGradientCorrection": false,
  "PartialFourier": 1,
  "PatientPosition": "HFS",
  "PercentPhaseFOV": 100,
  "PercentSampling": 100,
  "PhaseEncodingDirection": "j-",
  "PhaseEncodingSteps": 106,
  "PhaseResolution": 1,
  "PixelBandwidth": 2620,
  "ProcedureStepDescription": "Egor^MovieProject2",
  "ProtocolName": "func-bold_task-pRF_run-01",
  "PulseSequenceDetails": "%CustomerSeq%\\cmrr_mbep2d_bold",
  "ReceiveCoilActiveElements": "HEA;HEP",
  "ReceiveCoilName": "Head_32",
  "ReconMatrixPE": 106,
  "RepetitionTime": 1,
  "SAR": 0.0760973,
  "ScanOptions": "FS\\EXT",
  "ScanningSequence": "EP",
  "SequenceName": "epfid2d1_106",
  "SequenceVariant": "SK\\SS",
  "SeriesDescription": "func-bold_task-pRF_run-01",
  "SeriesNumber": 10,
  "ShimSetting": [-1537, 576, 7465, 622, -102, 198, 274, -84],
  "SliceThickness": 2,
  "SliceTiming": [0, 0.4075, 0.815, 0.2425, 0.6525, 0.08, 0.4875, 0.8975, 0.325, 0.7325, 0.1625, 0.57, 0, 0.4075, 0.815, 0.2425, 0.6525, 0.08, 0.4875, 0.8975, 0.325, 0.7325, 0.1625, 0.57, 0, 0.4075, 0.815, 0.2425, 0.6525, 0.08, 0.4875, 0.8975, 0.325, 0.7325, 0.1625, 0.57, 0, 0.4075, 0.815, 0.2425, 0.6525, 0.08, 0.4875, 0.8975, 0.325, 0.7325, 0.1625, 0.57],
  "SoftwareVersions": "syngo MR E11",
  "SpacingBetweenSlices": 2,
  "StationName": "AWP166108",
  "TaskName": "retinotopy",
  "TotalReadoutTime": 0.0588013,
  "TxRefAmp": 231.881,
  "WipMemBlock": "77862c72-ede0-4ab0-b0fd-4d17f8b67218||Sequence: R016 ve11c/master r/e634e98; Dec 19 2017 11:00:25 by eja",
  "dcmmeta_affine": [
    [-2.0, 0.0, 0.0, 106.0],
    [0.0, 1.9318516254425049, -0.517638087272644, -79.03878021240234],
    [0.0, 0.517638087272644, 1.9318516254425049, -43.939788818359375],
    [0.0, 0.0, 0.0, 1.0]
],
  "dcmmeta_reorient_transform": [
    [0.0, -1.0, 0.0, 105.0],
    [1.0, 0.0, 0.0, 0.0],
    [0.0, 0.0, 1.0, 0.0],
    [0.0, 0.0, 0.0, 1.0]
],
  "dcmmeta_shape": [106, 106, 48, 356],
  "dcmmeta_slice_dim": 2,
  "dcmmeta_version": 0.6,
  "global": {
    "const": {
      "AcquisitionMatrix": [106, 0, 0, 106],
      "AngioFlag": "N",
      "BitsAllocated": 16,
      "BitsStored": 16,
      "BodyPartExamined": "BRAIN",
      "CardiacNumberOfImages": 1,
      "Columns": 742,
      "EchoNumbers": 1,
      "EchoTime": 35.2,
      "EchoTrainLength": 106,
      "FlipAngle": 60.0,
      "HighBit": 15,
      "ImageOrientationPatient": [1.0, 0.0, 0.0, 0.0, 0.9659258278573, -0.2588190392498],
      "ImagePositionPatient": [-742.0, -738.13447144175, 175.02111741267],
      "ImageType": [
        "ORIGINAL",
        "PRIMARY",
        "M",
        "MB",
        "ND",
        "MOSAIC"
],
      "ImagedNucleus": "1H",
      "ImagingFrequency": 123.243628,
      "InPlanePhaseEncodingDirection": "COL",
      "MRAcquisitionType": "2D",
      "MagneticFieldStrength": 3.0,
      "Manufacturer": "SIEMENS",
      "ManufacturerModelName": "Prisma",
      "Modality": "MR",
      "NominalInterval": 0,
      "NumberOfAverages": 1.0,
      "NumberOfPhaseEncodingSteps": 106,
      "PercentPhaseFieldOfView": 100.0,
      "PercentSampling": 100.0,
      "PerformedProcedureStepStartTime": "165755.468000",
      "PhotometricInterpretation": "MONOCHROME2",
      "PixelBandwidth": 2620.0,
      "PixelRepresentation": 0,
      "PixelSpacing": [2.0, 2.0],
      "ProtocolName": "func-bold_task-pRF_run-01",
      "RepetitionTime": 1000.0,
      "Rows": 742,
      "SAR": 0.07609729679186,
      "SamplesPerPixel": 1,
      "ScanOptions": [
        "FS",
        "EXT"
],
      "ScanningSequence": "EP",
      "SequenceName": "epfid2d1_106",
      "SequenceVariant": [
        "SK",
        "SS"
],
      "SeriesDescription": "func-bold_task-pRF_run-01",
      "SeriesNumber": 10,
      "SeriesTime": "174515.159000",
      "SliceLocation": -21.985837006381,
      "SliceThickness": 2.0,
      "SmallestImagePixelValue": 0,
      "SoftwareVersions": "syngo MR E11",
      "SpacingBetweenSlices": 1.9999999197877,
      "SpecificCharacterSet": "ISO_IR 100",
      "StudyID": "1",
      "StudyTime": "165755.404000",
      "TransmitCoilName": "Body",
      "VariableFlipAngleFlag": "N",
      "WindowCenterWidthExplanation": "Algo1",
      "dBdt": 0.0},
    "slices": {}
  },
  "time": {
    "samples": {
      "AcquisitionNumber": [1, 2, 3, 4, 5, 6, 7, 8, 9, 10, 11, 12, 13, 14, 15, 16, 17, 18, 19, 20, 21, 22, 23, 24, 25, 26, 27, 28, 29, 30, 31, 32, 33, 34, 35, 36, 37, 38, 39, 40, 41, 42, 43, 44, 45, 46, 47, 48, 49, 50, 51, 52, 53, 54, 55, 56, 57, 58, 59, 60, 61, 62, 63, 64, 65, 66, 67, 68, 69, 70, 71, 72, 73, 74, 75, 76, 77, 78, 79, 80, 81, 82, 83, 84, 85, 86, 87, 88, 89, 90, 91, 92, 93, 94, 95, 96, 97, 98, 99, 100, 101, 102, 103, 104, 105, 106, 107, 108, 109, 110, 111, 112, 113, 114, 115, 116, 117, 118, 119, 120, 121, 122, 123, 124, 125, 126, 127, 128, 129, 130, 131, 132, 133, 134, 135, 136, 137, 138, 139, 140, 141, 142, 143, 144, 145, 146, 147, 148, 149, 150, 151, 152, 153, 154, 155, 156, 157, 158, 159, 160, 161, 162, 163, 164, 165, 166, 167, 168, 169, 170, 171, 172, 173, 174, 175, 176, 177, 178, 179, 180, 181, 182, 183, 184, 185, 186, 187, 188, 189, 190, 191, 192, 193, 194, 195, 196, 197, 198, 199, 200, 201, 202, 203, 204, 205, 206, 207, 208, 209, 210, 211, 212, 213, 214, 215, 216, 217, 218, 219, 220, 221, 222, 223, 224, 225, 226, 227, 228, 229, 230, 231, 232, 233, 234, 235, 236, 237, 238, 239, 240, 241, 242, 243, 244, 245, 246, 247, 248, 249, 250, 251, 252, 253, 254, 255, 256, 257, 258, 259, 260, 261, 262, 263, 264, 265, 266, 267, 268, 269, 270, 271, 272, 273, 274, 275, 276, 277, 278, 279, 280, 281, 282, 283, 284, 285, 286, 287, 288, 289, 290, 291, 292, 293, 294, 295, 296, 297, 298, 299, 300, 301, 302, 303, 304, 305, 306, 307, 308, 309, 310, 311, 312, 313, 314, 315, 316, 317, 318, 319, 320, 321, 322, 323, 324, 325, 326, 327, 328, 329, 330, 331, 332, 333, 334, 335, 336, 337, 338, 339, 340, 341, 342, 343, 344, 345, 346, 347, 348, 349, 350, 351, 352, 353, 354, 355, 356],
      "AcquisitionTime": ["174432.825000", "174433.825000", "174434.825000", "174435.825000", "174436.825000", "174437.825000", "174438.825000", "174439.825000", "174440.825000", "174441.825000", "174442.825000", "174443.825000", "174444.825000", "174445.825000", "174446.825000", "174447.825000", "174448.825000", "174449.825000", "174450.825000", "174451.825000", "174452.825000", "174453.825000", "174454.825000", "174455.825000", "174456.825000", "174457.825000", "174458.825000", "174459.825000", "174500.825000", "174501.825000", "174502.825000", "174503.825000", "174504.825000", "174505.825000", "174506.825000", "174507.825000", "174508.825000", "174509.825000", "174510.825000", "174511.825000", "174512.825000", "174513.825000", "174514.825000", "174515.825000", "174516.825000", "174517.825000", "174518.825000", "174519.825000", "174520.825000", "174521.825000", "174522.825000", "174523.825000", "174524.825000", "174525.825000", "174526.825000", "174527.825000", "174528.825000", "174529.825000", "174530.825000", "174531.825000", "174532.825000", "174533.825000", "174534.825000", "174535.825000", "174536.825000", "174537.825000", "174538.825000", "174539.825000", "174540.825000", "174541.825000", "174542.825000", "174543.825000", "174544.825000", "174545.825000", "174546.825000", "174547.825000", "174548.825000", "174549.825000", "174550.825000", "174551.825000", "174552.825000", "174553.825000", "174554.825000", "174555.825000", "174556.825000", "174557.825000", "174558.825000", "174559.825000", "174600.825000", "174601.825000", "174602.825000", "174603.825000", "174604.825000", "174605.825000", "174606.825000", "174607.825000", "174608.825000", "174609.825000", "174610.825000", "174611.825000", "174612.825000", "174613.825000", "174614.825000", "174615.825000", "174616.825000", "174617.825000", "174618.825000", "174619.825000", "174620.825000", "174621.825000", "174622.825000", "174623.825000", "174624.825000", "174625.825000", "174626.825000", "174627.825000", "174628.825000", "174629.825000", "174630.825000", "174631.825000", "174632.825000", "174633.825000", "174634.825000", "174635.825000", "174636.825000", "174637.825000", "174638.825000", "174639.825000", "174640.825000", "174641.825000", "174642.825000", "174643.825000", "174644.825000", "174645.825000", "174646.825000", "174647.825000", "174648.825000", "174649.825000", "174650.825000", "174651.825000", "174652.825000", "174653.825000", "174654.825000", "174655.825000", "174656.825000", "174657.825000", "174658.825000", "174659.825000", "174700.825000", "174701.825000", "174702.825000", "174703.825000", "174704.825000", "174705.825000", "174706.825000", "174707.825000", "174708.825000", "174709.825000", "174710.825000", "174711.825000", "174712.825000", "174713.825000", "174714.825000", "174715.825000", "174716.825000", "174717.825000", "174718.825000", "174719.825000", "174720.825000", "174721.825000", "174722.825000", "174723.825000", "174724.825000", "174725.825000", "174726.825000", "174727.825000", "174728.825000", "174729.825000", "174730.825000", "174731.825000", "174732.825000", "174733.825000", "174734.825000", "174735.825000", "174736.825000", "174737.825000", "174738.825000", "174739.825000", "174740.825000", "174741.825000", "174742.825000", "174743.825000", "174744.825000", "174745.825000", "174746.825000", "174747.825000", "174748.825000", "174749.825000", "174750.825000", "174751.825000", "174752.825000", "174753.825000", "174754.825000", "174755.825000", "174756.825000", "174757.825000", "174758.825000", "174759.825000", "174800.825000", "174801.825000", "174802.825000", "174803.825000", "174804.825000", "174805.825000", "174806.825000", "174807.825000", "174808.825000", "174809.825000", "174810.825000", "174811.825000", "174812.825000", "174813.825000", "174814.825000", "174815.825000", "174816.825000", "174817.825000", "174818.825000", "174819.825000", "174820.825000", "174821.825000", "174822.825000", "174823.825000", "174824.825000", "174825.825000", "174826.825000", "174827.825000", "174828.825000", "174829.825000", "174830.825000", "174831.825000", "174832.825000", "174833.825000", "174834.825000", "174835.825000", "174836.825000", "174837.825000", "174838.825000", "174839.825000", "174840.825000", "174841.825000", "174842.825000", "174843.825000", "174844.825000", "174845.825000", "174846.825000", "174847.825000", "174848.825000", "174849.825000", "174850.825000", "174851.825000", "174852.825000", "174853.825000", "174854.825000", "174855.825000", "174856.825000", "174857.825000", "174858.825000", "174859.825000", "174900.825000", "174901.825000", "174902.825000", "174903.825000", "174904.825000", "174905.825000", "174906.825000", "174907.825000", "174908.825000", "174909.825000", "174910.825000", "174911.825000", "174912.825000", "174913.825000", "174914.825000", "174915.825000", "174916.825000", "174917.825000", "174918.825000", "174919.825000", "174920.825000", "174921.825000", "174922.825000", "174923.825000", "174924.825000", "174925.825000", "174926.825000", "174927.825000", "174928.825000", "174929.825000", "174930.825000", "174931.825000", "174932.825000", "174933.825000", "174934.825000", "174935.825000", "174936.825000", "174937.825000", "174938.825000", "174939.825000", "174940.825000", "174941.825000", "174942.825000", "174943.825000", "174944.825000", "174945.825000", "174946.825000", "174947.825000", "174948.825000", "174949.825000", "174950.825000", "174951.825000", "174952.825000", "174953.825000", "174954.825000", "174955.825000", "174956.825000", "174957.825000", "174958.825000", "174959.825000", "175000.825000", "175001.825000", "175002.825000", "175003.825000", "175004.825000", "175005.825000", "175006.825000", "175007.825000", "175008.825000", "175009.825000", "175010.825000", "175011.825000", "175012.825000", "175013.825000", "175014.825000", "175015.825000", "175016.825000", "175017.825000", "175018.825000", "175019.825000", "175020.825000", "175021.825000", "175022.825000", "175023.825000", "175024.825000", "175025.825000", "175026.825000", "175027.825000"],
      "ContentTime": ["174515.162000", "174515.177000", "174515.179000", "174515.182000", "174515.184000", "174515.187000", "174515.189000", "174515.192000", "174515.194000", "174515.197000", "174515.200000", "174515.203000", "174515.206000", "174515.209000", "174515.211000", "174515.214000", "174515.216000", "174515.219000", "174515.221000", "174515.231000", "174515.233000", "174515.236000", "174515.238000", "174515.241000", "174515.243000", "174515.246000", "174515.248000", "174515.251000", "174515.253000", "174515.256000", "174515.259000", "174515.261000", "174515.264000", "174515.266000", "174515.269000", "174515.271000", "174515.274000", "174515.276000", "174515.279000", "174515.282000", "174515.284000", "174535.130000", "174535.133000", "174535.136000", "174535.138000", "174535.141000", "174535.143000", "174535.146000", "174535.148000", "174535.151000", "174535.154000", "174535.156000", "174535.158000", "174535.161000", "174535.163000", "174535.166000", "174535.168000", "174535.171000", "174535.173000", "174535.176000", "174535.178000", "174555.131000", "174555.134000", "174555.137000", "174555.139000", "174555.142000", "174555.144000", "174555.147000", "174555.150000", "174555.152000", "174555.155000", "174555.157000", "174555.160000", "174555.162000", "174555.164000", "174555.167000", "174555.169000", "174555.172000", "174555.174000", "174555.177000", "174555.179000", "174615.131000", "174615.134000", "174615.137000", "174615.139000", "174615.148000", "174615.150000", "174615.153000", "174615.155000", "174615.158000", "174615.160000", "174615.163000", "174615.165000", "174615.168000", "174615.170000", "174615.173000", "174615.176000", "174615.178000", "174615.181000", "174615.183000", "174615.186000", "174635.131000", "174635.134000", "174635.136000", "174635.139000", "174635.142000", "174635.144000", "174635.147000", "174635.149000", "174635.152000", "174635.154000", "174635.157000", "174635.159000", "174635.162000", "174635.164000", "174635.166000", "174635.169000", "174635.171000", "174635.174000", "174635.176000", "174635.179000", "174655.131000", "174655.134000", "174655.137000", "174655.139000", "174655.142000", "174655.144000", "174655.147000", "174655.149000", "174655.152000", "174655.154000", "174655.156000", "174655.159000", "174655.161000", "174655.164000", "174655.166000", "174655.169000", "174655.171000", "174655.183000", "174655.185000", "174655.188000", "174715.130000", "174715.133000", "174715.136000", "174715.138000", "174715.141000", "174715.143000", "174715.146000", "174715.148000", "174715.151000", "174715.153000", "174715.156000", "174715.158000", "174715.161000", "174715.163000", "174715.166000", "174715.168000", "174715.171000", "174715.173000", "174715.176000", "174715.178000", "174735.130000", "174735.133000", "174735.135000", "174735.138000", "174735.140000", "174735.143000", "174735.145000", "174735.148000", "174735.150000", "174735.153000", "174735.155000", "174735.158000", "174735.160000", "174735.163000", "174735.165000", "174735.168000", "174735.170000", "174735.173000", "174735.175000", "174735.178000", "174755.130000", "174755.133000", "174755.136000", "174755.138000", "174755.141000", "174755.143000", "174755.146000", "174755.148000", "174755.151000", "174755.153000", "174755.156000", "174755.158000", "174755.161000", "174755.163000", "174755.166000", "174755.168000", "174755.170000", "174755.173000", "174755.175000", "174755.178000", "174815.132000", "174815.134000", "174815.137000", "174815.139000", "174815.142000", "174815.145000", "174815.147000", "174815.150000", "174815.152000", "174815.155000", "174815.157000", "174815.159000", "174815.162000", "174815.164000", "174815.167000", "174815.169000", "174815.172000", "174815.174000", "174815.177000", "174815.179000", "174835.132000", "174835.135000", "174835.137000", "174835.140000", "174835.142000", "174835.145000", "174835.147000", "174835.150000", "174835.152000", "174835.155000", "174835.158000", "174835.160000", "174835.163000", "174835.165000", "174835.168000", "174835.170000", "174835.172000", "174835.175000", "174835.177000", "174835.180000", "174855.131000", "174855.134000", "174855.137000", "174855.139000", "174855.142000", "174855.144000", "174855.147000", "174855.149000", "174855.152000", "174855.154000", "174855.157000", "174855.160000", "174855.162000", "174855.165000", "174855.167000", "174855.170000", "174855.172000", "174855.185000", "174855.187000", "174855.190000", "174915.131000", "174915.134000", "174915.137000", "174915.139000", "174915.142000", "174915.144000", "174915.147000", "174915.149000", "174915.152000", "174915.154000", "174915.157000", "174915.159000", "174915.162000", "174915.164000", "174915.166000", "174915.169000", "174915.171000", "174915.174000", "174915.176000", "174915.179000", "174935.131000", "174935.133000", "174935.136000", "174935.138000", "174935.141000", "174935.143000", "174935.146000", "174935.148000", "174935.151000", "174935.161000", "174935.164000", "174935.166000", "174935.169000", "174935.171000", "174935.174000", "174935.176000", "174935.179000", "174935.181000", "174935.184000", "174935.187000", "174955.131000", "174955.133000", "174955.136000", "174955.138000", "174955.141000", "174955.144000", "174955.146000", "174955.149000", "174955.152000", "174955.154000", "174955.157000", "174955.160000", "174955.162000", "174955.165000", "174955.167000", "174955.170000", "174955.172000", "174955.175000", "174955.177000", "174955.180000", "175015.130000", "175015.133000", "175015.146000", "175015.149000", "175015.151000", "175015.154000", "175015.156000", "175015.159000", "175015.161000", "175015.164000", "175015.166000", "175015.169000", "175015.171000", "175015.174000", "175015.177000", "175015.179000", "175015.182000", "175015.206000", "175015.209000", "175015.211000", "175029.349000", "175029.352000", "175029.354000", "175029.357000", "175029.359000", "175029.362000", "175029.364000", "175029.367000", "175029.369000", "175029.372000", "175029.374000", "175029.377000", "175029.387000", "175029.390000", "175029.392000"],
      "InstanceCreationTime": ["174515.162000", "174515.177000", "174515.179000", "174515.182000", "174515.184000", "174515.187000", "174515.189000", "174515.192000", "174515.194000", "174515.197000", "174515.200000", "174515.203000", "174515.206000", "174515.209000", "174515.211000", "174515.214000", "174515.216000", "174515.219000", "174515.221000", "174515.231000", "174515.233000", "174515.236000", "174515.238000", "174515.241000", "174515.243000", "174515.246000", "174515.248000", "174515.251000", "174515.253000", "174515.256000", "174515.259000", "174515.261000", "174515.264000", "174515.266000", "174515.269000", "174515.271000", "174515.274000", "174515.276000", "174515.279000", "174515.282000", "174515.284000", "174535.130000", "174535.133000", "174535.136000", "174535.138000", "174535.141000", "174535.143000", "174535.146000", "174535.148000", "174535.151000", "174535.154000", "174535.156000", "174535.158000", "174535.161000", "174535.163000", "174535.166000", "174535.168000", "174535.171000", "174535.173000", "174535.176000", "174535.178000", "174555.131000", "174555.134000", "174555.137000", "174555.139000", "174555.142000", "174555.144000", "174555.147000", "174555.150000", "174555.152000", "174555.155000", "174555.157000", "174555.160000", "174555.162000", "174555.164000", "174555.167000", "174555.169000", "174555.172000", "174555.174000", "174555.177000", "174555.179000", "174615.131000", "174615.134000", "174615.137000", "174615.139000", "174615.148000", "174615.150000", "174615.153000", "174615.155000", "174615.158000", "174615.160000", "174615.163000", "174615.165000", "174615.168000", "174615.170000", "174615.173000", "174615.176000", "174615.178000", "174615.181000", "174615.183000", "174615.186000", "174635.131000", "174635.134000", "174635.136000", "174635.139000", "174635.142000", "174635.144000", "174635.147000", "174635.149000", "174635.152000", "174635.154000", "174635.157000", "174635.159000", "174635.162000", "174635.164000", "174635.166000", "174635.169000", "174635.171000", "174635.174000", "174635.176000", "174635.179000", "174655.131000", "174655.134000", "174655.137000", "174655.139000", "174655.142000", "174655.144000", "174655.147000", "174655.149000", "174655.152000", "174655.154000", "174655.156000", "174655.159000", "174655.161000", "174655.164000", "174655.166000", "174655.169000", "174655.171000", "174655.183000", "174655.185000", "174655.188000", "174715.130000", "174715.133000", "174715.136000", "174715.138000", "174715.141000", "174715.143000", "174715.146000", "174715.148000", "174715.151000", "174715.153000", "174715.156000", "174715.158000", "174715.161000", "174715.163000", "174715.166000", "174715.168000", "174715.171000", "174715.173000", "174715.176000", "174715.178000", "174735.130000", "174735.133000", "174735.135000", "174735.138000", "174735.140000", "174735.143000", "174735.145000", "174735.148000", "174735.150000", "174735.153000", "174735.155000", "174735.158000", "174735.160000", "174735.163000", "174735.165000", "174735.168000", "174735.170000", "174735.173000", "174735.175000", "174735.178000", "174755.130000", "174755.133000", "174755.136000", "174755.138000", "174755.141000", "174755.143000", "174755.146000", "174755.148000", "174755.151000", "174755.153000", "174755.156000", "174755.158000", "174755.161000", "174755.163000", "174755.166000", "174755.168000", "174755.170000", "174755.173000", "174755.175000", "174755.178000", "174815.132000", "174815.134000", "174815.137000", "174815.139000", "174815.142000", "174815.145000", "174815.147000", "174815.150000", "174815.152000", "174815.155000", "174815.157000", "174815.159000", "174815.162000", "174815.164000", "174815.167000", "174815.169000", "174815.172000", "174815.174000", "174815.177000", "174815.179000", "174835.132000", "174835.135000", "174835.137000", "174835.140000", "174835.142000", "174835.145000", "174835.147000", "174835.150000", "174835.152000", "174835.155000", "174835.158000", "174835.160000", "174835.163000", "174835.165000", "174835.168000", "174835.170000", "174835.172000", "174835.175000", "174835.177000", "174835.180000", "174855.131000", "174855.134000", "174855.137000", "174855.139000", "174855.142000", "174855.144000", "174855.147000", "174855.149000", "174855.152000", "174855.154000", "174855.157000", "174855.160000", "174855.162000", "174855.165000", "174855.167000", "174855.170000", "174855.172000", "174855.185000", "174855.187000", "174855.190000", "174915.131000", "174915.134000", "174915.137000", "174915.139000", "174915.142000", "174915.144000", "174915.147000", "174915.149000", "174915.152000", "174915.154000", "174915.157000", "174915.159000", "174915.162000", "174915.164000", "174915.166000", "174915.169000", "174915.171000", "174915.174000", "174915.176000", "174915.179000", "174935.131000", "174935.133000", "174935.136000", "174935.138000", "174935.141000", "174935.143000", "174935.146000", "174935.148000", "174935.151000", "174935.161000", "174935.164000", "174935.166000", "174935.169000", "174935.171000", "174935.174000", "174935.176000", "174935.179000", "174935.181000", "174935.184000", "174935.187000", "174955.131000", "174955.133000", "174955.136000", "174955.138000", "174955.141000", "174955.144000", "174955.146000", "174955.149000", "174955.152000", "174955.154000", "174955.157000", "174955.160000", "174955.162000", "174955.165000", "174955.167000", "174955.170000", "174955.172000", "174955.175000", "174955.177000", "174955.180000", "175015.130000", "175015.133000", "175015.146000", "175015.149000", "175015.151000", "175015.154000", "175015.156000", "175015.159000", "175015.161000", "175015.164000", "175015.166000", "175015.169000", "175015.171000", "175015.174000", "175015.177000", "175015.179000", "175015.182000", "175015.206000", "175015.209000", "175015.211000", "175029.349000", "175029.352000", "175029.354000", "175029.357000", "175029.359000", "175029.362000", "175029.364000", "175029.367000", "175029.369000", "175029.372000", "175029.374000", "175029.377000", "175029.387000", "175029.390000", "175029.392000"],
      "InstanceNumber": [1, 2, 3, 4, 5, 6, 7, 8, 9, 10, 11, 12, 13, 14, 15, 16, 17, 18, 19, 20, 21, 22, 23, 24, 25, 26, 27, 28, 29, 30, 31, 32, 33, 34, 35, 36, 37, 38, 39, 40, 41, 42, 43, 44, 45, 46, 47, 48, 49, 50, 51, 52, 53, 54, 55, 56, 57, 58, 59, 60, 61, 62, 63, 64, 65, 66, 67, 68, 69, 70, 71, 72, 73, 74, 75, 76, 77, 78, 79, 80, 81, 82, 83, 84, 85, 86, 87, 88, 89, 90, 91, 92, 93, 94, 95, 96, 97, 98, 99, 100, 101, 102, 103, 104, 105, 106, 107, 108, 109, 110, 111, 112, 113, 114, 115, 116, 117, 118, 119, 120, 121, 122, 123, 124, 125, 126, 127, 128, 129, 130, 131, 132, 133, 134, 135, 136, 137, 138, 139, 140, 141, 142, 143, 144, 145, 146, 147, 148, 149, 150, 151, 152, 153, 154, 155, 156, 157, 158, 159, 160, 161, 162, 163, 164, 165, 166, 167, 168, 169, 170, 171, 172, 173, 174, 175, 176, 177, 178, 179, 180, 181, 182, 183, 184, 185, 186, 187, 188, 189, 190, 191, 192, 193, 194, 195, 196, 197, 198, 199, 200, 201, 202, 203, 204, 205, 206, 207, 208, 209, 210, 211, 212, 213, 214, 215, 216, 217, 218, 219, 220, 221, 222, 223, 224, 225, 226, 227, 228, 229, 230, 231, 232, 233, 234, 235, 236, 237, 238, 239, 240, 241, 242, 243, 244, 245, 246, 247, 248, 249, 250, 251, 252, 253, 254, 255, 256, 257, 258, 259, 260, 261, 262, 263, 264, 265, 266, 267, 268, 269, 270, 271, 272, 273, 274, 275, 276, 277, 278, 279, 280, 281, 282, 283, 284, 285, 286, 287, 288, 289, 290, 291, 292, 293, 294, 295, 296, 297, 298, 299, 300, 301, 302, 303, 304, 305, 306, 307, 308, 309, 310, 311, 312, 313, 314, 315, 316, 317, 318, 319, 320, 321, 322, 323, 324, 325, 326, 327, 328, 329, 330, 331, 332, 333, 334, 335, 336, 337, 338, 339, 340, 341, 342, 343, 344, 345, 346, 347, 348, 349, 350, 351, 352, 353, 354, 355, 356],
      "LargestImagePixelValue": [10388, 9838, 9539, 9564, 9630, 9299, 9010, 9069, 9076, 9102, 9015, 8967, 9070, 9041, 9168, 9356, 9110, 9007, 9424, 9280, 9067, 8996, 9115, 9123, 9174, 9163, 9051, 9270, 9277, 9338, 9259, 9276, 9350, 9280, 9276, 9163, 9074, 9170, 8970, 9045, 8988, 8968, 8966, 9115, 9013, 9042, 9085, 9026, 9107, 8888, 9009, 9076, 9127, 9072, 8926, 9251, 9269, 9232, 9083, 9142, 8954, 9057, 9089, 9062, 9008, 9022, 9325, 9240, 9232, 9110, 8995, 9220, 9153, 9060, 9035, 9167, 9208, 9253, 9073, 9086, 9199, 9061, 9075, 9181, 9134, 9175, 9148, 9157, 9192, 9091, 9142, 9007, 8943, 9231, 9240, 9077, 9188, 9154, 9158, 9047, 9002, 9106, 9377, 9334, 9381, 9211, 9166, 9103, 9108, 9118, 9106, 9160, 9250, 9081, 9173, 9042, 8924, 8922, 9054, 9074, 9151, 9127, 9059, 9162, 9070, 9207, 9102, 9094, 9071, 9109, 9283, 9403, 9190, 9248, 9116, 9139, 9013, 8978, 9051, 9111, 8852, 9096, 9202, 9222, 9073, 9119, 9023, 9075, 9100, 9078, 9124, 9119, 8902, 8884, 9021, 8886, 8821, 9006, 9044, 8993, 9237, 9229, 9155, 9097, 8999, 9099, 8962, 8898, 8903, 8886, 8750, 8758, 8878, 8950, 8876, 9029, 8963, 9200, 9233, 9067, 8981, 9012, 9230, 9330, 9475, 9569, 9572, 9277, 9307, 9233, 9148, 9061, 8811, 8974, 8809, 8763, 8829, 8878, 8960, 9022, 8941, 8900, 8852, 8928, 9042, 8904, 8942, 8917, 8815, 8885, 8972, 9263, 9172, 9152, 9157, 9294, 9178, 9008, 9025, 9366, 9416, 9338, 9224, 9379, 9474, 9622, 9425, 9220, 9094, 9153, 9047, 9207, 9065, 8867, 8901, 8788, 9259, 9518, 9336, 9003, 8857, 8953, 9014, 9051, 9005, 9036, 8989, 9031, 9235, 9435, 9547, 9288, 9203, 9371, 9399, 9304, 9044, 8974, 8983, 8956, 8931, 8987, 8955, 8974, 8931, 8991, 8910, 8841, 8996, 9062, 8877, 8860, 8962, 8830, 9080, 8909, 8925, 9026, 9054, 8967, 9051, 9249, 9028, 9416, 9321, 8747, 8627, 8642, 8790, 8974, 9246, 9315, 9210, 8833, 8820, 8808, 8989, 8792, 8900, 8931, 9381, 9520, 9467, 9269, 9187, 9234, 9243, 9084, 9001, 9118, 9114, 8983, 8995, 9068, 8844, 9124, 9002, 9051, 9055, 8859, 9045, 8880, 9096, 9155, 9044, 9224, 9589, 9413, 9328, 9398, 9531, 9644, 9483, 9308, 9282, 9217, 9496, 9541, 9189, 9119, 9007, 8994, 8969, 9078, 9063, 9065, 8863, 9175, 9101, 8998, 9136, 9321, 9299, 8965, 9176, 9222],
