{
  "AcquisitionMatrixPE": 106,
  "AcquisitionNumber": 1,
  "AcquisitionTime": "14:09:6.875000",
  "BandwidthPerPixelPhaseEncode": 16.846,
  "BaseResolution": 106,
  "BodyPartExamined": "BRAIN",
  "CoilCombinationMethod": "Sum of Squares",
  "ConsistencyInfo": "N4_VE11C_LATEST_20160120",
  "ConversionSoftware": "dcm2niix",
  "ConversionSoftwareVersion": "v1.0.20220720",
  "DerivedVendorReportedEchoSpacing": 0.000560012,
  "DeviceSerialNumber": "166108",
  "DwellTime": 1.8e-06,
  "EchoTime": 0.0352,
  "EchoTrainLength": 106,
  "EffectiveEchoSpacing": 0.000560012,
  "FlipAngle": 60,
  "HeudiconvVersion": "1.3.0",
  "ImageComments": "Unaliased MB4/PE3/LB",
  "ImageOrientationPatientDICOM": [1, 0, 0, 0, 0.936672, -0.350207],
  "ImageOrientationText": "Tra>Cor(-20.5)",
  "ImageType": [
    "ORIGINAL",
    "PRIMARY",
    "M",
    "MB",
    "ND",
    "MOSAIC"
],
  "ImagingFrequency": 123.244,
  "InPlanePhaseEncodingDirectionDICOM": "COL",
  "InstitutionAddress": "Bedford Way 26,London,London,GB,WC1H 0AP",
  "InstitutionName": "University College",
  "InstitutionalDepartmentName": "Department",
  "MRAcquisitionType": "2D",
  "MagneticFieldStrength": 3,
  "Manufacturer": "Siemens",
  "ManufacturersModelName": "Prisma",
  "MatrixCoilMode": "SENSE",
  "Modality": "MR",
  "MultibandAccelerationFactor": 4,
  "NonlinearGradientCorrection": false,
  "PartialFourier": 1,
  "PatientPosition": "HFS",
  "PercentPhaseFOV": 100,
  "PercentSampling": 100,
  "PhaseEncodingDirection": "j-",
  "PhaseEncodingSteps": 106,
  "PhaseResolution": 1,
  "PixelBandwidth": 2620,
  "ProcedureStepDescription": "Egor^MovieProject2",
  "ProtocolName": "func-bold_task-pRF_run-01",
  "PulseSequenceDetails": "%CustomerSeq%\\cmrr_mbep2d_bold",
  "ReceiveCoilActiveElements": "HEA;HEP",
  "ReceiveCoilName": "Head_32",
  "ReconMatrixPE": 106,
  "RepetitionTime": 1,
  "SAR": 0.0717682,
  "ScanOptions": "FS\\EXT",
  "ScanningSequence": "EP",
  "SequenceName": "epfid2d1_106",
  "SequenceVariant": "SK\\SS",
  "SeriesDescription": "func-bold_task-pRF_run-01",
  "SeriesNumber": 10,
  "ShimSetting": [-1606, 635, 7419, 548, -96, 22, 0, -3],
  "SliceThickness": 2,
  "SliceTiming": [0, 0.4075, 0.8175, 0.245, 0.6525, 0.0825, 0.49, 0.8975, 0.3275, 0.735, 0.1625, 0.5725, 0, 0.4075, 0.8175, 0.245, 0.6525, 0.0825, 0.49, 0.8975, 0.3275, 0.735, 0.1625, 0.5725, 0, 0.4075, 0.8175, 0.245, 0.6525, 0.0825, 0.49, 0.8975, 0.3275, 0.735, 0.1625, 0.5725, 0, 0.4075, 0.8175, 0.245, 0.6525, 0.0825, 0.49, 0.8975, 0.3275, 0.735, 0.1625, 0.5725],
  "SoftwareVersions": "syngo MR E11",
  "SpacingBetweenSlices": 2,
  "StationName": "AWP166108",
  "TaskName": "retinotopy",
  "TotalReadoutTime": 0.0588013,
  "TxRefAmp": 235.501,
  "WipMemBlock": "d97baafd-4d6d-4605-b2d2-9875f74c413e||Sequence: R016 ve11c/master r/e634e98; Dec 19 2017 11:00:25 by eja",
  "dcmmeta_affine": [
    [-2.0, 0.0, 0.0, 106.0],
    [0.0, 1.8733443021774292, -0.7004148364067078, -68.07779693603516],
    [0.0, 0.7004148364067078, 1.8733444213867188, -55.36321258544922],
    [0.0, 0.0, 0.0, 1.0]
],
  "dcmmeta_reorient_transform": [
    [0.0, -1.0, 0.0, 105.0],
    [1.0, 0.0, 0.0, 0.0],
    [0.0, 0.0, 1.0, 0.0],
    [0.0, 0.0, 0.0, 1.0]
],
  "dcmmeta_shape": [106, 106, 48, 356],
  "dcmmeta_slice_dim": 2,
  "dcmmeta_version": 0.6,
  "global": {
    "const": {
      "AcquisitionMatrix": [106, 0, 0, 106],
      "AngioFlag": "N",
      "BitsAllocated": 16,
      "BitsStored": 16,
      "BodyPartExamined": "BRAIN",
      "CardiacNumberOfImages": 1,
      "Columns": 742,
      "EchoNumbers": 1,
      "EchoTime": 35.2,
      "EchoTrainLength": 106,
      "FlipAngle": 60.0,
      "HighBit": 15,
      "ImageOrientationPatient": [1.0, 0.0, 0.0, 0.0, 0.93667217980175, -0.3502074065257],
      "ImagePositionPatient": [-742.0, -724.34686466693, 240.91225478817],
      "ImageType": [
        "ORIGINAL",
        "PRIMARY",
        "M",
        "MB",
        "ND",
        "MOSAIC"
],
      "ImagedNucleus": "1H",
      "ImagingFrequency": 123.243672,
      "InPlanePhaseEncodingDirection": "COL",
      "MRAcquisitionType": "2D",
      "MagneticFieldStrength": 3.0,
      "Manufacturer": "SIEMENS",
      "ManufacturerModelName": "Prisma",
      "Modality": "MR",
      "NominalInterval": 0,
      "NumberOfAverages": 1.0,
      "NumberOfPhaseEncodingSteps": 106,
      "PercentPhaseFieldOfView": 100.0,
      "PercentSampling": 100.0,
      "PerformedProcedureStepStartTime": "131344.255000",
      "PhotometricInterpretation": "MONOCHROME2",
      "PixelBandwidth": 2620.0,
      "PixelRepresentation": 0,
      "PixelSpacing": [2.0, 2.0],
      "ProtocolName": "func-bold_task-pRF_run-01",
      "RepetitionTime": 1000.0,
      "Rows": 742,
      "SAR": 0.07176822460445,
      "SamplesPerPixel": 1,
      "ScanOptions": [
        "FS",
        "EXT"
],
      "ScanningSequence": "EP",
      "SequenceName": "epfid2d1_106",
      "SequenceVariant": [
        "SK",
        "SS"
],
      "SeriesDescription": "func-bold_task-pRF_run-01",
      "SeriesNumber": 10,
      "SeriesTime": "140946.833000",
      "SliceLocation": -28.01583006662,
      "SliceThickness": 2.0,
      "SmallestImagePixelValue": 0,
      "SoftwareVersions": "syngo MR E11",
      "SpacingBetweenSlices": 2.0000000062757,
      "SpecificCharacterSet": "ISO_IR 100",
      "StudyID": "1",
      "StudyTime": "131344.179000",
      "TransmitCoilName": "Body",
      "VariableFlipAngleFlag": "N",
      "WindowCenterWidthExplanation": "Algo1",
      "dBdt": 0.0},
    "slices": {}
  },
  "time": {
    "samples": {
      "AcquisitionNumber": [1, 2, 3, 4, 5, 6, 7, 8, 9, 10, 11, 12, 13, 14, 15, 16, 17, 18, 19, 20, 21, 22, 23, 24, 25, 26, 27, 28, 29, 30, 31, 32, 33, 34, 35, 36, 37, 38, 39, 40, 41, 42, 43, 44, 45, 46, 47, 48, 49, 50, 51, 52, 53, 54, 55, 56, 57, 58, 59, 60, 61, 62, 63, 64, 65, 66, 67, 68, 69, 70, 71, 72, 73, 74, 75, 76, 77, 78, 79, 80, 81, 82, 83, 84, 85, 86, 87, 88, 89, 90, 91, 92, 93, 94, 95, 96, 97, 98, 99, 100, 101, 102, 103, 104, 105, 106, 107, 108, 109, 110, 111, 112, 113, 114, 115, 116, 117, 118, 119, 120, 121, 122, 123, 124, 125, 126, 127, 128, 129, 130, 131, 132, 133, 134, 135, 136, 137, 138, 139, 140, 141, 142, 143, 144, 145, 146, 147, 148, 149, 150, 151, 152, 153, 154, 155, 156, 157, 158, 159, 160, 161, 162, 163, 164, 165, 166, 167, 168, 169, 170, 171, 172, 173, 174, 175, 176, 177, 178, 179, 180, 181, 182, 183, 184, 185, 186, 187, 188, 189, 190, 191, 192, 193, 194, 195, 196, 197, 198, 199, 200, 201, 202, 203, 204, 205, 206, 207, 208, 209, 210, 211, 212, 213, 214, 215, 216, 217, 218, 219, 220, 221, 222, 223, 224, 225, 226, 227, 228, 229, 230, 231, 232, 233, 234, 235, 236, 237, 238, 239, 240, 241, 242, 243, 244, 245, 246, 247, 248, 249, 250, 251, 252, 253, 254, 255, 256, 257, 258, 259, 260, 261, 262, 263, 264, 265, 266, 267, 268, 269, 270, 271, 272, 273, 274, 275, 276, 277, 278, 279, 280, 281, 282, 283, 284, 285, 286, 287, 288, 289, 290, 291, 292, 293, 294, 295, 296, 297, 298, 299, 300, 301, 302, 303, 304, 305, 306, 307, 308, 309, 310, 311, 312, 313, 314, 315, 316, 317, 318, 319, 320, 321, 322, 323, 324, 325, 326, 327, 328, 329, 330, 331, 332, 333, 334, 335, 336, 337, 338, 339, 340, 341, 342, 343, 344, 345, 346, 347, 348, 349, 350, 351, 352, 353, 354, 355, 356],
      "AcquisitionTime": ["140906.875000", "140907.875000", "140908.875000", "140909.875000", "140910.875000", "140911.875000", "140912.875000", "140913.875000", "140914.875000", "140915.875000", "140916.875000", "140917.875000", "140918.875000", "140919.875000", "140920.875000", "140921.875000", "140922.875000", "140923.875000", "140924.875000", "140925.875000", "140926.875000", "140927.875000", "140928.875000", "140929.875000", "140930.875000", "140931.875000", "140932.875000", "140933.875000", "140934.875000", "140935.875000", "140936.875000", "140937.875000", "140938.875000", "140939.875000", "140940.875000", "140941.875000", "140942.875000", "140943.875000", "140944.875000", "140945.875000", "140946.875000", "140947.875000", "140948.875000", "140949.875000", "140950.875000", "140951.875000", "140952.875000", "140953.875000", "140954.875000", "140955.875000", "140956.875000", "140957.875000", "140958.875000", "140959.875000", "141000.875000", "141001.875000", "141002.875000", "141003.875000", "141004.875000", "141005.875000", "141006.875000", "141007.875000", "141008.875000", "141009.875000", "141010.875000", "141011.875000", "141012.875000", "141013.875000", "141014.875000", "141015.875000", "141016.875000", "141017.875000", "141018.875000", "141019.875000", "141020.875000", "141021.875000", "141022.875000", "141023.875000", "141024.875000", "141025.875000", "141026.875000", "141027.875000", "141028.875000", "141029.875000", "141030.875000", "141031.875000", "141032.875000", "141033.875000", "141034.875000", "141035.875000", "141036.875000", "141037.875000", "141038.875000", "141039.875000", "141040.875000", "141041.875000", "141042.875000", "141043.875000", "141044.875000", "141045.875000", "141046.875000", "141047.875000", "141048.875000", "141049.875000", "141050.875000", "141051.875000", "141052.875000", "141053.875000", "141054.875000", "141055.875000", "141056.875000", "141057.875000", "141058.875000", "141059.875000", "141100.875000", "141101.875000", "141102.875000", "141103.875000", "141104.875000", "141105.875000", "141106.875000", "141107.875000", "141108.875000", "141109.875000", "141110.875000", "141111.875000", "141112.875000", "141113.875000", "141114.875000", "141115.875000", "141116.875000", "141117.875000", "141118.875000", "141119.875000", "141120.875000", "141121.875000", "141122.875000", "141123.875000", "141124.875000", "141125.875000", "141126.875000", "141127.875000", "141128.875000", "141129.875000", "141130.875000", "141131.875000", "141132.875000", "141133.875000", "141134.875000", "141135.875000", "141136.875000", "141137.875000", "141138.875000", "141139.875000", "141140.875000", "141141.875000", "141142.875000", "141143.875000", "141144.875000", "141145.875000", "141146.875000", "141147.875000", "141148.875000", "141149.875000", "141150.875000", "141151.875000", "141152.875000", "141153.875000", "141154.875000", "141155.875000", "141156.875000", "141157.875000", "141158.875000", "141159.875000", "141200.875000", "141201.875000", "141202.875000", "141203.875000", "141204.875000", "141205.875000", "141206.875000", "141207.875000", "141208.875000", "141209.875000", "141210.875000", "141211.875000", "141212.875000", "141213.875000", "141214.875000", "141215.875000", "141216.875000", "141217.875000", "141218.875000", "141219.875000", "141220.875000", "141221.875000", "141222.875000", "141223.875000", "141224.875000", "141225.875000", "141226.875000", "141227.875000", "141228.875000", "141229.875000", "141230.875000", "141231.875000", "141232.875000", "141233.875000", "141234.875000", "141235.875000", "141236.875000", "141237.875000", "141238.875000", "141239.875000", "141240.875000", "141241.875000", "141242.875000", "141243.875000", "141244.875000", "141245.875000", "141246.875000", "141247.875000", "141248.875000", "141249.875000", "141250.875000", "141251.875000", "141252.875000", "141253.875000", "141254.875000", "141255.875000", "141256.875000", "141257.875000", "141258.875000", "141259.875000", "141300.875000", "141301.875000", "141302.875000", "141303.875000", "141304.875000", "141305.875000", "141306.875000", "141307.875000", "141308.875000", "141309.875000", "141310.875000", "141311.875000", "141312.875000", "141313.875000", "141314.875000", "141315.875000", "141316.875000", "141317.875000", "141318.875000", "141319.875000", "141320.875000", "141321.875000", "141322.875000", "141323.875000", "141324.875000", "141325.875000", "141326.875000", "141327.875000", "141328.875000", "141329.875000", "141330.875000", "141331.875000", "141332.875000", "141333.875000", "141334.875000", "141335.875000", "141336.875000", "141337.875000", "141338.875000", "141339.875000", "141340.875000", "141341.875000", "141342.875000", "141343.875000", "141344.875000", "141345.875000", "141346.875000", "141347.875000", "141348.875000", "141349.875000", "141350.875000", "141351.875000", "141352.875000", "141353.875000", "141354.875000", "141355.875000", "141356.875000", "141357.875000", "141358.875000", "141359.875000", "141400.875000", "141401.875000", "141402.875000", "141403.875000", "141404.875000", "141405.875000", "141406.875000", "141407.875000", "141408.875000", "141409.875000", "141410.875000", "141411.875000", "141412.875000", "141413.875000", "141414.875000", "141415.875000", "141416.875000", "141417.875000", "141418.875000", "141419.875000", "141420.875000", "141421.875000", "141422.875000", "141423.875000", "141424.875000", "141425.875000", "141426.875000", "141427.875000", "141428.875000", "141429.875000", "141430.875000", "141431.875000", "141432.875000", "141433.875000", "141434.875000", "141435.875000", "141436.875000", "141437.875000", "141438.875000", "141439.875000", "141440.875000", "141441.875000", "141442.875000", "141443.875000", "141444.875000", "141445.875000", "141446.875000", "141447.875000", "141448.875000", "141449.875000", "141450.875000", "141451.875000", "141452.875000", "141453.875000", "141454.875000", "141455.875000", "141456.875000", "141457.875000", "141458.875000", "141459.875000", "141500.875000", "141501.875000"],
      "ContentTime": ["140946.836000", "140946.838000", "140946.841000", "140946.843000", "140946.846000", "140946.848000", "140946.851000", "140946.853000", "140946.856000", "140946.858000", "140946.861000", "140946.863000", "140946.866000", "140946.868000", "140946.871000", "140946.874000", "140946.876000", "140946.879000", "140946.881000", "140946.883000", "140946.886000", "140946.888000", "140946.891000", "140946.894000", "140946.896000", "140946.898000", "140946.910000", "140946.913000", "140946.915000", "140946.918000", "140946.921000", "140946.923000", "140946.926000", "140946.928000", "140946.931000", "140946.933000", "140946.936000", "140946.938000", "140946.941000", "141006.806000", "141006.809000", "141006.812000", "141006.814000", "141006.817000", "141006.819000", "141006.822000", "141006.824000", "141006.827000", "141006.829000", "141006.832000", "141006.834000", "141006.837000", "141006.839000", "141006.846000", "141006.849000", "141006.851000", "141006.854000", "141006.856000", "141006.859000", "141026.807000", "141026.809000", "141026.812000", "141026.814000", "141026.817000", "141026.819000", "141026.822000", "141026.824000", "141026.827000", "141026.829000", "141026.832000", "141026.834000", "141026.837000", "141026.839000", "141026.841000", "141026.844000", "141026.846000", "141026.849000", "141026.851000", "141026.854000", "141046.806000", "141046.809000", "141046.812000", "141046.814000", "141046.816000", "141046.819000", "141046.821000", "141046.824000", "141046.826000", "141046.829000", "141046.831000", "141046.834000", "141046.836000", "141046.839000", "141046.841000", "141046.844000", "141046.846000", "141046.848000", "141046.851000", "141046.853000", "141106.806000", "141106.809000", "141106.812000", "141106.814000", "141106.817000", "141106.819000", "141106.822000", "141106.824000", "141106.827000", "141106.829000", "141106.832000", "141106.834000", "141106.837000", "141106.839000", "141106.841000", "141106.844000", "141106.846000", "141106.849000", "141106.851000", "141106.860000", "141126.806000", "141126.809000", "141126.811000", "141126.814000", "141126.817000", "141126.819000", "141126.821000", "141126.824000", "141126.826000", "141126.829000", "141126.831000", "141126.834000", "141126.836000", "141126.839000", "141126.841000", "141126.844000", "141126.846000", "141126.848000", "141126.851000", "141126.853000", "141146.805000", "141146.808000", "141146.810000", "141146.813000", "141146.815000", "141146.818000", "141146.820000", "141146.823000", "141146.825000", "141146.828000", "141146.830000", "141146.833000", "141146.835000", "141146.838000", "141146.853000", "141146.856000", "141146.859000", "141146.861000", "141146.864000", "141146.866000", "141206.806000", "141206.808000", "141206.811000", "141206.813000", "141206.816000", "141206.818000", "141206.820000", "141206.823000", "141206.825000", "141206.828000", "141206.830000", "141206.833000", "141206.836000", "141206.838000", "141206.840000", "141206.843000", "141206.845000", "141206.848000", "141206.850000", "141206.853000", "141226.806000", "141226.809000", "141226.812000", "141226.814000", "141226.816000", "141226.819000", "141226.821000", "141226.824000", "141226.826000", "141226.829000", "141226.831000", "141226.834000", "141226.836000", "141226.839000", "141226.841000", "141226.844000", "141226.846000", "141226.849000", "141226.851000", "141226.854000", "141246.806000", "141246.809000", "141246.811000", "141246.814000", "141246.816000", "141246.819000", "141246.821000", "141246.824000", "141246.826000", "141246.829000", "141246.831000", "141246.834000", "141246.836000", "141246.839000", "141246.841000", "141246.844000", "141246.846000", "141246.848000", "141246.851000", "141246.853000", "141306.807000", "141306.809000", "141306.812000", "141306.814000", "141306.817000", "141306.819000", "141306.822000", "141306.824000", "141306.827000", "141306.829000", "141306.832000", "141306.834000", "141306.837000", "141306.839000", "141306.842000", "141306.844000", "141306.847000", "141306.849000", "141306.852000", "141306.854000", "141326.807000", "141326.809000", "141326.812000", "141326.814000", "141326.817000", "141326.819000", "141326.822000", "141326.824000", "141326.827000", "141326.829000", "141326.832000", "141326.834000", "141326.837000", "141326.839000", "141326.842000", "141326.844000", "141326.847000", "141326.849000", "141326.851000", "141326.854000", "141346.807000", "141346.809000", "141346.812000", "141346.814000", "141346.817000", "141346.819000", "141346.822000", "141346.824000", "141346.827000", "141346.829000", "141346.832000", "141346.834000", "141346.837000", "141346.839000", "141346.842000", "141346.844000", "141346.846000", "141346.849000", "141346.852000", "141346.854000", "141406.805000", "141406.808000", "141406.810000", "141406.813000", "141406.815000", "141406.818000", "141406.820000", "141406.823000", "141406.825000", "141406.828000", "141406.830000", "141406.833000", "141406.836000", "141406.838000", "141406.841000", "141406.843000", "141406.846000", "141406.848000", "141406.851000", "141406.853000", "141426.806000", "141426.808000", "141426.811000", "141426.813000", "141426.816000", "141426.818000", "141426.821000", "141426.823000", "141426.826000", "141426.828000", "141426.831000", "141426.833000", "141426.836000", "141426.838000", "141426.841000", "141426.843000", "141426.846000", "141426.848000", "141426.851000", "141426.853000", "141446.806000", "141446.809000", "141446.812000", "141446.814000", "141446.816000", "141446.819000", "141446.821000", "141446.824000", "141446.826000", "141446.829000", "141446.831000", "141446.834000", "141446.836000", "141446.839000", "141446.841000", "141446.844000", "141446.846000", "141446.849000", "141446.851000", "141446.853000", "141503.265000", "141503.268000", "141503.270000", "141503.273000", "141503.275000", "141503.278000", "141503.280000", "141503.283000", "141503.285000", "141503.288000", "141503.290000", "141503.293000", "141503.295000", "141503.298000", "141503.300000", "141503.303000", "141503.305000"],
      "InstanceCreationTime": ["140946.836000", "140946.838000", "140946.841000", "140946.843000", "140946.846000", "140946.848000", "140946.851000", "140946.853000", "140946.856000", "140946.858000", "140946.861000", "140946.863000", "140946.866000", "140946.868000", "140946.871000", "140946.874000", "140946.876000", "140946.879000", "140946.881000", "140946.883000", "140946.886000", "140946.888000", "140946.891000", "140946.894000", "140946.896000", "140946.898000", "140946.910000", "140946.913000", "140946.915000", "140946.918000", "140946.921000", "140946.923000", "140946.926000", "140946.928000", "140946.931000", "140946.933000", "140946.936000", "140946.938000", "140946.941000", "141006.806000", "141006.809000", "141006.812000", "141006.814000", "141006.817000", "141006.819000", "141006.822000", "141006.824000", "141006.827000", "141006.829000", "141006.832000", "141006.834000", "141006.837000", "141006.839000", "141006.846000", "141006.849000", "141006.851000", "141006.854000", "141006.856000", "141006.859000", "141026.807000", "141026.809000", "141026.812000", "141026.814000", "141026.817000", "141026.819000", "141026.822000", "141026.824000", "141026.827000", "141026.829000", "141026.832000", "141026.834000", "141026.837000", "141026.839000", "141026.841000", "141026.844000", "141026.846000", "141026.849000", "141026.851000", "141026.854000", "141046.806000", "141046.809000", "141046.812000", "141046.814000", "141046.816000", "141046.819000", "141046.821000", "141046.824000", "141046.826000", "141046.829000", "141046.831000", "141046.834000", "141046.836000", "141046.839000", "141046.841000", "141046.844000", "141046.846000", "141046.848000", "141046.851000", "141046.853000", "141106.806000", "141106.809000", "141106.812000", "141106.814000", "141106.817000", "141106.819000", "141106.822000", "141106.824000", "141106.827000", "141106.829000", "141106.832000", "141106.834000", "141106.837000", "141106.839000", "141106.841000", "141106.844000", "141106.846000", "141106.849000", "141106.851000", "141106.860000", "141126.806000", "141126.809000", "141126.811000", "141126.814000", "141126.817000", "141126.819000", "141126.821000", "141126.824000", "141126.826000", "141126.829000", "141126.831000", "141126.834000", "141126.836000", "141126.839000", "141126.841000", "141126.844000", "141126.846000", "141126.848000", "141126.851000", "141126.853000", "141146.805000", "141146.808000", "141146.810000", "141146.813000", "141146.815000", "141146.818000", "141146.820000", "141146.823000", "141146.825000", "141146.828000", "141146.830000", "141146.833000", "141146.835000", "141146.838000", "141146.853000", "141146.856000", "141146.859000", "141146.861000", "141146.864000", "141146.866000", "141206.806000", "141206.808000", "141206.811000", "141206.813000", "141206.816000", "141206.818000", "141206.820000", "141206.823000", "141206.825000", "141206.828000", "141206.830000", "141206.833000", "141206.836000", "141206.838000", "141206.840000", "141206.843000", "141206.845000", "141206.848000", "141206.850000", "141206.853000", "141226.806000", "141226.809000", "141226.812000", "141226.814000", "141226.816000", "141226.819000", "141226.821000", "141226.824000", "141226.826000", "141226.829000", "141226.831000", "141226.834000", "141226.836000", "141226.839000", "141226.841000", "141226.844000", "141226.846000", "141226.849000", "141226.851000", "141226.854000", "141246.806000", "141246.809000", "141246.811000", "141246.814000", "141246.816000", "141246.819000", "141246.821000", "141246.824000", "141246.826000", "141246.829000", "141246.831000", "141246.834000", "141246.836000", "141246.839000", "141246.841000", "141246.844000", "141246.846000", "141246.848000", "141246.851000", "141246.853000", "141306.807000", "141306.809000", "141306.812000", "141306.814000", "141306.817000", "141306.819000", "141306.822000", "141306.824000", "141306.827000", "141306.829000", "141306.832000", "141306.834000", "141306.837000", "141306.839000", "141306.842000", "141306.844000", "141306.847000", "141306.849000", "141306.852000", "141306.854000", "141326.807000", "141326.809000", "141326.812000", "141326.814000", "141326.817000", "141326.819000", "141326.822000", "141326.824000", "141326.827000", "141326.829000", "141326.832000", "141326.834000", "141326.837000", "141326.839000", "141326.842000", "141326.844000", "141326.847000", "141326.849000", "141326.851000", "141326.854000", "141346.807000", "141346.809000", "141346.812000", "141346.814000", "141346.817000", "141346.819000", "141346.822000", "141346.824000", "141346.827000", "141346.829000", "141346.832000", "141346.834000", "141346.837000", "141346.839000", "141346.842000", "141346.844000", "141346.846000", "141346.849000", "141346.852000", "141346.854000", "141406.805000", "141406.808000", "141406.810000", "141406.813000", "141406.815000", "141406.818000", "141406.820000", "141406.823000", "141406.825000", "141406.828000", "141406.830000", "141406.833000", "141406.836000", "141406.838000", "141406.841000", "141406.843000", "141406.846000", "141406.848000", "141406.851000", "141406.853000", "141426.806000", "141426.808000", "141426.811000", "141426.813000", "141426.816000", "141426.818000", "141426.821000", "141426.823000", "141426.826000", "141426.828000", "141426.831000", "141426.833000", "141426.836000", "141426.838000", "141426.841000", "141426.843000", "141426.846000", "141426.848000", "141426.851000", "141426.853000", "141446.806000", "141446.809000", "141446.812000", "141446.814000", "141446.816000", "141446.819000", "141446.821000", "141446.824000", "141446.826000", "141446.829000", "141446.831000", "141446.834000", "141446.836000", "141446.839000", "141446.841000", "141446.844000", "141446.846000", "141446.849000", "141446.851000", "141446.853000", "141503.265000", "141503.268000", "141503.270000", "141503.273000", "141503.275000", "141503.278000", "141503.280000", "141503.283000", "141503.285000", "141503.288000", "141503.290000", "141503.293000", "141503.295000", "141503.298000", "141503.300000", "141503.303000", "141503.305000"],
      "InstanceNumber": [1, 2, 3, 4, 5, 6, 7, 8, 9, 10, 11, 12, 13, 14, 15, 16, 17, 18, 19, 20, 21, 22, 23, 24, 25, 26, 27, 28, 29, 30, 31, 32, 33, 34, 35, 36, 37, 38, 39, 40, 41, 42, 43, 44, 45, 46, 47, 48, 49, 50, 51, 52, 53, 54, 55, 56, 57, 58, 59, 60, 61, 62, 63, 64, 65, 66, 67, 68, 69, 70, 71, 72, 73, 74, 75, 76, 77, 78, 79, 80, 81, 82, 83, 84, 85, 86, 87, 88, 89, 90, 91, 92, 93, 94, 95, 96, 97, 98, 99, 100, 101, 102, 103, 104, 105, 106, 107, 108, 109, 110, 111, 112, 113, 114, 115, 116, 117, 118, 119, 120, 121, 122, 123, 124, 125, 126, 127, 128, 129, 130, 131, 132, 133, 134, 135, 136, 137, 138, 139, 140, 141, 142, 143, 144, 145, 146, 147, 148, 149, 150, 151, 152, 153, 154, 155, 156, 157, 158, 159, 160, 161, 162, 163, 164, 165, 166, 167, 168, 169, 170, 171, 172, 173, 174, 175, 176, 177, 178, 179, 180, 181, 182, 183, 184, 185, 186, 187, 188, 189, 190, 191, 192, 193, 194, 195, 196, 197, 198, 199, 200, 201, 202, 203, 204, 205, 206, 207, 208, 209, 210, 211, 212, 213, 214, 215, 216, 217, 218, 219, 220, 221, 222, 223, 224, 225, 226, 227, 228, 229, 230, 231, 232, 233, 234, 235, 236, 237, 238, 239, 240, 241, 242, 243, 244, 245, 246, 247, 248, 249, 250, 251, 252, 253, 254, 255, 256, 257, 258, 259, 260, 261, 262, 263, 264, 265, 266, 267, 268, 269, 270, 271, 272, 273, 274, 275, 276, 277, 278, 279, 280, 281, 282, 283, 284, 285, 286, 287, 288, 289, 290, 291, 292, 293, 294, 295, 296, 297, 298, 299, 300, 301, 302, 303, 304, 305, 306, 307, 308, 309, 310, 311, 312, 313, 314, 315, 316, 317, 318, 319, 320, 321, 322, 323, 324, 325, 326, 327, 328, 329, 330, 331, 332, 333, 334, 335, 336, 337, 338, 339, 340, 341, 342, 343, 344, 345, 346, 347, 348, 349, 350, 351, 352, 353, 354, 355, 356],
      "LargestImagePixelValue": [11043, 10673, 10664, 10736, 10585, 10257, 10155, 10217, 10513, 10106, 10225, 10203, 10641, 10249, 10271, 10163, 10499, 10333, 10195, 9988, 10330, 10426, 10074, 9943, 10245, 10134, 9992, 9882, 10179, 10155, 10001, 9930, 10395, 10373, 10073, 10062, 10436, 10148, 9950, 9989, 10191, 10171, 10050, 9850, 9764, 10074, 10119, 9969, 9980, 9807, 10241, 9901, 9747, 9654, 9962, 10162, 9689, 9736, 9734, 9848, 9757, 9762, 9924, 9992, 9766, 9603, 10133, 9771, 9772, 9766, 9885, 10153, 9685, 9793, 9973, 9715, 9998, 9816, 10149, 10116, 9874, 10037, 9978, 10178, 9962, 9995, 10006, 9939, 10218, 9840, 9934, 9793, 9955, 9890, 9931, 9965, 9786, 9925, 9730, 9912, 9796, 9745, 9921, 10031, 9930, 9737, 9965, 10016, 9942, 9818, 9909, 9748, 9770, 9652, 9689, 9783, 9759, 9624, 9585, 9671, 9715, 9726, 9754, 9663, 9686, 9746, 9656, 9682, 9758, 9760, 9829, 9851, 9763, 9786, 9848, 9726, 9890, 10000, 9954, 9939, 10107, 9659, 9888, 10101, 9865, 9635, 9529, 9729, 9671, 9809, 9905, 9710, 9807, 10081, 9918, 10058, 10069, 9914, 9897, 10007, 9910, 10039, 9983, 9869, 10234, 10106, 10037, 9880, 10179, 10433, 10248, 10298, 10196, 10125, 10216, 10155, 10348, 10332, 10316, 10232, 10259, 10252, 10297, 10279, 10131, 10370, 10394, 10323, 10393, 10370, 10101, 10092, 10097, 10204, 10024, 10125, 9987, 10051, 10007, 10006, 9956, 9979, 9936, 9937, 10421, 10294, 10213, 10124, 10056, 9902, 10056, 9985, 9937, 9741, 9850, 9830, 9788, 10010, 9934, 10320, 10481, 10390, 10310, 10256, 10397, 10314, 10264, 10428, 10214, 10602, 10478, 10476, 10057, 10263, 10083, 9929, 9951, 9953, 10231, 10065, 9885, 9734, 9685, 9721, 9894, 9822, 9863, 9903, 9913, 9809, 9957, 9986, 10045, 9958, 9844, 9929, 10010, 10379, 10290, 10384, 10512, 10519, 10681, 10569, 10653, 10682, 9847, 10927, 10611, 10273, 10455, 10173, 9880, 9701, 9713, 9933, 9548, 9697, 9715, 10457, 10950, 10503, 10308, 10360, 10343, 10206, 10273, 10213, 10239, 9854, 9708, 9325, 9656, 9810, 9914, 9874, 9654, 10211, 10420, 10157, 9838, 10019, 10011, 9683, 9993, 10209, 10424, 10414, 10422, 10336, 10447, 10370, 10307, 10441, 10602, 10471, 10645, 10554, 10567, 10467, 10479, 10561, 10847, 10535, 10468, 10690, 10639, 10564, 10601, 10742, 10487, 10203, 10540, 10768, 10705, 10622, 10729, 10860, 10839, 10670, 10689, 10522, 10738, 10774, 10634, 10603, 10828, 10811, 10618, 10906, 10665, 10752, 10851, 10721, 10635, 10643],
