{
  "AcquisitionMatrixPE": 106,
  "AcquisitionNumber": 1,
  "AcquisitionTime": "13:48:59.665000",
  "BandwidthPerPixelPhaseEncode": 13.477,
  "BaseResolution": 106,
  "BodyPartExamined": "BRAIN",
  "CoilCombinationMethod": "Sum of Squares",
  "ConsistencyInfo": "N4_VE11C_LATEST_20160120",
  "ConversionSoftware": "dcm2niix",
  "ConversionSoftwareVersion": "v1.0.20220720",
  "DerivedVendorReportedEchoSpacing": 0.000700005,
  "DeviceSerialNumber": "166108",
  "DwellTime": 2.6e-06,
  "EchoTime": 0.03,
  "EchoTrainLength": 80,
  "EffectiveEchoSpacing": 0.000700005,
  "FlipAngle": 62,
  "HeudiconvVersion": "1.3.0",
  "ImageComments": "Unaliased MB4/PE3/LB",
  "ImageOrientationPatientDICOM": [1, 0, 0, 0, 0.991216, -0.132256],
  "ImageOrientationText": "Tra>Cor(-7.6)",
  "ImageType": [
    "ORIGINAL",
    "PRIMARY",
    "M",
    "MB",
    "ND",
    "MOSAIC"
],
  "ImagingFrequency": 123.244,
  "InPlanePhaseEncodingDirectionDICOM": "COL",
  "InstitutionAddress": "Bedford Way 26,London,London,GB,WC1H 0AP",
  "InstitutionName": "University College",
  "InstitutionalDepartmentName": "Department",
  "MRAcquisitionType": "2D",
  "MagneticFieldStrength": 3,
  "Manufacturer": "Siemens",
  "ManufacturersModelName": "Prisma",
  "MatrixCoilMode": "SENSE",
  "Modality": "MR",
  "MultibandAccelerationFactor": 4,
  "NonlinearGradientCorrection": false,
  "PartialFourier": 0.75,
  "PatientPosition": "HFS",
  "PercentPhaseFOV": 100,
  "PercentSampling": 100,
  "PhaseEncodingDirection": "j-",
  "PhaseEncodingSteps": 80,
  "PhaseResolution": 1,
  "PixelBandwidth": 1815,
  "ProcedureStepDescription": "Egor^MovieProject2",
  "ProtocolName": "func-bold_task-motor_run-02",
  "PulseSequenceDetails": "%CustomerSeq%\\cmrr_mbep2d_bold",
  "ReceiveCoilActiveElements": "HEA;HEP",
  "ReceiveCoilName": "Head_32",
  "ReconMatrixPE": 106,
  "RepetitionTime": 1,
  "SAR": 0.0400658,
  "ScanOptions": "PFP\\FS\\EXT",
  "ScanningSequence": "EP",
  "SequenceName": "epfid2d1_106",
  "SequenceVariant": "SK\\SS",
  "SeriesDescription": "func-bold_task-motor_run-02",
  "SeriesNumber": 6,
  "ShimSetting": [-1615, 634, 7399, 464, -136, 0, 7, 4],
  "SliceThickness": 2,
  "SliceTiming": [0, 0.535, 0.09, 0.625, 0.18, 0.7125, 0.2675, 0.8025, 0.3575, 0.8925, 0.4475, 0, 0.535, 0.09, 0.625, 0.18, 0.7125, 0.2675, 0.8025, 0.3575, 0.8925, 0.4475, 0, 0.535, 0.09, 0.625, 0.18, 0.7125, 0.2675, 0.8025, 0.3575, 0.8925, 0.4475, 0, 0.535, 0.09, 0.625, 0.18, 0.7125, 0.2675, 0.8025, 0.3575, 0.8925, 0.4475],
  "SoftwareVersions": "syngo MR E11",
  "SpacingBetweenSlices": 2,
  "StationName": "AWP166108",
  "TaskName": "somatotopy",
  "TotalReadoutTime": 0.0735005,
  "TxRefAmp": 235.501,
  "WipMemBlock": "b1ee29d9-66d6-49d6-8f28-7cedec1af97b||Sequence: R016 ve11c/master r/e634e98; Dec 19 2017 11:00:25 by eja",
  "dcmmeta_affine": [
    [-2.0, 0.0, 0.0, 106.0],
    [0.0, 1.9824310541152954, -0.2645127773284912, -85.73191833496094],
    [0.0, 0.2645128071308136, 1.9824310541152954, -21.544403076171875],
    [0.0, 0.0, 0.0, 1.0]
],
  "dcmmeta_reorient_transform": [
    [0.0, -1.0, 0.0, 105.0],
    [1.0, 0.0, 0.0, 0.0],
    [0.0, 0.0, 1.0, 0.0],
    [0.0, 0.0, 0.0, 1.0]
],
  "dcmmeta_shape": [106, 106, 44, 469],
  "dcmmeta_slice_dim": 2,
  "dcmmeta_version": 0.6,
  "global": {
    "const": {
      "AcquisitionMatrix": [106, 0, 0, 106],
      "AngioFlag": "N",
      "BitsAllocated": 16,
      "BitsStored": 16,
      "BodyPartExamined": "BRAIN",
      "CardiacNumberOfImages": 1,
      "Columns": 742,
      "EchoNumbers": 1,
      "EchoTime": 30.0,
      "EchoTrainLength": 80,
      "FlipAngle": 62.0,
      "HighBit": 15,
      "ImageOrientationPatient": [1.0, 0.0, 0.0, 0.0, 0.99121553937119, -0.132256396855],
      "ImagePositionPatient": [-742.0, -752.83642430827, 90.344508288172],
      "ImageType": [
        "ORIGINAL",
        "PRIMARY",
        "M",
        "MB",
        "ND",
        "MOSAIC"
],
      "ImagedNucleus": "1H",
      "ImagingFrequency": 123.243678,
      "InPlanePhaseEncodingDirection": "COL",
      "MRAcquisitionType": "2D",
      "MagneticFieldStrength": 3.0,
      "Manufacturer": "SIEMENS",
      "ManufacturerModelName": "Prisma",
      "Modality": "MR",
      "NominalInterval": 0,
      "NumberOfAverages": 1.0,
      "NumberOfPhaseEncodingSteps": 80,
      "PercentPhaseFieldOfView": 100.0,
      "PercentSampling": 100.0,
      "PerformedProcedureStepStartTime": "131344.255000",
      "PhotometricInterpretation": "MONOCHROME2",
      "PixelBandwidth": 1815.0,
      "PixelRepresentation": 0,
      "PixelSpacing": [2.0, 2.0],
      "ProtocolName": "func-bold_task-motor_run-02",
      "RepetitionTime": 1000.0,
      "Rows": 742,
      "SAR": 0.04006575949609,
      "SamplesPerPixel": 1,
      "ScanOptions": [
        "PFP",
        "FS",
        "EXT"
],
      "ScanningSequence": "EP",
      "SequenceName": "epfid2d1_106",
      "SequenceVariant": [
        "SK",
        "SS"
],
      "SeriesDescription": "func-bold_task-motor_run-02",
      "SeriesNumber": 6,
      "SeriesTime": "134923.760000",
      "SliceLocation": -10.016552388144,
      "SliceThickness": 2.0,
      "SmallestImagePixelValue": 0,
      "SoftwareVersions": "syngo MR E11",
      "SpacingBetweenSlices": 1.9999999424619,
      "SpecificCharacterSet": "ISO_IR 100",
      "StudyID": "1",
      "StudyTime": "131344.179000",
      "TransmitCoilName": "Body",
      "VariableFlipAngleFlag": "N",
      "WindowCenterWidthExplanation": "Algo1",
      "dBdt": 0.0},
    "slices": {}
  },
  "time": {
    "samples": {
      "AcquisitionNumber": [1, 2, 3, 4, 5, 6, 7, 8, 9, 10, 11, 12, 13, 14, 15, 16, 17, 18, 19, 20, 21, 22, 23, 24, 25, 26, 27, 28, 29, 30, 31, 32, 33, 34, 35, 36, 37, 38, 39, 40, 41, 42, 43, 44, 45, 46, 47, 48, 49, 50, 51, 52, 53, 54, 55, 56, 57, 58, 59, 60, 61, 62, 63, 64, 65, 66, 67, 68, 69, 70, 71, 72, 73, 74, 75, 76, 77, 78, 79, 80, 81, 82, 83, 84, 85, 86, 87, 88, 89, 90, 91, 92, 93, 94, 95, 96, 97, 98, 99, 100, 101, 102, 103, 104, 105, 106, 107, 108, 109, 110, 111, 112, 113, 114, 115, 116, 117, 118, 119, 120, 121, 122, 123, 124, 125, 126, 127, 128, 129, 130, 131, 132, 133, 134, 135, 136, 137, 138, 139, 140, 141, 142, 143, 144, 145, 146, 147, 148, 149, 150, 151, 152, 153, 154, 155, 156, 157, 158, 159, 160, 161, 162, 163, 164, 165, 166, 167, 168, 169, 170, 171, 172, 173, 174, 175, 176, 177, 178, 179, 180, 181, 182, 183, 184, 185, 186, 187, 188, 189, 190, 191, 192, 193, 194, 195, 196, 197, 198, 199, 200, 201, 202, 203, 204, 205, 206, 207, 208, 209, 210, 211, 212, 213, 214, 215, 216, 217, 218, 219, 220, 221, 222, 223, 224, 225, 226, 227, 228, 229, 230, 231, 232, 233, 234, 235, 236, 237, 238, 239, 240, 241, 242, 243, 244, 245, 246, 247, 248, 249, 250, 251, 252, 253, 254, 255, 256, 257, 258, 259, 260, 261, 262, 263, 264, 265, 266, 267, 268, 269, 270, 271, 272, 273, 274, 275, 276, 277, 278, 279, 280, 281, 282, 283, 284, 285, 286, 287, 288, 289, 290, 291, 292, 293, 294, 295, 296, 297, 298, 299, 300, 301, 302, 303, 304, 305, 306, 307, 308, 309, 310, 311, 312, 313, 314, 315, 316, 317, 318, 319, 320, 321, 322, 323, 324, 325, 326, 327, 328, 329, 330, 331, 332, 333, 334, 335, 336, 337, 338, 339, 340, 341, 342, 343, 344, 345, 346, 347, 348, 349, 350, 351, 352, 353, 354, 355, 356, 357, 358, 359, 360, 361, 362, 363, 364, 365, 366, 367, 368, 369, 370, 371, 372, 373, 374, 375, 376, 377, 378, 379, 380, 381, 382, 383, 384, 385, 386, 387, 388, 389, 390, 391, 392, 393, 394, 395, 396, 397, 398, 399, 400, 401, 402, 403, 404, 405, 406, 407, 408, 409, 410, 411, 412, 413, 414, 415, 416, 417, 418, 419, 420, 421, 422, 423, 424, 425, 426, 427, 428, 429, 430, 431, 432, 433, 434, 435, 436, 437, 438, 439, 440, 441, 442, 443, 444, 445, 446, 447, 448, 449, 450, 451, 452, 453, 454, 455, 456, 457, 458, 459, 460, 461, 462, 463, 464, 465, 466, 467, 468, 469],
      "AcquisitionTime": ["134859.665000", "134900.665000", "134901.665000", "134902.665000", "134903.665000", "134904.665000", "134905.665000", "134906.665000", "134907.665000", "134908.665000", "134909.665000", "134910.665000", "134911.665000", "134912.665000", "134913.665000", "134914.665000", "134915.665000", "134916.665000", "134917.665000", "134918.665000", "134919.665000", "134920.665000", "134921.665000", "134922.665000", "134923.665000", "134924.665000", "134925.665000", "134926.665000", "134927.665000", "134928.665000", "134929.665000", "134930.665000", "134931.665000", "134932.665000", "134933.665000", "134934.665000", "134935.665000", "134936.665000", "134937.665000", "134938.665000", "134939.665000", "134940.665000", "134941.665000", "134942.665000", "134943.665000", "134944.665000", "134945.665000", "134946.665000", "134947.665000", "134948.665000", "134949.665000", "134950.665000", "134951.665000", "134952.665000", "134953.665000", "134954.665000", "134955.665000", "134956.665000", "134957.665000", "134958.665000", "134959.665000", "135000.665000", "135001.665000", "135002.665000", "135003.665000", "135004.665000", "135005.665000", "135006.665000", "135007.665000", "135008.665000", "135009.665000", "135010.665000", "135011.665000", "135012.665000", "135013.665000", "135014.665000", "135015.665000", "135016.665000", "135017.665000", "135018.665000", "135019.665000", "135020.665000", "135021.665000", "135022.665000", "135023.665000", "135024.665000", "135025.665000", "135026.665000", "135027.665000", "135028.665000", "135029.665000", "135030.665000", "135031.665000", "135032.665000", "135033.665000", "135034.665000", "135035.665000", "135036.665000", "135037.665000", "135038.665000", "135039.665000", "135040.665000", "135041.665000", "135042.665000", "135043.665000", "135044.665000", "135045.665000", "135046.665000", "135047.665000", "135048.665000", "135049.665000", "135050.665000", "135051.665000", "135052.665000", "135053.665000", "135054.665000", "135055.665000", "135056.665000", "135057.665000", "135058.665000", "135059.665000", "135100.665000", "135101.665000", "135102.665000", "135103.665000", "135104.665000", "135105.665000", "135106.665000", "135107.665000", "135108.665000", "135109.665000", "135110.665000", "135111.665000", "135112.665000", "135113.665000", "135114.665000", "135115.665000", "135116.665000", "135117.665000", "135118.665000", "135119.665000", "135120.665000", "135121.665000", "135122.665000", "135123.665000", "135124.665000", "135125.665000", "135126.665000", "135127.665000", "135128.665000", "135129.665000", "135130.665000", "135131.665000", "135132.665000", "135133.665000", "135134.665000", "135135.665000", "135136.665000", "135137.665000", "135138.665000", "135139.665000", "135140.665000", "135141.665000", "135142.665000", "135143.665000", "135144.665000", "135145.665000", "135146.665000", "135147.665000", "135148.665000", "135149.665000", "135150.665000", "135151.665000", "135152.665000", "135153.665000", "135154.665000", "135155.665000", "135156.665000", "135157.665000", "135158.665000", "135159.665000", "135200.665000", "135201.665000", "135202.665000", "135203.665000", "135204.665000", "135205.665000", "135206.665000", "135207.665000", "135208.665000", "135209.665000", "135210.665000", "135211.665000", "135212.665000", "135213.665000", "135214.665000", "135215.665000", "135216.665000", "135217.665000", "135218.665000", "135219.665000", "135220.665000", "135221.665000", "135222.665000", "135223.665000", "135224.665000", "135225.665000", "135226.665000", "135227.665000", "135228.665000", "135229.665000", "135230.665000", "135231.665000", "135232.665000", "135233.665000", "135234.665000", "135235.665000", "135236.665000", "135237.665000", "135238.665000", "135239.665000", "135240.665000", "135241.665000", "135242.665000", "135243.665000", "135244.665000", "135245.665000", "135246.665000", "135247.665000", "135248.665000", "135249.665000", "135250.665000", "135251.665000", "135252.665000", "135253.665000", "135254.665000", "135255.665000", "135256.665000", "135257.665000", "135258.665000", "135259.665000", "135300.665000", "135301.665000", "135302.665000", "135303.665000", "135304.665000", "135305.665000", "135306.665000", "135307.665000", "135308.665000", "135309.665000", "135310.665000", "135311.665000", "135312.665000", "135313.665000", "135314.665000", "135315.665000", "135316.665000", "135317.665000", "135318.665000", "135319.665000", "135320.665000", "135321.665000", "135322.665000", "135323.665000", "135324.665000", "135325.665000", "135326.665000", "135327.665000", "135328.665000", "135329.665000", "135330.665000", "135331.665000", "135332.665000", "135333.665000", "135334.665000", "135335.665000", "135336.665000", "135337.665000", "135338.665000", "135339.665000", "135340.665000", "135341.665000", "135342.665000", "135343.665000", "135344.665000", "135345.665000", "135346.665000", "135347.665000", "135348.665000", "135349.665000", "135350.665000", "135351.665000", "135352.665000", "135353.665000", "135354.665000", "135355.665000", "135356.665000", "135357.665000", "135358.665000", "135359.665000", "135400.665000", "135401.665000", "135402.665000", "135403.665000", "135404.665000", "135405.665000", "135406.665000", "135407.665000", "135408.665000", "135409.665000", "135410.665000", "135411.665000", "135412.665000", "135413.665000", "135414.665000", "135415.665000", "135416.665000", "135417.665000", "135418.665000", "135419.665000", "135420.665000", "135421.665000", "135422.665000", "135423.665000", "135424.665000", "135425.665000", "135426.665000", "135427.665000", "135428.665000", "135429.665000", "135430.665000", "135431.665000", "135432.665000", "135433.665000", "135434.665000", "135435.665000", "135436.665000", "135437.665000", "135438.665000", "135439.665000", "135440.665000", "135441.665000", "135442.665000", "135443.665000", "135444.665000", "135445.665000", "135446.665000", "135447.665000", "135448.665000", "135449.665000", "135450.665000", "135451.665000", "135452.665000", "135453.665000", "135454.665000", "135455.665000", "135456.665000", "135457.665000", "135458.665000", "135459.665000", "135500.665000", "135501.665000", "135502.665000", "135503.665000", "135504.665000", "135505.665000", "135506.665000", "135507.665000", "135508.665000", "135509.665000", "135510.665000", "135511.665000", "135512.665000", "135513.665000", "135514.665000", "135515.665000", "135516.665000", "135517.665000", "135518.665000", "135519.665000", "135520.665000", "135521.665000", "135522.665000", "135523.665000", "135524.665000", "135525.665000", "135526.665000", "135527.665000", "135528.665000", "135529.665000", "135530.665000", "135531.665000", "135532.665000", "135533.665000", "135534.665000", "135535.665000", "135536.665000", "135537.665000", "135538.665000", "135539.665000", "135540.665000", "135541.665000", "135542.665000", "135543.665000", "135544.665000", "135545.665000", "135546.665000", "135547.665000", "135548.665000", "135549.665000", "135550.665000", "135551.665000", "135552.665000", "135553.665000", "135554.665000", "135555.665000", "135556.665000", "135557.665000", "135558.665000", "135559.665000", "135600.665000", "135601.665000", "135602.665000", "135603.665000", "135604.665000", "135605.665000", "135606.665000", "135607.665000", "135608.665000", "135609.665000", "135610.665000", "135611.665000", "135612.665000", "135613.665000", "135614.665000", "135615.665000", "135616.665000", "135617.665000", "135618.665000", "135619.665000", "135620.665000", "135621.665000", "135622.665000", "135623.665000", "135624.665000", "135625.665000", "135626.665000", "135627.665000", "135628.665000", "135629.665000", "135630.665000", "135631.665000", "135632.665000", "135633.665000", "135634.665000", "135635.665000", "135636.665000", "135637.665000", "135638.665000", "135639.665000", "135640.665000", "135641.665000", "135642.665000", "135643.665000", "135644.665000", "135645.665000", "135646.665000", "135647.665000"],
      "ContentTime": ["134923.763000", "134923.774000", "134923.776000", "134923.779000", "134923.781000", "134923.784000", "134923.786000", "134923.789000", "134923.791000", "134923.794000", "134923.796000", "134923.799000", "134923.805000", "134923.816000", "134923.819000", "134923.821000", "134923.824000", "134923.826000", "134923.829000", "134923.831000", "134923.834000", "134923.836000", "134923.839000", "134943.729000", "134943.732000", "134943.734000", "134943.737000", "134943.739000", "134943.742000", "134943.744000", "134943.747000", "134943.749000", "134943.752000", "134943.754000", "134943.757000", "134943.759000", "134943.762000", "134943.764000", "134943.766000", "134943.769000", "134943.771000", "134943.774000", "134943.776000", "135003.730000", "135003.732000", "135003.735000", "135003.737000", "135003.740000", "135003.742000", "135003.745000", "135003.747000", "135003.750000", "135003.752000", "135003.755000", "135003.757000", "135003.760000", "135003.762000", "135003.765000", "135003.767000", "135003.770000", "135003.772000", "135003.775000", "135003.777000", "135023.729000", "135023.732000", "135023.735000", "135023.737000", "135023.739000", "135023.742000", "135023.744000", "135023.747000", "135023.749000", "135023.752000", "135023.754000", "135023.757000", "135023.759000", "135023.761000", "135023.764000", "135023.766000", "135023.769000", "135023.771000", "135023.774000", "135023.776000", "135043.729000", "135043.732000", "135043.735000", "135043.737000", "135043.739000", "135043.742000", "135043.744000", "135043.747000", "135043.749000", "135043.752000", "135043.754000", "135043.757000", "135043.759000", "135043.762000", "135043.764000", "135043.766000", "135043.769000", "135043.771000", "135043.774000", "135043.776000", "135103.729000", "135103.731000", "135103.734000", "135103.736000", "135103.738000", "135103.741000", "135103.743000", "135103.746000", "135103.748000", "135103.751000", "135103.753000", "135103.756000", "135103.758000", "135103.760000", "135103.763000", "135103.765000", "135103.768000", "135103.770000", "135103.773000", "135103.775000", "135123.728000", "135123.731000", "135123.734000", "135123.736000", "135123.738000", "135123.741000", "135123.743000", "135123.746000", "135123.748000", "135123.751000", "135123.753000", "135123.756000", "135123.758000", "135123.761000", "135123.763000", "135123.765000", "135123.768000", "135123.770000", "135123.773000", "135123.775000", "135143.728000", "135143.731000", "135143.734000", "135143.736000", "135143.739000", "135143.741000", "135143.744000", "135143.746000", "135143.749000", "135143.751000", "135143.753000", "135143.756000", "135143.758000", "135143.761000", "135143.763000", "135143.766000", "135143.768000", "135143.771000", "135143.773000", "135143.776000", "135203.729000", "135203.732000", "135203.742000", "135203.745000", "135203.747000", "135203.749000", "135203.752000", "135203.754000", "135203.757000", "135203.759000", "135203.762000", "135203.764000", "135203.766000", "135203.769000", "135203.771000", "135203.774000", "135203.776000", "135203.779000", "135203.781000", "135203.784000", "135223.729000", "135223.732000", "135223.734000", "135223.737000", "135223.739000", "135223.742000", "135223.744000", "135223.747000", "135223.749000", "135223.752000", "135223.754000", "135223.757000", "135223.759000", "135223.762000", "135223.764000", "135223.766000", "135223.769000", "135223.771000", "135223.774000", "135223.776000", "135243.729000", "135243.732000", "135243.735000", "135243.737000", "135243.739000", "135243.742000", "135243.744000", "135243.747000", "135243.749000", "135243.752000", "135243.754000", "135243.757000", "135243.759000", "135243.762000", "135243.764000", "135243.767000", "135243.769000", "135243.772000", "135243.774000", "135243.777000", "135303.729000", "135303.732000", "135303.734000", "135303.737000", "135303.739000", "135303.742000", "135303.744000", "135303.747000", "135303.749000", "135303.752000", "135303.754000", "135303.757000", "135303.759000", "135303.762000", "135303.764000", "135303.766000", "135303.769000", "135303.771000", "135303.774000", "135303.776000", "135323.729000", "135323.731000", "135323.734000", "135323.736000", "135323.739000", "135323.741000", "135323.744000", "135323.746000", "135323.748000", "135323.751000", "135323.753000", "135323.756000", "135323.758000", "135323.761000", "135323.763000", "135323.766000", "135323.768000", "135323.770000", "135323.773000", "135323.775000", "135343.729000", "135343.732000", "135343.734000", "135343.736000", "135343.739000", "135343.742000", "135343.744000", "135343.747000", "135343.749000", "135343.752000", "135343.754000", "135343.756000", "135343.759000", "135343.761000", "135343.764000", "135343.766000", "135343.769000", "135343.771000", "135343.774000", "135343.776000", "135403.728000", "135403.731000", "135403.733000", "135403.736000", "135403.738000", "135403.741000", "135403.743000", "135403.746000", "135403.748000", "135403.751000", "135403.753000", "135403.756000", "135403.772000", "135403.774000", "135403.777000", "135403.779000", "135403.781000", "135403.784000", "135403.786000", "135403.789000", "135423.730000", "135423.732000", "135423.735000", "135423.737000", "135423.740000", "135423.742000", "135423.744000", "135423.747000", "135423.749000", "135423.752000", "135423.754000", "135423.757000", "135423.759000", "135423.761000", "135423.764000", "135423.766000", "135423.769000", "135423.771000", "135423.774000", "135423.776000", "135443.729000", "135443.732000", "135443.735000", "135443.737000", "135443.739000", "135443.742000", "135443.744000", "135443.747000", "135443.749000", "135443.752000", "135443.754000", "135443.757000", "135443.759000", "135443.762000", "135443.764000", "135443.766000", "135443.769000", "135443.771000", "135443.774000", "135443.776000", "135503.729000", "135503.732000", "135503.735000", "135503.737000", "135503.740000", "135503.742000", "135503.744000", "135503.747000", "135503.749000", "135503.752000", "135503.754000", "135503.756000", "135503.759000", "135503.761000", "135503.764000", "135503.766000", "135503.769000", "135503.771000", "135503.774000", "135503.776000", "135523.729000", "135523.732000", "135523.735000", "135523.737000", "135523.740000", "135523.742000", "135523.745000", "135523.747000", "135523.749000", "135523.752000", "135523.754000", "135523.757000", "135523.759000", "135523.762000", "135523.764000", "135523.767000", "135523.769000", "135523.772000", "135523.774000", "135523.777000", "135543.728000", "135543.731000", "135543.734000", "135543.736000", "135543.739000", "135543.741000", "135543.744000", "135543.746000", "135543.749000", "135543.751000", "135543.753000", "135543.756000", "135543.758000", "135543.761000", "135543.763000", "135543.766000", "135543.768000", "135543.770000", "135543.773000", "135543.775000", "135603.729000", "135603.731000", "135603.734000", "135603.736000", "135603.739000", "135603.741000", "135603.744000", "135603.746000", "135603.749000", "135603.751000", "135603.754000", "135603.756000", "135603.759000", "135603.761000", "135603.764000", "135603.766000", "135603.769000", "135603.771000", "135603.773000", "135603.776000", "135623.729000", "135623.731000", "135623.734000", "135623.736000", "135623.739000", "135623.741000", "135623.744000", "135623.746000", "135623.748000", "135623.751000", "135623.753000", "135623.756000", "135623.758000", "135623.761000", "135623.763000", "135623.766000", "135623.768000", "135623.770000", "135623.773000", "135623.775000", "135643.729000", "135643.732000", "135643.734000", "135643.737000", "135643.739000", "135643.742000", "135643.744000", "135643.747000", "135643.749000", "135643.752000", "135643.754000", "135643.757000", "135643.759000", "135643.762000", "135643.764000", "135643.767000", "135643.769000", "135643.772000", "135643.774000", "135643.777000", "135649.600000", "135649.603000", "135649.606000", "135649.609000", "135649.612000", "135649.615000"],
