{
  "AcquisitionMatrixPE": 106,
  "AcquisitionNumber": 1,
  "AcquisitionTime": "14:25:47.795000",
  "BandwidthPerPixelPhaseEncode": 16.846,
  "BaseResolution": 106,
  "BodyPartExamined": "BRAIN",
  "CoilCombinationMethod": "Sum of Squares",
  "ConsistencyInfo": "N4_VE11C_LATEST_20160120",
  "ConversionSoftware": "dcm2niix",
  "ConversionSoftwareVersion": "v1.0.20220720",
  "DerivedVendorReportedEchoSpacing": 0.000560012,
  "DeviceSerialNumber": "166108",
  "DwellTime": 1.8e-06,
  "EchoTime": 0.0352,
  "EchoTrainLength": 106,
  "EffectiveEchoSpacing": 0.000560012,
  "FlipAngle": 60,
  "HeudiconvVersion": "1.3.0",
  "ImageComments": "Unaliased MB4/PE3/LB",
  "ImageOrientationPatientDICOM": [1, 0, 0, 0, 0.936672, -0.350207],
  "ImageOrientationText": "Tra>Cor(-20.5)",
  "ImageType": [
    "ORIGINAL",
    "PRIMARY",
    "M",
    "MB",
    "ND",
    "MOSAIC"
],
  "ImagingFrequency": 123.244,
  "InPlanePhaseEncodingDirectionDICOM": "COL",
  "InstitutionAddress": "Bedford Way 26,London,London,GB,WC1H 0AP",
  "InstitutionName": "University College",
  "InstitutionalDepartmentName": "Department",
  "MRAcquisitionType": "2D",
  "MagneticFieldStrength": 3,
  "Manufacturer": "Siemens",
  "ManufacturersModelName": "Prisma",
  "MatrixCoilMode": "SENSE",
  "Modality": "MR",
  "MultibandAccelerationFactor": 4,
  "NonlinearGradientCorrection": false,
  "PartialFourier": 1,
  "PatientPosition": "HFS",
  "PercentPhaseFOV": 100,
  "PercentSampling": 100,
  "PhaseEncodingDirection": "j-",
  "PhaseEncodingSteps": 106,
  "PhaseResolution": 1,
  "PixelBandwidth": 2620,
  "ProcedureStepDescription": "Egor^MovieProject2",
  "ProtocolName": "func-bold_task-pRF_run-03",
  "PulseSequenceDetails": "%CustomerSeq%\\cmrr_mbep2d_bold",
  "ReceiveCoilActiveElements": "HEA;HEP",
  "ReceiveCoilName": "Head_32",
  "ReconMatrixPE": 106,
  "RepetitionTime": 1,
  "SAR": 0.0717682,
  "ScanOptions": "FS\\EXT",
  "ScanningSequence": "EP",
  "SequenceName": "epfid2d1_106",
  "SequenceVariant": "SK\\SS",
  "SeriesDescription": "func-bold_task-pRF_run-03",
  "SeriesNumber": 14,
  "ShimSetting": [-1606, 635, 7419, 548, -96, 22, 0, -3],
  "SliceThickness": 2,
  "SliceTiming": [0, 0.4075, 0.8175, 0.245, 0.6525, 0.0825, 0.49, 0.8975, 0.3275, 0.735, 0.1625, 0.5725, 0, 0.4075, 0.8175, 0.245, 0.6525, 0.0825, 0.49, 0.8975, 0.3275, 0.735, 0.1625, 0.5725, 0, 0.4075, 0.8175, 0.245, 0.6525, 0.0825, 0.49, 0.8975, 0.3275, 0.735, 0.1625, 0.5725, 0, 0.4075, 0.8175, 0.245, 0.6525, 0.0825, 0.49, 0.8975, 0.3275, 0.735, 0.1625, 0.5725],
  "SoftwareVersions": "syngo MR E11",
  "SpacingBetweenSlices": 2,
  "StationName": "AWP166108",
  "TaskName": "retinotopy",
  "TotalReadoutTime": 0.0588013,
  "TxRefAmp": 235.501,
  "WipMemBlock": "8cff7753-30fe-432b-b0b8-dcd2d1a77b43||Sequence: R016 ve11c/master r/e634e98; Dec 19 2017 11:00:25 by eja",
  "dcmmeta_affine": [
    [-2.0, 0.0, 0.0, 106.0],
    [0.0, 1.8733443021774292, -0.7004148364067078, -68.07779693603516],
    [0.0, 0.7004148364067078, 1.8733444213867188, -55.36321258544922],
    [0.0, 0.0, 0.0, 1.0]
],
  "dcmmeta_reorient_transform": [
    [0.0, -1.0, 0.0, 105.0],
    [1.0, 0.0, 0.0, 0.0],
    [0.0, 0.0, 1.0, 0.0],
    [0.0, 0.0, 0.0, 1.0]
],
  "dcmmeta_shape": [106, 106, 48, 356],
  "dcmmeta_slice_dim": 2,
  "dcmmeta_version": 0.6,
  "global": {
    "const": {
      "AcquisitionMatrix": [106, 0, 0, 106],
      "AngioFlag": "N",
      "BitsAllocated": 16,
      "BitsStored": 16,
      "BodyPartExamined": "BRAIN",
      "CardiacNumberOfImages": 1,
      "Columns": 742,
      "EchoNumbers": 1,
      "EchoTime": 35.2,
      "EchoTrainLength": 106,
      "FlipAngle": 60.0,
      "HighBit": 15,
      "ImageOrientationPatient": [1.0, 0.0, 0.0, 0.0, 0.93667217980175, -0.3502074065257],
      "ImagePositionPatient": [-742.0, -724.34686466693, 240.91225478817],
      "ImageType": [
        "ORIGINAL",
        "PRIMARY",
        "M",
        "MB",
        "ND",
        "MOSAIC"
],
      "ImagedNucleus": "1H",
      "ImagingFrequency": 123.243679,
      "InPlanePhaseEncodingDirection": "COL",
      "MRAcquisitionType": "2D",
      "MagneticFieldStrength": 3.0,
      "Manufacturer": "SIEMENS",
      "ManufacturerModelName": "Prisma",
      "Modality": "MR",
      "NominalInterval": 0,
      "NumberOfAverages": 1.0,
      "NumberOfPhaseEncodingSteps": 106,
      "PercentPhaseFieldOfView": 100.0,
      "PercentSampling": 100.0,
      "PerformedProcedureStepStartTime": "131344.255000",
      "PhotometricInterpretation": "MONOCHROME2",
      "PixelBandwidth": 2620.0,
      "PixelRepresentation": 0,
      "PixelSpacing": [2.0, 2.0],
      "ProtocolName": "func-bold_task-pRF_run-03",
      "RepetitionTime": 1000.0,
      "Rows": 742,
      "SAR": 0.07176822460445,
      "SamplesPerPixel": 1,
      "ScanOptions": [
        "FS",
        "EXT"
],
      "ScanningSequence": "EP",
      "SequenceName": "epfid2d1_106",
      "SequenceVariant": [
        "SK",
        "SS"
],
      "SeriesDescription": "func-bold_task-pRF_run-03",
      "SeriesNumber": 14,
      "SeriesTime": "142624.012000",
      "SliceLocation": -28.01583006662,
      "SliceThickness": 2.0,
      "SmallestImagePixelValue": 0,
      "SoftwareVersions": "syngo MR E11",
      "SpacingBetweenSlices": 2.0000000062757,
      "SpecificCharacterSet": "ISO_IR 100",
      "StudyID": "1",
      "StudyTime": "131344.179000",
      "TransmitCoilName": "Body",
      "VariableFlipAngleFlag": "N",
      "WindowCenterWidthExplanation": "Algo1",
      "dBdt": 0.0},
    "slices": {}
  },
  "time": {
    "samples": {
      "AcquisitionNumber": [1, 2, 3, 4, 5, 6, 7, 8, 9, 10, 11, 12, 13, 14, 15, 16, 17, 18, 19, 20, 21, 22, 23, 24, 25, 26, 27, 28, 29, 30, 31, 32, 33, 34, 35, 36, 37, 38, 39, 40, 41, 42, 43, 44, 45, 46, 47, 48, 49, 50, 51, 52, 53, 54, 55, 56, 57, 58, 59, 60, 61, 62, 63, 64, 65, 66, 67, 68, 69, 70, 71, 72, 73, 74, 75, 76, 77, 78, 79, 80, 81, 82, 83, 84, 85, 86, 87, 88, 89, 90, 91, 92, 93, 94, 95, 96, 97, 98, 99, 100, 101, 102, 103, 104, 105, 106, 107, 108, 109, 110, 111, 112, 113, 114, 115, 116, 117, 118, 119, 120, 121, 122, 123, 124, 125, 126, 127, 128, 129, 130, 131, 132, 133, 134, 135, 136, 137, 138, 139, 140, 141, 142, 143, 144, 145, 146, 147, 148, 149, 150, 151, 152, 153, 154, 155, 156, 157, 158, 159, 160, 161, 162, 163, 164, 165, 166, 167, 168, 169, 170, 171, 172, 173, 174, 175, 176, 177, 178, 179, 180, 181, 182, 183, 184, 185, 186, 187, 188, 189, 190, 191, 192, 193, 194, 195, 196, 197, 198, 199, 200, 201, 202, 203, 204, 205, 206, 207, 208, 209, 210, 211, 212, 213, 214, 215, 216, 217, 218, 219, 220, 221, 222, 223, 224, 225, 226, 227, 228, 229, 230, 231, 232, 233, 234, 235, 236, 237, 238, 239, 240, 241, 242, 243, 244, 245, 246, 247, 248, 249, 250, 251, 252, 253, 254, 255, 256, 257, 258, 259, 260, 261, 262, 263, 264, 265, 266, 267, 268, 269, 270, 271, 272, 273, 274, 275, 276, 277, 278, 279, 280, 281, 282, 283, 284, 285, 286, 287, 288, 289, 290, 291, 292, 293, 294, 295, 296, 297, 298, 299, 300, 301, 302, 303, 304, 305, 306, 307, 308, 309, 310, 311, 312, 313, 314, 315, 316, 317, 318, 319, 320, 321, 322, 323, 324, 325, 326, 327, 328, 329, 330, 331, 332, 333, 334, 335, 336, 337, 338, 339, 340, 341, 342, 343, 344, 345, 346, 347, 348, 349, 350, 351, 352, 353, 354, 355, 356],
      "AcquisitionTime": ["142547.795000", "142548.795000", "142549.795000", "142550.795000", "142551.795000", "142552.795000", "142553.795000", "142554.795000", "142555.795000", "142556.795000", "142557.795000", "142558.795000", "142559.795000", "142600.795000", "142601.795000", "142602.795000", "142603.795000", "142604.795000", "142605.795000", "142606.795000", "142607.795000", "142608.795000", "142609.795000", "142610.795000", "142611.795000", "142612.795000", "142613.795000", "142614.795000", "142615.795000", "142616.795000", "142617.795000", "142618.795000", "142619.795000", "142620.795000", "142621.795000", "142622.795000", "142623.795000", "142624.795000", "142625.795000", "142626.795000", "142627.795000", "142628.795000", "142629.795000", "142630.795000", "142631.795000", "142632.795000", "142633.795000", "142634.795000", "142635.795000", "142636.795000", "142637.795000", "142638.795000", "142639.795000", "142640.795000", "142641.795000", "142642.795000", "142643.795000", "142644.795000", "142645.795000", "142646.795000", "142647.795000", "142648.795000", "142649.795000", "142650.795000", "142651.795000", "142652.795000", "142653.795000", "142654.795000", "142655.795000", "142656.795000", "142657.795000", "142658.795000", "142659.795000", "142700.795000", "142701.795000", "142702.795000", "142703.795000", "142704.795000", "142705.795000", "142706.795000", "142707.795000", "142708.795000", "142709.795000", "142710.795000", "142711.795000", "142712.795000", "142713.795000", "142714.795000", "142715.795000", "142716.795000", "142717.795000", "142718.795000", "142719.795000", "142720.795000", "142721.795000", "142722.795000", "142723.795000", "142724.795000", "142725.795000", "142726.795000", "142727.795000", "142728.795000", "142729.795000", "142730.795000", "142731.795000", "142732.795000", "142733.795000", "142734.795000", "142735.795000", "142736.795000", "142737.795000", "142738.795000", "142739.795000", "142740.795000", "142741.795000", "142742.795000", "142743.795000", "142744.795000", "142745.795000", "142746.795000", "142747.795000", "142748.795000", "142749.795000", "142750.795000", "142751.795000", "142752.795000", "142753.795000", "142754.795000", "142755.795000", "142756.795000", "142757.795000", "142758.795000", "142759.795000", "142800.795000", "142801.795000", "142802.795000", "142803.795000", "142804.795000", "142805.795000", "142806.795000", "142807.795000", "142808.795000", "142809.795000", "142810.795000", "142811.795000", "142812.795000", "142813.795000", "142814.795000", "142815.795000", "142816.795000", "142817.795000", "142818.795000", "142819.795000", "142820.795000", "142821.795000", "142822.795000", "142823.795000", "142824.795000", "142825.795000", "142826.795000", "142827.795000", "142828.795000", "142829.795000", "142830.795000", "142831.795000", "142832.795000", "142833.795000", "142834.795000", "142835.795000", "142836.795000", "142837.795000", "142838.795000", "142839.795000", "142840.795000", "142841.795000", "142842.795000", "142843.795000", "142844.795000", "142845.795000", "142846.795000", "142847.795000", "142848.795000", "142849.795000", "142850.795000", "142851.795000", "142852.795000", "142853.795000", "142854.795000", "142855.795000", "142856.795000", "142857.795000", "142858.795000", "142859.795000", "142900.795000", "142901.795000", "142902.795000", "142903.795000", "142904.795000", "142905.795000", "142906.795000", "142907.795000", "142908.795000", "142909.795000", "142910.795000", "142911.795000", "142912.795000", "142913.795000", "142914.795000", "142915.795000", "142916.795000", "142917.795000", "142918.795000", "142919.795000", "142920.795000", "142921.795000", "142922.795000", "142923.795000", "142924.795000", "142925.795000", "142926.795000", "142927.795000", "142928.795000", "142929.795000", "142930.795000", "142931.795000", "142932.795000", "142933.795000", "142934.795000", "142935.795000", "142936.795000", "142937.795000", "142938.795000", "142939.795000", "142940.795000", "142941.795000", "142942.795000", "142943.795000", "142944.795000", "142945.795000", "142946.795000", "142947.795000", "142948.795000", "142949.795000", "142950.795000", "142951.795000", "142952.795000", "142953.795000", "142954.795000", "142955.795000", "142956.795000", "142957.795000", "142958.795000", "142959.795000", "143000.795000", "143001.795000", "143002.795000", "143003.795000", "143004.795000", "143005.795000", "143006.795000", "143007.795000", "143008.795000", "143009.795000", "143010.795000", "143011.795000", "143012.795000", "143013.795000", "143014.795000", "143015.795000", "143016.795000", "143017.795000", "143018.795000", "143019.795000", "143020.795000", "143021.795000", "143022.795000", "143023.795000", "143024.795000", "143025.795000", "143026.795000", "143027.795000", "143028.795000", "143029.795000", "143030.795000", "143031.795000", "143032.795000", "143033.795000", "143034.795000", "143035.795000", "143036.795000", "143037.795000", "143038.795000", "143039.795000", "143040.795000", "143041.795000", "143042.795000", "143043.795000", "143044.795000", "143045.795000", "143046.795000", "143047.795000", "143048.795000", "143049.795000", "143050.795000", "143051.795000", "143052.795000", "143053.795000", "143054.795000", "143055.795000", "143056.795000", "143057.795000", "143058.795000", "143059.795000", "143100.795000", "143101.795000", "143102.795000", "143103.795000", "143104.795000", "143105.795000", "143106.795000", "143107.795000", "143108.795000", "143109.795000", "143110.795000", "143111.795000", "143112.795000", "143113.795000", "143114.795000", "143115.795000", "143116.795000", "143117.795000", "143118.795000", "143119.795000", "143120.795000", "143121.795000", "143122.795000", "143123.795000", "143124.795000", "143125.795000", "143126.795000", "143127.795000", "143128.795000", "143129.795000", "143130.795000", "143131.795000", "143132.795000", "143133.795000", "143134.795000", "143135.795000", "143136.795000", "143137.795000", "143138.795000", "143139.795000", "143140.795000", "143141.795000", "143142.795000"],
      "ContentTime": ["142624.014000", "142624.017000", "142624.020000", "142624.022000", "142624.025000", "142624.027000", "142624.030000", "142624.032000", "142624.035000", "142624.037000", "142624.040000", "142624.042000", "142624.045000", "142624.047000", "142624.050000", "142624.052000", "142624.055000", "142624.057000", "142624.060000", "142624.062000", "142624.065000", "142624.067000", "142624.070000", "142624.072000", "142624.075000", "142624.077000", "142624.080000", "142624.082000", "142624.085000", "142624.087000", "142624.090000", "142624.092000", "142624.095000", "142624.097000", "142624.105000", "142624.108000", "142643.980000", "142643.983000", "142643.986000", "142643.988000", "142643.990000", "142643.993000", "142643.995000", "142643.998000", "142644.000000", "142644.015000", "142644.018000", "142644.020000", "142644.023000", "142644.025000", "142644.028000", "142644.030000", "142644.033000", "142644.035000", "142644.038000", "142644.040000", "142703.980000", "142703.983000", "142703.985000", "142703.988000", "142703.991000", "142703.993000", "142703.996000", "142703.998000", "142704.001000", "142704.004000", "142704.006000", "142704.009000", "142704.011000", "142704.014000", "142704.016000", "142704.019000", "142704.021000", "142704.024000", "142704.026000", "142704.029000", "142723.980000", "142723.983000", "142723.986000", "142723.992000", "142723.994000", "142723.997000", "142724.000000", "142724.003000", "142724.005000", "142724.008000", "142724.010000", "142724.013000", "142724.015000", "142724.018000", "142724.020000", "142724.023000", "142724.025000", "142724.028000", "142724.030000", "142724.033000", "142743.980000", "142743.983000", "142743.985000", "142743.988000", "142743.991000", "142743.993000", "142743.996000", "142743.998000", "142744.001000", "142744.004000", "142744.006000", "142744.009000", "142744.012000", "142744.014000", "142744.016000", "142744.019000", "142744.022000", "142744.024000", "142744.027000", "142744.029000", "142803.979000", "142803.982000", "142803.985000", "142803.996000", "142804.000000", "142804.002000", "142804.005000", "142804.007000", "142804.010000", "142804.012000", "142804.015000", "142804.017000", "142804.020000", "142804.022000", "142804.025000", "142804.027000", "142804.029000", "142804.032000", "142804.034000", "142804.037000", "142823.980000", "142823.982000", "142823.985000", "142823.988000", "142823.990000", "142823.993000", "142823.995000", "142823.998000", "142824.001000", "142824.004000", "142824.006000", "142824.009000", "142824.011000", "142824.014000", "142824.016000", "142824.018000", "142824.021000", "142824.023000", "142824.026000", "142824.028000", "142843.979000", "142843.982000", "142843.985000", "142843.987000", "142843.990000", "142843.992000", "142843.995000", "142843.997000", "142844.001000", "142844.003000", "142844.006000", "142844.008000", "142844.010000", "142844.013000", "142844.016000", "142844.018000", "142844.021000", "142844.023000", "142844.026000", "142844.028000", "142903.980000", "142903.983000", "142903.986000", "142903.988000", "142903.991000", "142903.993000", "142903.996000", "142903.998000", "142904.002000", "142904.004000", "142904.007000", "142904.009000", "142904.012000", "142904.014000", "142904.017000", "142904.019000", "142904.022000", "142904.024000", "142904.027000", "142904.029000", "142923.981000", "142923.983000", "142923.986000", "142923.988000", "142923.991000", "142923.993000", "142923.996000", "142923.998000", "142924.002000", "142924.004000", "142924.007000", "142924.009000", "142924.012000", "142924.014000", "142924.017000", "142924.019000", "142924.022000", "142924.024000", "142924.027000", "142924.030000", "142943.981000", "142943.983000", "142943.986000", "142943.988000", "142943.991000", "142943.993000", "142943.996000", "142943.998000", "142944.002000", "142944.004000", "142944.007000", "142944.009000", "142944.012000", "142944.014000", "142944.017000", "142944.020000", "142944.022000", "142944.025000", "142944.027000", "142944.029000", "143003.981000", "143003.983000", "143003.986000", "143003.988000", "143003.991000", "143003.993000", "143003.996000", "143003.998000", "143004.002000", "143004.004000", "143004.007000", "143004.009000", "143004.012000", "143004.014000", "143004.017000", "143004.019000", "143004.022000", "143004.024000", "143004.027000", "143004.029000", "143023.979000", "143023.982000", "143023.985000", "143023.987000", "143023.990000", "143023.992000", "143023.995000", "143023.998000", "143024.001000", "143024.004000", "143024.006000", "143024.009000", "143024.011000", "143024.014000", "143024.016000", "143024.018000", "143024.021000", "143024.024000", "143024.026000", "143024.028000", "143043.980000", "143043.982000", "143043.985000", "143043.988000", "143043.990000", "143043.993000", "143043.995000", "143043.998000", "143044.001000", "143044.004000", "143044.006000", "143044.009000", "143044.011000", "143044.014000", "143044.016000", "143044.019000", "143044.021000", "143044.024000", "143044.026000", "143044.029000", "143103.980000", "143103.982000", "143103.985000", "143103.987000", "143103.990000", "143103.992000", "143103.995000", "143103.997000", "143104.001000", "143104.003000", "143104.006000", "143104.008000", "143104.011000", "143104.013000", "143104.016000", "143104.018000", "143104.021000", "143104.023000", "143104.026000", "143104.028000", "143123.980000", "143123.983000", "143123.986000", "143123.988000", "143123.991000", "143123.993000", "143123.996000", "143123.998000", "143124.002000", "143124.004000", "143124.007000", "143124.009000", "143124.012000", "143124.014000", "143124.017000", "143124.019000", "143124.022000", "143124.024000", "143124.027000", "143124.029000", "143143.947000", "143143.951000", "143143.954000", "143143.956000", "143143.959000", "143143.962000", "143143.965000", "143143.967000", "143143.970000", "143143.973000", "143143.980000", "143143.983000", "143143.985000", "143143.988000", "143143.990000", "143143.993000", "143143.995000", "143143.998000", "143144.002000", "143144.004000"],
      "InstanceCreationTime": ["142624.014000", "142624.017000", "142624.020000", "142624.022000", "142624.025000", "142624.027000", "142624.030000", "142624.032000", "142624.035000", "142624.037000", "142624.040000", "142624.042000", "142624.045000", "142624.047000", "142624.050000", "142624.052000", "142624.055000", "142624.057000", "142624.060000", "142624.062000", "142624.065000", "142624.067000", "142624.070000", "142624.072000", "142624.075000", "142624.077000", "142624.080000", "142624.082000", "142624.085000", "142624.087000", "142624.090000", "142624.092000", "142624.095000", "142624.097000", "142624.105000", "142624.108000", "142643.980000", "142643.983000", "142643.986000", "142643.988000", "142643.990000", "142643.993000", "142643.995000", "142643.998000", "142644.000000", "142644.015000", "142644.018000", "142644.020000", "142644.023000", "142644.025000", "142644.028000", "142644.030000", "142644.033000", "142644.035000", "142644.038000", "142644.040000", "142703.980000", "142703.983000", "142703.985000", "142703.988000", "142703.991000", "142703.993000", "142703.996000", "142703.998000", "142704.001000", "142704.004000", "142704.006000", "142704.009000", "142704.011000", "142704.014000", "142704.016000", "142704.019000", "142704.021000", "142704.024000", "142704.026000", "142704.029000", "142723.980000", "142723.983000", "142723.986000", "142723.992000", "142723.994000", "142723.997000", "142724.000000", "142724.003000", "142724.005000", "142724.008000", "142724.010000", "142724.013000", "142724.015000", "142724.018000", "142724.020000", "142724.023000", "142724.025000", "142724.028000", "142724.030000", "142724.033000", "142743.980000", "142743.983000", "142743.985000", "142743.988000", "142743.991000", "142743.993000", "142743.996000", "142743.998000", "142744.001000", "142744.004000", "142744.006000", "142744.009000", "142744.012000", "142744.014000", "142744.016000", "142744.019000", "142744.022000", "142744.024000", "142744.027000", "142744.029000", "142803.979000", "142803.982000", "142803.985000", "142803.996000", "142804.000000", "142804.002000", "142804.005000", "142804.007000", "142804.010000", "142804.012000", "142804.015000", "142804.017000", "142804.020000", "142804.022000", "142804.025000", "142804.027000", "142804.029000", "142804.032000", "142804.034000", "142804.037000", "142823.980000", "142823.982000", "142823.985000", "142823.988000", "142823.990000", "142823.993000", "142823.995000", "142823.998000", "142824.001000", "142824.004000", "142824.006000", "142824.009000", "142824.011000", "142824.014000", "142824.016000", "142824.018000", "142824.021000", "142824.023000", "142824.026000", "142824.028000", "142843.979000", "142843.982000", "142843.985000", "142843.987000", "142843.990000", "142843.992000", "142843.995000", "142843.997000", "142844.001000", "142844.003000", "142844.006000", "142844.008000", "142844.010000", "142844.013000", "142844.016000", "142844.018000", "142844.021000", "142844.023000", "142844.026000", "142844.028000", "142903.980000", "142903.983000", "142903.986000", "142903.988000", "142903.991000", "142903.993000", "142903.996000", "142903.998000", "142904.002000", "142904.004000", "142904.007000", "142904.009000", "142904.012000", "142904.014000", "142904.017000", "142904.019000", "142904.022000", "142904.024000", "142904.027000", "142904.029000", "142923.981000", "142923.983000", "142923.986000", "142923.988000", "142923.991000", "142923.993000", "142923.996000", "142923.998000", "142924.002000", "142924.004000", "142924.007000", "142924.009000", "142924.012000", "142924.014000", "142924.017000", "142924.019000", "142924.022000", "142924.024000", "142924.027000", "142924.030000", "142943.981000", "142943.983000", "142943.986000", "142943.988000", "142943.991000", "142943.993000", "142943.996000", "142943.998000", "142944.002000", "142944.004000", "142944.007000", "142944.009000", "142944.012000", "142944.014000", "142944.017000", "142944.020000", "142944.022000", "142944.025000", "142944.027000", "142944.029000", "143003.981000", "143003.983000", "143003.986000", "143003.988000", "143003.991000", "143003.993000", "143003.996000", "143003.998000", "143004.002000", "143004.004000", "143004.007000", "143004.009000", "143004.012000", "143004.014000", "143004.017000", "143004.019000", "143004.022000", "143004.024000", "143004.027000", "143004.029000", "143023.979000", "143023.982000", "143023.985000", "143023.987000", "143023.990000", "143023.992000", "143023.995000", "143023.998000", "143024.001000", "143024.004000", "143024.006000", "143024.009000", "143024.011000", "143024.014000", "143024.016000", "143024.018000", "143024.021000", "143024.024000", "143024.026000", "143024.028000", "143043.980000", "143043.982000", "143043.985000", "143043.988000", "143043.990000", "143043.993000", "143043.995000", "143043.998000", "143044.001000", "143044.004000", "143044.006000", "143044.009000", "143044.011000", "143044.014000", "143044.016000", "143044.019000", "143044.021000", "143044.024000", "143044.026000", "143044.029000", "143103.980000", "143103.982000", "143103.985000", "143103.987000", "143103.990000", "143103.992000", "143103.995000", "143103.997000", "143104.001000", "143104.003000", "143104.006000", "143104.008000", "143104.011000", "143104.013000", "143104.016000", "143104.018000", "143104.021000", "143104.023000", "143104.026000", "143104.028000", "143123.980000", "143123.983000", "143123.986000", "143123.988000", "143123.991000", "143123.993000", "143123.996000", "143123.998000", "143124.002000", "143124.004000", "143124.007000", "143124.009000", "143124.012000", "143124.014000", "143124.017000", "143124.019000", "143124.022000", "143124.024000", "143124.027000", "143124.029000", "143143.947000", "143143.951000", "143143.954000", "143143.956000", "143143.959000", "143143.962000", "143143.965000", "143143.967000", "143143.970000", "143143.973000", "143143.980000", "143143.983000", "143143.985000", "143143.988000", "143143.990000", "143143.993000", "143143.995000", "143143.998000", "143144.002000", "143144.004000"],
      "InstanceNumber": [1, 2, 3, 4, 5, 6, 7, 8, 9, 10, 11, 12, 13, 14, 15, 16, 17, 18, 19, 20, 21, 22, 23, 24, 25, 26, 27, 28, 29, 30, 31, 32, 33, 34, 35, 36, 37, 38, 39, 40, 41, 42, 43, 44, 45, 46, 47, 48, 49, 50, 51, 52, 53, 54, 55, 56, 57, 58, 59, 60, 61, 62, 63, 64, 65, 66, 67, 68, 69, 70, 71, 72, 73, 74, 75, 76, 77, 78, 79, 80, 81, 82, 83, 84, 85, 86, 87, 88, 89, 90, 91, 92, 93, 94, 95, 96, 97, 98, 99, 100, 101, 102, 103, 104, 105, 106, 107, 108, 109, 110, 111, 112, 113, 114, 115, 116, 117, 118, 119, 120, 121, 122, 123, 124, 125, 126, 127, 128, 129, 130, 131, 132, 133, 134, 135, 136, 137, 138, 139, 140, 141, 142, 143, 144, 145, 146, 147, 148, 149, 150, 151, 152, 153, 154, 155, 156, 157, 158, 159, 160, 161, 162, 163, 164, 165, 166, 167, 168, 169, 170, 171, 172, 173, 174, 175, 176, 177, 178, 179, 180, 181, 182, 183, 184, 185, 186, 187, 188, 189, 190, 191, 192, 193, 194, 195, 196, 197, 198, 199, 200, 201, 202, 203, 204, 205, 206, 207, 208, 209, 210, 211, 212, 213, 214, 215, 216, 217, 218, 219, 220, 221, 222, 223, 224, 225, 226, 227, 228, 229, 230, 231, 232, 233, 234, 235, 236, 237, 238, 239, 240, 241, 242, 243, 244, 245, 246, 247, 248, 249, 250, 251, 252, 253, 254, 255, 256, 257, 258, 259, 260, 261, 262, 263, 264, 265, 266, 267, 268, 269, 270, 271, 272, 273, 274, 275, 276, 277, 278, 279, 280, 281, 282, 283, 284, 285, 286, 287, 288, 289, 290, 291, 292, 293, 294, 295, 296, 297, 298, 299, 300, 301, 302, 303, 304, 305, 306, 307, 308, 309, 310, 311, 312, 313, 314, 315, 316, 317, 318, 319, 320, 321, 322, 323, 324, 325, 326, 327, 328, 329, 330, 331, 332, 333, 334, 335, 336, 337, 338, 339, 340, 341, 342, 343, 344, 345, 346, 347, 348, 349, 350, 351, 352, 353, 354, 355, 356],
      "LargestImagePixelValue": [10732, 10455, 10401, 10434, 10340, 10133, 10429, 10342, 10172, 10207, 10535, 10740, 10298, 10233, 10405, 10482, 10306, 10237, 10676, 10829, 10660, 10293, 10541, 10445, 10388, 10234, 10745, 10891, 10361, 10812, 10824, 10934, 10724, 10580, 10670, 10941, 10477, 11007, 11047, 11005, 10916, 11020, 11109, 10917, 10893, 11256, 11208, 10933, 11068, 11202, 11034, 11033, 10825, 10313, 10374, 10307, 10382, 10890, 10865, 11321, 10204, 10636, 10356, 10644, 10805, 10663, 10392, 10340, 10367, 10369, 10411, 10311, 10369, 10187, 10154, 10309, 10170, 10398, 10597, 10403, 10499, 10539, 10913, 11010, 10800, 10635, 10551, 11034, 11067, 10854, 10635, 10516, 10748, 10869, 10729, 11080, 10919, 10683, 10419, 10088, 9987, 10103, 11030, 10486, 10122, 9951, 9733, 9948, 9768, 9929, 10944, 10420, 9872, 9803, 9626, 9704, 9779, 9827, 9704, 9590, 9846, 9795, 9728, 9546, 9680, 9646, 9690, 9573, 9654, 9688, 9486, 9672, 9945, 9783, 9631, 9925, 9657, 9668, 9958, 10125, 10230, 10430, 10701, 10050, 9845, 9741, 9875, 9849, 9957, 9969, 9979, 10185, 10014, 10081, 10353, 10241, 10107, 10457, 11120, 11131, 10998, 10504, 10664, 10911, 11005, 10951, 10928, 10758, 10881, 10932, 10846, 10944, 11158, 11072, 11142, 11112, 11355, 10957, 10987, 11028, 11157, 11268, 11228, 11087, 11357, 11023, 10840, 10275, 10438, 10843, 11063, 10986, 11162, 10894, 10784, 11071, 11050, 11047, 10696, 10222, 10016, 10082, 10703, 10206, 10350, 9899, 10066, 9885, 10039, 9774, 10026, 9861, 10255, 10692, 10304, 9856, 10085, 9779, 9945, 10044, 10093, 9950, 10299, 9949, 9810, 9703, 9706, 9825, 9974, 9791, 9723, 9905, 10228, 10125, 10242, 10762, 11058, 10656, 10452, 10371, 10477, 10397, 10611, 10738, 10631, 10576, 10612, 11218, 11127, 10714, 10557, 10653, 10962, 10822, 10277, 10201, 10045, 10851, 10586, 10253, 10355, 9739, 9672, 9620, 9565, 9711, 9878, 9767, 9857, 9824, 9540, 9613, 9846, 9940, 9902, 9814, 9916, 10073, 10227, 10217, 10617, 10736, 10830, 10651, 10376, 10350, 10447, 10295, 10277, 10638, 10466, 10160, 10145, 10975, 10940, 10534, 10413, 10672, 10527, 10227, 10209, 10389, 10492, 10259, 9894, 9894, 9589, 10106, 9880, 10926, 10889, 11241, 10952, 10917, 10861, 10353, 10290, 10642, 10123, 9720, 9961, 10008, 10080, 10192, 10826, 11259, 11061, 10412, 10500, 10487, 10509, 10367, 10294, 10638, 10761, 10363, 10488, 10718, 10855, 10574, 10777, 10648, 10546, 10407, 10811, 10655, 10797, 10787, 11135, 10829, 11261, 11019, 11166, 11143, 11004, 11064],
