{
  "AcquisitionMatrixPE": 106,
  "AcquisitionNumber": 1,
  "AcquisitionTime": "17:12:49.447500",
  "BandwidthPerPixelPhaseEncode": 16.846,
  "BaseResolution": 106,
  "BodyPartExamined": "BRAIN",
  "CoilCombinationMethod": "Sum of Squares",
  "ConsistencyInfo": "N4_VE11C_LATEST_20160120",
  "ConversionSoftware": "dcm2niix",
  "ConversionSoftwareVersion": "v1.0.20220720",
  "DerivedVendorReportedEchoSpacing": 0.000560012,
  "DeviceSerialNumber": "166108",
  "DwellTime": 1.8e-06,
  "EchoTime": 0.0352,
  "EchoTrainLength": 106,
  "EffectiveEchoSpacing": 0.000560012,
  "FlipAngle": 60,
  "HeudiconvVersion": "1.3.0",
  "ImageComments": "Unaliased MB4/PE3/LB",
  "ImageOrientationPatientDICOM": [1, 0, 0, 0, 1, 0],
  "ImageOrientationText": "Tra",
  "ImageType": [
    "ORIGINAL",
    "PRIMARY",
    "M",
    "MB",
    "ND",
    "MOSAIC"
],
  "ImagingFrequency": 123.244,
  "InPlanePhaseEncodingDirectionDICOM": "COL",
  "InstitutionAddress": "Bedford Way 26,London,London,GB,WC1H 0AP",
  "InstitutionName": "University College",
  "InstitutionalDepartmentName": "Department",
  "MRAcquisitionType": "2D",
  "MagneticFieldStrength": 3,
  "Manufacturer": "Siemens",
  "ManufacturersModelName": "Prisma",
  "MatrixCoilMode": "SENSE",
  "Modality": "MR",
  "MultibandAccelerationFactor": 4,
  "NonlinearGradientCorrection": false,
  "PartialFourier": 1,
  "PatientPosition": "HFS",
  "PercentPhaseFOV": 100,
  "PercentSampling": 100,
  "PhaseEncodingDirection": "j-",
  "PhaseEncodingSteps": 106,
  "PhaseResolution": 1,
  "PixelBandwidth": 2620,
  "ProcedureStepDescription": "Egor^MovieProject2",
  "ProtocolName": "task-backtothefuture_run-3",
  "PulseSequenceDetails": "%CustomerSeq%\\cmrr_mbep2d_bold",
  "ReceiveCoilActiveElements": "HEA;HEP",
  "ReceiveCoilName": "Head_32",
  "ReconMatrixPE": 106,
  "RepetitionTime": 1.5,
  "SAR": 0.0714097,
  "ScanOptions": "FS\\EXT",
  "ScanningSequence": "EP",
  "SequenceName": "epfid2d1_106",
  "SequenceVariant": "SK\\SS",
  "SeriesDescription": "task-backtothefuture_run-3",
  "SeriesNumber": 11,
  "ShimSetting": [-1586, 622, 7420, 359, -163, 197, -53, 24],
  "SliceThickness": 2,
  "SliceTiming": [0, 1.0675, 0.6575, 0.245, 1.315, 0.905, 0.4925, 0.0825, 1.15, 0.74, 0.3275, 1.3975, 0.985, 0.575, 0.165, 1.2325, 0.8225, 0.41, 0, 1.0675, 0.6575, 0.245, 1.315, 0.905, 0.4925, 0.0825, 1.15, 0.74, 0.3275, 1.3975, 0.985, 0.575, 0.165, 1.2325, 0.8225, 0.41, 0, 1.0675, 0.6575, 0.245, 1.315, 0.905, 0.4925, 0.0825, 1.15, 0.74, 0.3275, 1.3975, 0.985, 0.575, 0.165, 1.2325, 0.8225, 0.41, 0, 1.0675, 0.6575, 0.245, 1.315, 0.905, 0.4925, 0.0825, 1.15, 0.74, 0.3275, 1.3975, 0.985, 0.575, 0.165, 1.2325, 0.8225, 0.41],
  "SoftwareVersions": "syngo MR E11",
  "SpacingBetweenSlices": 2,
  "StationName": "AWP166108",
  "TaskName": "backtothefuture",
  "TotalReadoutTime": 0.0588013,
  "TxRefAmp": 250.973,
  "WipMemBlock": "934f16af-ac62-4ebf-8bd5-154561114857||Sequence: R016 ve11c/master r/e634e98; Dec 19 2017 11:00:25 by eja",
  "dcmmeta_affine": [
    [-2.0, 0.0, 0.0, 106.0],
    [0.0, 2.0, 0.0, -83.51807403564453],
    [0.0, 0.0, 2.0, -67.98795318603516],
    [0.0, 0.0, 0.0, 1.0]
],
  "dcmmeta_reorient_transform": [
    [0.0, -1.0, 0.0, 105.0],
    [1.0, 0.0, 0.0, 0.0],
    [0.0, 0.0, 1.0, 0.0],
    [0.0, 0.0, 0.0, 1.0]
],
  "dcmmeta_shape": [106, 106, 72, 1608],
  "dcmmeta_slice_dim": 2,
  "dcmmeta_version": 0.6,
  "global": {
    "const": {
      "AcquisitionMatrix": [106, 0, 0, 106],
      "AngioFlag": "N",
      "BitsAllocated": 16,
      "BitsStored": 16,
      "BodyPartExamined": "BRAIN",
      "CardiacNumberOfImages": 1,
      "Columns": 954,
      "EchoNumbers": 1,
      "EchoTime": 35.2,
      "EchoTrainLength": 106,
      "FlipAngle": 60.0,
      "HighBit": 15,
      "ImageOrientationPatient": [1.0, 0.0, 0.0, 0.0, 1.0, 0.0],
      "ImagePositionPatient": [-954.0, -974.4819278717, -67.987953186035],
      "ImageType": [
        "ORIGINAL",
        "PRIMARY",
        "M",
        "MB",
        "ND",
        "MOSAIC"
],
      "ImagedNucleus": "1H",
      "ImagingFrequency": 123.243689,
      "InPlanePhaseEncodingDirection": "COL",
      "MRAcquisitionType": "2D",
      "MagneticFieldStrength": 3.0,
      "Manufacturer": "SIEMENS",
      "ManufacturerModelName": "Prisma",
      "Modality": "MR",
      "NominalInterval": 0,
      "NumberOfAverages": 1.0,
      "NumberOfPhaseEncodingSteps": 106,
      "PercentPhaseFieldOfView": 100.0,
      "PercentSampling": 100.0,
      "PerformedProcedureStepStartTime": "152040.248000",
      "PhotometricInterpretation": "MONOCHROME2",
      "PixelBandwidth": 2620.0,
      "PixelRepresentation": 0,
      "PixelSpacing": [2.0, 2.0],
      "ProtocolName": "task-backtothefuture_run-3",
      "RepetitionTime": 1500.0,
      "Rows": 954,
      "SAR": 0.07140966496671,
      "SamplesPerPixel": 1,
      "ScanOptions": [
        "FS",
        "EXT"
],
      "ScanningSequence": "EP",
      "SequenceName": "epfid2d1_106",
      "SequenceVariant": [
        "SK",
        "SS"
],
      "SeriesDescription": "task-backtothefuture_run-3",
      "SeriesNumber": 11,
      "SeriesTime": "171339.977000",
      "SliceLocation": -67.987953186035,
      "SliceThickness": 2.0,
      "SmallestImagePixelValue": 0,
      "SoftwareVersions": "syngo MR E11",
      "SpacingBetweenSlices": 2.0,
      "SpecificCharacterSet": "ISO_IR 100",
      "StudyID": "1",
      "StudyTime": "152040.154000",
      "TransmitCoilName": "Body",
      "VariableFlipAngleFlag": "N",
      "WindowCenterWidthExplanation": "Algo1",
      "dBdt": 0.0},
    "slices": {}
  },
  "time": {
    "samples": {
      "AcquisitionNumber": [1, 2, 3, 4, 5, 6, 7, 8, 9, 10, 11, 12, 13, 14, 15, 16, 17, 18, 19, 20, 21, 22, 23, 24, 25, 26, 27, 28, 29, 30, 31, 32, 33, 34, 35, 36, 37, 38, 39, 40, 41, 42, 43, 44, 45, 46, 47, 48, 49, 50, 51, 52, 53, 54, 55, 56, 57, 58, 59, 60, 61, 62, 63, 64, 65, 66, 67, 68, 69, 70, 71, 72, 73, 74, 75, 76, 77, 78, 79, 80, 81, 82, 83, 84, 85, 86, 87, 88, 89, 90, 91, 92, 93, 94, 95, 96, 97, 98, 99, 100, 101, 102, 103, 104, 105, 106, 107, 108, 109, 110, 111, 112, 113, 114, 115, 116, 117, 118, 119, 120, 121, 122, 123, 124, 125, 126, 127, 128, 129, 130, 131, 132, 133, 134, 135, 136, 137, 138, 139, 140, 141, 142, 143, 144, 145, 146, 147, 148, 149, 150, 151, 152, 153, 154, 155, 156, 157, 158, 159, 160, 161, 162, 163, 164, 165, 166, 167, 168, 169, 170, 171, 172, 173, 174, 175, 176, 177, 178, 179, 180, 181, 182, 183, 184, 185, 186, 187, 188, 189, 190, 191, 192, 193, 194, 195, 196, 197, 198, 199, 200, 201, 202, 203, 204, 205, 206, 207, 208, 209, 210, 211, 212, 213, 214, 215, 216, 217, 218, 219, 220, 221, 222, 223, 224, 225, 226, 227, 228, 229, 230, 231, 232, 233, 234, 235, 236, 237, 238, 239, 240, 241, 242, 243, 244, 245, 246, 247, 248, 249, 250, 251, 252, 253, 254, 255, 256, 257, 258, 259, 260, 261, 262, 263, 264, 265, 266, 267, 268, 269, 270, 271, 272, 273, 274, 275, 276, 277, 278, 279, 280, 281, 282, 283, 284, 285, 286, 287, 288, 289, 290, 291, 292, 293, 294, 295, 296, 297, 298, 299, 300, 301, 302, 303, 304, 305, 306, 307, 308, 309, 310, 311, 312, 313, 314, 315, 316, 317, 318, 319, 320, 321, 322, 323, 324, 325, 326, 327, 328, 329, 330, 331, 332, 333, 334, 335, 336, 337, 338, 339, 340, 341, 342, 343, 344, 345, 346, 347, 348, 349, 350, 351, 352, 353, 354, 355, 356, 357, 358, 359, 360, 361, 362, 363, 364, 365, 366, 367, 368, 369, 370, 371, 372, 373, 374, 375, 376, 377, 378, 379, 380, 381, 382, 383, 384, 385, 386, 387, 388, 389, 390, 391, 392, 393, 394, 395, 396, 397, 398, 399, 400, 401, 402, 403, 404, 405, 406, 407, 408, 409, 410, 411, 412, 413, 414, 415, 416, 417, 418, 419, 420, 421, 422, 423, 424, 425, 426, 427, 428, 429, 430, 431, 432, 433, 434, 435, 436, 437, 438, 439, 440, 441, 442, 443, 444, 445, 446, 447, 448, 449, 450, 451, 452, 453, 454, 455, 456, 457, 458, 459, 460, 461, 462, 463, 464, 465, 466, 467, 468, 469, 470, 471, 472, 473, 474, 475, 476, 477, 478, 479, 480, 481, 482, 483, 484, 485, 486, 487, 488, 489, 490, 491, 492, 493, 494, 495, 496, 497, 498, 499, 500, 501, 502, 503, 504, 505, 506, 507, 508, 509, 510, 511, 512, 513, 514, 515, 516, 517, 518, 519, 520, 521, 522, 523, 524, 525, 526, 527, 528, 529, 530, 531, 532, 533, 534, 535, 536, 537, 538, 539, 540, 541, 542, 543, 544, 545, 546, 547, 548, 549, 550, 551, 552, 553, 554, 555, 556, 557, 558, 559, 560, 561, 562, 563, 564, 565, 566, 567, 568, 569, 570, 571, 572, 573, 574, 575, 576, 577, 578, 579, 580, 581, 582, 583, 584, 585, 586, 587, 588, 589, 590, 591, 592, 593, 594, 595, 596, 597, 598, 599, 600, 601, 602, 603, 604, 605, 606, 607, 608, 609, 610, 611, 612, 613, 614, 615, 616, 617, 618, 619, 620, 621, 622, 623, 624, 625, 626, 627, 628, 629, 630, 631, 632, 633, 634, 635, 636, 637, 638, 639, 640, 641, 642, 643, 644, 645, 646, 647, 648, 649, 650, 651, 652, 653, 654, 655, 656, 657, 658, 659, 660, 661, 662, 663, 664, 665, 666, 667, 668, 669, 670, 671, 672, 673, 674, 675, 676, 677, 678, 679, 680, 681, 682, 683, 684, 685, 686, 687, 688, 689, 690, 691, 692, 693, 694, 695, 696, 697, 698, 699, 700, 701, 702, 703, 704, 705, 706, 707, 708, 709, 710, 711, 712, 713, 714, 715, 716, 717, 718, 719, 720, 721, 722, 723, 724, 725, 726, 727, 728, 729, 730, 731, 732, 733, 734, 735, 736, 737, 738, 739, 740, 741, 742, 743, 744, 745, 746, 747, 748, 749, 750, 751, 752, 753, 754, 755, 756, 757, 758, 759, 760, 761, 762, 763, 764, 765, 766, 767, 768, 769, 770, 771, 772, 773, 774, 775, 776, 777, 778, 779, 780, 781, 782, 783, 784, 785, 786, 787, 788, 789, 790, 791, 792, 793, 794, 795, 796, 797, 798, 799, 800, 801, 802, 803, 804, 805, 806, 807, 808, 809, 810, 811, 812, 813, 814, 815, 816, 817, 818, 819, 820, 821, 822, 823, 824, 825, 826, 827, 828, 829, 830, 831, 832, 833, 834, 835, 836, 837, 838, 839, 840, 841, 842, 843, 844, 845, 846, 847, 848, 849, 850, 851, 852, 853, 854, 855, 856, 857, 858, 859, 860, 861, 862, 863, 864, 865, 866, 867, 868, 869, 870, 871, 872, 873, 874, 875, 876, 877, 878, 879, 880, 881, 882, 883, 884, 885, 886, 887, 888, 889, 890, 891, 892, 893, 894, 895, 896, 897, 898, 899, 900, 901, 902, 903, 904, 905, 906, 907, 908, 909, 910, 911, 912, 913, 914, 915, 916, 917, 918, 919, 920, 921, 922, 923, 924, 925, 926, 927, 928, 929, 930, 931, 932, 933, 934, 935, 936, 937, 938, 939, 940, 941, 942, 943, 944, 945, 946, 947, 948, 949, 950, 951, 952, 953, 954, 955, 956, 957, 958, 959, 960, 961, 962, 963, 964, 965, 966, 967, 968, 969, 970, 971, 972, 973, 974, 975, 976, 977, 978, 979, 980, 981, 982, 983, 984, 985, 986, 987, 988, 989, 990, 991, 992, 993, 994, 995, 996, 997, 998, 999, 1000, 1001, 1002, 1003, 1004, 1005, 1006, 1007, 1008, 1009, 1010, 1011, 1012, 1013, 1014, 1015, 1016, 1017, 1018, 1019, 1020, 1021, 1022, 1023, 1024, 1025, 1026, 1027, 1028, 1029, 1030, 1031, 1032, 1033, 1034, 1035, 1036, 1037, 1038, 1039, 1040, 1041, 1042, 1043, 1044, 1045, 1046, 1047, 1048, 1049, 1050, 1051, 1052, 1053, 1054, 1055, 1056, 1057, 1058, 1059, 1060, 1061, 1062, 1063, 1064, 1065, 1066, 1067, 1068, 1069, 1070, 1071, 1072, 1073, 1074, 1075, 1076, 1077, 1078, 1079, 1080, 1081, 1082, 1083, 1084, 1085, 1086, 1087, 1088, 1089, 1090, 1091, 1092, 1093, 1094, 1095, 1096, 1097, 1098, 1099, 1100, 1101, 1102, 1103, 1104, 1105, 1106, 1107, 1108, 1109, 1110, 1111, 1112, 1113, 1114, 1115, 1116, 1117, 1118, 1119, 1120, 1121, 1122, 1123, 1124, 1125, 1126, 1127, 1128, 1129, 1130, 1131, 1132, 1133, 1134, 1135, 1136, 1137, 1138, 1139, 1140, 1141, 1142, 1143, 1144, 1145, 1146, 1147, 1148, 1149, 1150, 1151, 1152, 1153, 1154, 1155, 1156, 1157, 1158, 1159, 1160, 1161, 1162, 1163, 1164, 1165, 1166, 1167, 1168, 1169, 1170, 1171, 1172, 1173, 1174, 1175, 1176, 1177, 1178, 1179, 1180, 1181, 1182, 1183, 1184, 1185, 1186, 1187, 1188, 1189, 1190, 1191, 1192, 1193, 1194, 1195, 1196, 1197, 1198, 1199, 1200, 1201, 1202, 1203, 1204, 1205, 1206, 1207, 1208, 1209, 1210, 1211, 1212, 1213, 1214, 1215, 1216, 1217, 1218, 1219, 1220, 1221, 1222, 1223, 1224, 1225, 1226, 1227, 1228, 1229, 1230, 1231, 1232, 1233, 1234, 1235, 1236, 1237, 1238, 1239, 1240, 1241, 1242, 1243, 1244, 1245, 1246, 1247, 1248, 1249, 1250, 1251, 1252, 1253, 1254, 1255, 1256, 1257, 1258, 1259, 1260, 1261, 1262, 1263, 1264, 1265, 1266, 1267, 1268, 1269, 1270, 1271, 1272, 1273, 1274, 1275, 1276, 1277, 1278, 1279, 1280, 1281, 1282, 1283, 1284, 1285, 1286, 1287, 1288, 1289, 1290, 1291, 1292, 1293, 1294, 1295, 1296, 1297, 1298, 1299, 1300, 1301, 1302, 1303, 1304, 1305, 1306, 1307, 1308, 1309, 1310, 1311, 1312, 1313, 1314, 1315, 1316, 1317, 1318, 1319, 1320, 1321, 1322, 1323, 1324, 1325, 1326, 1327, 1328, 1329, 1330, 1331, 1332, 1333, 1334, 1335, 1336, 1337, 1338, 1339, 1340, 1341, 1342, 1343, 1344, 1345, 1346, 1347, 1348, 1349, 1350, 1351, 1352, 1353, 1354, 1355, 1356, 1357, 1358, 1359, 1360, 1361, 1362, 1363, 1364, 1365, 1366, 1367, 1368, 1369, 1370, 1371, 1372, 1373, 1374, 1375, 1376, 1377, 1378, 1379, 1380, 1381, 1382, 1383, 1384, 1385, 1386, 1387, 1388, 1389, 1390, 1391, 1392, 1393, 1394, 1395, 1396, 1397, 1398, 1399, 1400, 1401, 1402, 1403, 1404, 1405, 1406, 1407, 1408, 1409, 1410, 1411, 1412, 1413, 1414, 1415, 1416, 1417, 1418, 1419, 1420, 1421, 1422, 1423, 1424, 1425, 1426, 1427, 1428, 1429, 1430, 1431, 1432, 1433, 1434, 1435, 1436, 1437, 1438, 1439, 1440, 1441, 1442, 1443, 1444, 1445, 1446, 1447, 1448, 1449, 1450, 1451, 1452, 1453, 1454, 1455, 1456, 1457, 1458, 1459, 1460, 1461, 1462, 1463, 1464, 1465, 1466, 1467, 1468, 1469, 1470, 1471, 1472, 1473, 1474, 1475, 1476, 1477, 1478, 1479, 1480, 1481, 1482, 1483, 1484, 1485, 1486, 1487, 1488, 1489, 1490, 1491, 1492, 1493, 1494, 1495, 1496, 1497, 1498, 1499, 1500, 1501, 1502, 1503, 1504, 1505, 1506, 1507, 1508, 1509, 1510, 1511, 1512, 1513, 1514, 1515, 1516, 1517, 1518, 1519, 1520, 1521, 1522, 1523, 1524, 1525, 1526, 1527, 1528, 1529, 1530, 1531, 1532, 1533, 1534, 1535, 1536, 1537, 1538, 1539, 1540, 1541, 1542, 1543, 1544, 1545, 1546, 1547, 1548, 1549, 1550, 1551, 1552, 1553, 1554, 1555, 1556, 1557, 1558, 1559, 1560, 1561, 1562, 1563, 1564, 1565, 1566, 1567, 1568, 1569, 1570, 1571, 1572, 1573, 1574, 1575, 1576, 1577, 1578, 1579, 1580, 1581, 1582, 1583, 1584, 1585, 1586, 1587, 1588, 1589, 1590, 1591, 1592, 1593, 1594, 1595, 1596, 1597, 1598, 1599, 1600, 1601, 1602, 1603, 1604, 1605, 1606, 1607, 1608],
      "AcquisitionTime": ["171249.447500", "171250.947500", "171252.447500", "171253.947500", "171255.447500", "171256.947500", "171258.447500", "171259.947500", "171301.447500", "171302.947500", "171304.447500", "171305.947500", "171307.447500", "171308.947500", "171310.447500", "171311.947500", "171313.447500", "171314.947500", "171316.447500", "171317.947500", "171319.447500", "171320.947500", "171322.447500", "171323.947500", "171325.447500", "171326.947500", "171328.447500", "171329.947500", "171331.447500", "171332.947500", "171334.447500", "171335.947500", "171337.447500", "171338.947500", "171340.447500", "171341.947500", "171343.447500", "171344.947500", "171346.447500", "171347.947500", "171349.447500", "171350.947500", "171352.447500", "171353.947500", "171355.447500", "171356.947500", "171358.447500", "171359.947500", "171401.447500", "171402.947500", "171404.447500", "171405.947500", "171407.447500", "171408.947500", "171410.447500", "171411.947500", "171413.447500", "171414.947500", "171416.447500", "171417.947500", "171419.447500", "171420.947500", "171422.447500", "171423.947500", "171425.447500", "171426.947500", "171428.447500", "171429.947500", "171431.447500", "171432.947500", "171434.447500", "171435.947500", "171437.447500", "171438.947500", "171440.447500", "171441.947500", "171443.447500", "171444.947500", "171446.447500", "171447.947500", "171449.447500", "171450.947500", "171452.447500", "171453.947500", "171455.447500", "171456.947500", "171458.447500", "171459.947500", "171501.447500", "171502.947500", "171504.447500", "171505.947500", "171507.447500", "171508.947500", "171510.447500", "171511.947500", "171513.447500", "171514.947500", "171516.447500", "171517.947500", "171519.447500", "171520.947500", "171522.447500", "171523.947500", "171525.447500", "171526.947500", "171528.447500", "171529.947500", "171531.447500", "171532.947500", "171534.447500", "171535.947500", "171537.447500", "171538.947500", "171540.447500", "171541.947500", "171543.447500", "171544.947500", "171546.447500", "171547.947500", "171549.447500", "171550.947500", "171552.447500", "171553.947500", "171555.447500", "171556.947500", "171558.447500", "171559.947500", "171601.447500", "171602.947500", "171604.447500", "171605.947500", "171607.447500", "171608.947500", "171610.447500", "171611.947500", "171613.447500", "171614.947500", "171616.447500", "171617.947500", "171619.447500", "171620.947500", "171622.447500", "171623.947500", "171625.447500", "171626.947500", "171628.447500", "171629.947500", "171631.447500", "171632.947500", "171634.447500", "171635.947500", "171637.447500", "171638.947500", "171640.447500", "171641.947500", "171643.447500", "171644.947500", "171646.447500", "171647.947500", "171649.447500", "171650.947500", "171652.447500", "171653.947500", "171655.447500", "171656.947500", "171658.447500", "171659.947500", "171701.447500", "171702.947500", "171704.447500", "171705.947500", "171707.447500", "171708.947500", "171710.447500", "171711.947500", "171713.447500", "171714.947500", "171716.447500", "171717.947500", "171719.447500", "171720.947500", "171722.447500", "171723.947500", "171725.447500", "171726.947500", "171728.447500", "171729.947500", "171731.447500", "171732.947500", "171734.447500", "171735.947500", "171737.447500", "171738.947500", "171740.447500", "171741.947500", "171743.447500", "171744.947500", "171746.447500", "171747.947500", "171749.447500", "171750.947500", "171752.447500", "171753.947500", "171755.447500", "171756.947500", "171758.447500", "171759.947500", "171801.447500", "171802.947500", "171804.447500", "171805.947500", "171807.447500", "171808.947500", "171810.447500", "171811.947500", "171813.447500", "171814.947500", "171816.447500", "171817.947500", "171819.447500", "171820.947500", "171822.447500", "171823.947500", "171825.447500", "171826.947500", "171828.447500", "171829.947500", "171831.447500", "171832.947500", "171834.447500", "171835.947500", "171837.447500", "171838.947500", "171840.447500", "171841.947500", "171843.447500", "171844.947500", "171846.447500", "171847.947500", "171849.447500", "171850.947500", "171852.447500", "171853.947500", "171855.447500", "171856.947500", "171858.447500", "171859.947500", "171901.447500", "171902.947500", "171904.447500", "171905.947500", "171907.447500", "171908.947500", "171910.447500", "171911.947500", "171913.447500", "171914.947500", "171916.447500", "171917.947500", "171919.447500", "171920.947500", "171922.447500", "171923.947500", "171925.447500", "171926.947500", "171928.447500", "171929.947500", "171931.447500", "171932.947500", "171934.447500", "171935.947500", "171937.447500", "171938.947500", "171940.447500", "171941.947500", "171943.447500", "171944.947500", "171946.447500", "171947.947500", "171949.447500", "171950.947500", "171952.447500", "171953.947500", "171955.447500", "171956.947500", "171958.447500", "171959.947500", "172001.447500", "172002.947500", "172004.447500", "172005.947500", "172007.447500", "172008.947500", "172010.447500", "172011.947500", "172013.447500", "172014.947500", "172016.447500", "172017.947500", "172019.447500", "172020.947500", "172022.447500", "172023.947500", "172025.447500", "172026.947500", "172028.447500", "172029.947500", "172031.447500", "172032.947500", "172034.447500", "172035.947500", "172037.447500", "172038.947500", "172040.447500", "172041.947500", "172043.447500", "172044.947500", "172046.447500", "172047.947500", "172049.447500", "172050.947500", "172052.447500", "172053.947500", "172055.447500", "172056.947500", "172058.447500", "172059.947500", "172101.447500", "172102.947500", "172104.447500", "172105.947500", "172107.447500", "172108.947500", "172110.447500", "172111.947500", "172113.447500", "172114.947500", "172116.447500", "172117.947500", "172119.447500", "172120.947500", "172122.447500", "172123.947500", "172125.447500", "172126.947500", "172128.447500", "172129.947500", "172131.447500", "172132.947500", "172134.447500", "172135.947500", "172137.447500", "172138.947500", "172140.447500", "172141.947500", "172143.447500", "172144.947500", "172146.447500", "172147.947500", "172149.447500", "172150.947500", "172152.447500", "172153.947500", "172155.447500", "172156.947500", "172158.447500", "172159.947500", "172201.447500", "172202.947500", "172204.447500", "172205.947500", "172207.447500", "172208.947500", "172210.447500", "172211.947500", "172213.447500", "172214.947500", "172216.447500", "172217.947500", "172219.447500", "172220.947500", "172222.447500", "172223.947500", "172225.447500", "172226.947500", "172228.447500", "172229.947500", "172231.447500", "172232.947500", "172234.447500", "172235.947500", "172237.447500", "172238.947500", "172240.447500", "172241.947500", "172243.447500", "172244.947500", "172246.447500", "172247.947500", "172249.447500", "172250.947500", "172252.447500", "172253.947500", "172255.447500", "172256.947500", "172258.447500", "172259.947500", "172301.447500", "172302.947500", "172304.447500", "172305.947500", "172307.447500", "172308.947500", "172310.447500", "172311.947500", "172313.447500", "172314.947500", "172316.447500", "172317.947500", "172319.447500", "172320.947500", "172322.447500", "172323.947500", "172325.447500", "172326.947500", "172328.447500", "172329.947500", "172331.447500", "172332.947500", "172334.447500", "172335.947500", "172337.447500", "172338.947500", "172340.447500", "172341.947500", "172343.447500", "172344.947500", "172346.447500", "172347.947500", "172349.447500", "172350.947500", "172352.447500", "172353.947500", "172355.447500", "172356.947500", "172358.447500", "172359.947500", "172401.447500", "172402.947500", "172404.447500", "172405.947500", "172407.447500", "172408.947500", "172410.447500", "172411.947500", "172413.447500", "172414.947500", "172416.447500", "172417.947500", "172419.447500", "172420.947500", "172422.447500", "172423.947500", "172425.447500", "172426.947500", "172428.447500", "172429.947500", "172431.447500", "172432.947500", "172434.447500", "172435.947500", "172437.447500", "172438.947500", "172440.447500", "172441.947500", "172443.447500", "172444.947500", "172446.447500", "172447.947500", "172449.447500", "172450.947500", "172452.447500", "172453.947500", "172455.447500", "172456.947500", "172458.447500", "172459.947500", "172501.447500", "172502.947500", "172504.447500", "172505.947500", "172507.447500", "172508.947500", "172510.447500", "172511.947500", "172513.447500", "172514.947500", "172516.447500", "172517.947500", "172519.447500", "172520.947500", "172522.447500", "172523.947500", "172525.447500", "172526.947500", "172528.447500", "172529.947500", "172531.447500", "172532.947500", "172534.447500", "172535.947500", "172537.447500", "172538.947500", "172540.447500", "172541.947500", "172543.447500", "172544.947500", "172546.447500", "172547.947500", "172549.447500", "172550.947500", "172552.447500", "172553.947500", "172555.447500", "172556.947500", "172558.447500", "172559.947500", "172601.447500", "172602.947500", "172604.447500", "172605.947500", "172607.447500", "172608.947500", "172610.447500", "172611.947500", "172613.447500", "172614.947500", "172616.447500", "172617.947500", "172619.447500", "172620.947500", "172622.447500", "172623.947500", "172625.447500", "172626.947500", "172628.447500", "172629.947500", "172631.447500", "172632.947500", "172634.447500", "172635.947500", "172637.447500", "172638.947500", "172640.447500", "172641.947500", "172643.447500", "172644.947500", "172646.447500", "172647.947500", "172649.447500", "172650.947500", "172652.447500", "172653.947500", "172655.447500", "172656.947500", "172658.447500", "172659.947500", "172701.447500", "172702.947500", "172704.447500", "172705.947500", "172707.447500", "172708.947500", "172710.447500", "172711.947500", "172713.447500", "172714.947500", "172716.447500", "172717.947500", "172719.447500", "172720.947500", "172722.447500", "172723.947500", "172725.447500", "172726.947500", "172728.447500", "172729.947500", "172731.447500", "172732.947500", "172734.447500", "172735.947500", "172737.447500", "172738.947500", "172740.447500", "172741.947500", "172743.447500", "172744.947500", "172746.447500", "172747.947500", "172749.447500", "172750.947500", "172752.447500", "172753.947500", "172755.447500", "172756.947500", "172758.447500", "172759.947500", "172801.447500", "172802.947500", "172804.447500", "172805.947500", "172807.447500", "172808.947500", "172810.447500", "172811.947500", "172813.447500", "172814.947500", "172816.447500", "172817.947500", "172819.447500", "172820.947500", "172822.447500", "172823.947500", "172825.447500", "172826.947500", "172828.447500", "172829.947500", "172831.447500", "172832.947500", "172834.447500", "172835.947500", "172837.447500", "172838.947500", "172840.447500", "172841.947500", "172843.447500", "172844.947500", "172846.447500", "172847.947500", "172849.447500", "172850.947500", "172852.447500", "172853.947500", "172855.447500", "172856.947500", "172858.447500", "172859.947500", "172901.447500", "172902.947500", "172904.447500", "172905.947500", "172907.447500", "172908.947500", "172910.447500", "172911.947500", "172913.447500", "172914.947500", "172916.447500", "172917.947500", "172919.447500", "172920.947500", "172922.447500", "172923.947500", "172925.447500", "172926.947500", "172928.447500", "172929.947500", "172931.447500", "172932.947500", "172934.447500", "172935.947500", "172937.447500", "172938.947500", "172940.447500", "172941.947500", "172943.447500", "172944.947500", "172946.447500", "172947.947500", "172949.447500", "172950.947500", "172952.447500", "172953.947500", "172955.447500", "172956.947500", "172958.447500", "172959.947500", "173001.447500", "173002.947500", "173004.447500", "173005.947500", "173007.447500", "173008.947500", "173010.447500", "173011.947500", "173013.447500", "173014.947500", "173016.447500", "173017.947500", "173019.447500", "173020.947500", "173022.447500", "173023.947500", "173025.447500", "173026.947500", "173028.447500", "173029.947500", "173031.447500", "173032.947500", "173034.447500", "173035.947500", "173037.447500", "173038.947500", "173040.447500", "173041.947500", "173043.447500", "173044.947500", "173046.447500", "173047.947500", "173049.447500", "173050.947500", "173052.447500", "173053.947500", "173055.447500", "173056.947500", "173058.447500", "173059.947500", "173101.447500", "173102.947500", "173104.447500", "173105.947500", "173107.447500", "173108.947500", "173110.447500", "173111.947500", "173113.447500", "173114.947500", "173116.447500", "173117.947500", "173119.447500", "173120.947500", "173122.447500", "173123.947500", "173125.447500", "173126.947500", "173128.447500", "173129.947500", "173131.447500", "173132.947500", "173134.447500", "173135.947500", "173137.447500", "173138.947500", "173140.447500", "173141.947500", "173143.447500", "173144.947500", "173146.447500", "173147.947500", "173149.447500", "173150.947500", "173152.447500", "173153.947500", "173155.447500", "173156.947500", "173158.447500", "173159.947500", "173201.447500", "173202.947500", "173204.447500", "173205.947500", "173207.447500", "173208.947500", "173210.447500", "173211.947500", "173213.447500", "173214.947500", "173216.447500", "173217.947500", "173219.447500", "173220.947500", "173222.447500", "173223.947500", "173225.447500", "173226.947500", "173228.447500", "173229.947500", "173231.447500", "173232.947500", "173234.447500", "173235.947500", "173237.447500", "173238.947500", "173240.447500", "173241.947500", "173243.447500", "173244.947500", "173246.447500", "173247.947500", "173249.447500", "173250.947500", "173252.447500", "173253.947500", "173255.447500", "173256.947500", "173258.447500", "173259.947500", "173301.447500", "173302.947500", "173304.447500", "173305.947500", "173307.447500", "173308.947500", "173310.447500", "173311.947500", "173313.447500", "173314.947500", "173316.447500", "173317.947500", "173319.447500", "173320.947500", "173322.447500", "173323.947500", "173325.447500", "173326.947500", "173328.447500", "173329.947500", "173331.447500", "173332.947500", "173334.447500", "173335.947500", "173337.447500", "173338.947500", "173340.447500", "173341.947500", "173343.447500", "173344.947500", "173346.447500", "173347.947500", "173349.447500", "173350.947500", "173352.447500", "173353.947500", "173355.447500", "173356.947500", "173358.447500", "173359.947500", "173401.447500", "173402.947500", "173404.447500", "173405.947500", "173407.447500", "173408.947500", "173410.447500", "173411.947500", "173413.447500", "173414.947500", "173416.447500", "173417.947500", "173419.447500", "173420.947500", "173422.447500", "173423.947500", "173425.447500", "173426.947500", "173428.447500", "173429.947500", "173431.447500", "173432.947500", "173434.447500", "173435.947500", "173437.447500", "173438.947500", "173440.447500", "173441.947500", "173443.447500", "173444.947500", "173446.447500", "173447.947500", "173449.447500", "173450.947500", "173452.447500", "173453.947500", "173455.447500", "173456.947500", "173458.447500", "173459.947500", "173501.447500", "173502.947500", "173504.447500", "173505.947500", "173507.447500", "173508.947500", "173510.447500", "173511.947500", "173513.447500", "173514.947500", "173516.447500", "173517.947500", "173519.447500", "173520.947500", "173522.447500", "173523.947500", "173525.447500", "173526.947500", "173528.447500", "173529.947500", "173531.447500", "173532.947500", "173534.447500", "173535.947500", "173537.447500", "173538.947500", "173540.447500", "173541.947500", "173543.447500", "173544.947500", "173546.447500", "173547.947500", "173549.447500", "173550.947500", "173552.447500", "173553.947500", "173555.447500", "173556.947500", "173558.447500", "173559.947500", "173601.447500", "173602.947500", "173604.4