{
  "AcquisitionMatrixPE": 106,
  "AcquisitionNumber": 1,
  "AcquisitionTime": "15:54:3.850000",
  "BandwidthPerPixelPhaseEncode": 16.846,
  "BaseResolution": 106,
  "BodyPartExamined": "BRAIN",
  "CoilCombinationMethod": "Sum of Squares",
  "ConsistencyInfo": "N4_VE11C_LATEST_20160120",
  "ConversionSoftware": "dcm2niix",
  "ConversionSoftwareVersion": "v1.0.20220720",
  "DerivedVendorReportedEchoSpacing": 0.000560012,
  "DeviceSerialNumber": "166108",
  "DwellTime": 1.8e-06,
  "EchoTime": 0.0352,
  "EchoTrainLength": 106,
  "EffectiveEchoSpacing": 0.000560012,
  "FlipAngle": 60,
  "HeudiconvVersion": "1.3.0",
  "ImageComments": "Unaliased MB4/PE3/LB",
  "ImageOrientationPatientDICOM": [1, 0, 0, 0, 1, 0],
  "ImageOrientationText": "Tra",
  "ImageType": [
    "ORIGINAL",
    "PRIMARY",
    "M",
    "MB",
    "ND",
    "MOSAIC"
],
  "ImagingFrequency": 123.244,
  "InPlanePhaseEncodingDirectionDICOM": "COL",
  "InstitutionAddress": "Bedford Way 26,London,London,GB,WC1H 0AP",
  "InstitutionName": "University College",
  "InstitutionalDepartmentName": "Department",
  "MRAcquisitionType": "2D",
  "MagneticFieldStrength": 3,
  "Manufacturer": "Siemens",
  "ManufacturersModelName": "Prisma",
  "MatrixCoilMode": "SENSE",
  "Modality": "MR",
  "MultibandAccelerationFactor": 4,
  "NonlinearGradientCorrection": false,
  "PartialFourier": 1,
  "PatientPosition": "HFS",
  "PercentPhaseFOV": 100,
  "PercentSampling": 100,
  "PhaseEncodingDirection": "j-",
  "PhaseEncodingSteps": 106,
  "PhaseResolution": 1,
  "PixelBandwidth": 2620,
  "ProcedureStepDescription": "Egor^MovieProject2",
  "ProtocolName": "task-backtothefuture_run-1",
  "PulseSequenceDetails": "%CustomerSeq%\\cmrr_mbep2d_bold",
  "ReceiveCoilActiveElements": "HEA;HEP",
  "ReceiveCoilName": "Head_32",
  "ReconMatrixPE": 106,
  "RepetitionTime": 1.5,
  "SAR": 0.0713899,
  "ScanOptions": "FS\\EXT",
  "ScanningSequence": "EP",
  "SequenceName": "epfid2d1_106",
  "SequenceVariant": "SK\\SS",
  "SeriesDescription": "task-backtothefuture_run-1",
  "SeriesNumber": 3,
  "ShimSetting": [-1586, 622, 7420, 359, -163, 197, -53, 24],
  "SliceThickness": 2,
  "SliceTiming": [0, 1.0675, 0.6575, 0.245, 1.315, 0.9025, 0.4925, 0.08, 1.15, 0.74, 0.3275, 1.3975, 0.985, 0.575, 0.1625, 1.2325, 0.82, 0.41, 0, 1.0675, 0.6575, 0.245, 1.315, 0.9025, 0.4925, 0.08, 1.15, 0.74, 0.3275, 1.3975, 0.985, 0.575, 0.1625, 1.2325, 0.82, 0.41, 0, 1.0675, 0.6575, 0.245, 1.315, 0.9025, 0.4925, 0.08, 1.15, 0.74, 0.3275, 1.3975, 0.985, 0.575, 0.1625, 1.2325, 0.82, 0.41, 0, 1.0675, 0.6575, 0.245, 1.315, 0.9025, 0.4925, 0.08, 1.15, 0.74, 0.3275, 1.3975, 0.985, 0.575, 0.1625, 1.2325, 0.82, 0.41],
  "SoftwareVersions": "syngo MR E11",
  "SpacingBetweenSlices": 2,
  "StationName": "AWP166108",
  "TaskName": "backtothefuture",
  "TotalReadoutTime": 0.0588013,
  "TxRefAmp": 250.973,
  "WipMemBlock": "168f8a69-0374-49cf-8a93-11ed4bca06ec||Sequence: R016 ve11c/master r/e634e98; Dec 19 2017 11:00:25 by eja",
  "dcmmeta_affine": [
    [-2.0, 0.0, 0.0, 106.0],
    [0.0, 2.0, 0.0, -83.51807403564453],
    [0.0, 0.0, 2.0, -67.98795318603516],
    [0.0, 0.0, 0.0, 1.0]
],
  "dcmmeta_reorient_transform": [
    [0.0, -1.0, 0.0, 105.0],
    [1.0, 0.0, 0.0, 0.0],
    [0.0, 0.0, 1.0, 0.0],
    [0.0, 0.0, 0.0, 1.0]
],
  "dcmmeta_shape": [106, 106, 72, 1360],
  "dcmmeta_slice_dim": 2,
  "dcmmeta_version": 0.6,
  "global": {
    "const": {
      "AcquisitionMatrix": [106, 0, 0, 106],
      "AngioFlag": "N",
      "BitsAllocated": 16,
      "BitsStored": 16,
      "BodyPartExamined": "BRAIN",
      "CardiacNumberOfImages": 1,
      "Columns": 954,
      "EchoNumbers": 1,
      "EchoTime": 35.2,
      "EchoTrainLength": 106,
      "FlipAngle": 60.0,
      "HighBit": 15,
      "ImageOrientationPatient": [1.0, 0.0, 0.0, 0.0, 1.0, 0.0],
      "ImagePositionPatient": [-954.0, -974.4819278717, -67.987953186035],
      "ImageType": [
        "ORIGINAL",
        "PRIMARY",
        "M",
        "MB",
        "ND",
        "MOSAIC"
],
      "ImagedNucleus": "1H",
      "ImagingFrequency": 123.243641,
      "InPlanePhaseEncodingDirection": "COL",
      "MRAcquisitionType": "2D",
      "MagneticFieldStrength": 3.0,
      "Manufacturer": "SIEMENS",
      "ManufacturerModelName": "Prisma",
      "Modality": "MR",
      "NominalInterval": 0,
      "NumberOfAverages": 1.0,
      "NumberOfPhaseEncodingSteps": 106,
      "PercentPhaseFieldOfView": 100.0,
      "PercentSampling": 100.0,
      "PerformedProcedureStepStartTime": "152040.248000",
      "PhotometricInterpretation": "MONOCHROME2",
      "PixelBandwidth": 2620.0,
      "PixelRepresentation": 0,
      "PixelSpacing": [2.0, 2.0],
      "ProtocolName": "task-backtothefuture_run-1",
      "RepetitionTime": 1500.0,
      "Rows": 954,
      "SAR": 0.07138987067863,
      "SamplesPerPixel": 1,
      "ScanOptions": [
        "FS",
        "EXT"
],
      "ScanningSequence": "EP",
      "SequenceName": "epfid2d1_106",
      "SequenceVariant": [
        "SK",
        "SS"
],
      "SeriesDescription": "task-backtothefuture_run-1",
      "SeriesNumber": 3,
      "SeriesTime": "155501.001000",
      "SliceLocation": -67.987953186035,
      "SliceThickness": 2.0,
      "SmallestImagePixelValue": 0,
      "SoftwareVersions": "syngo MR E11",
      "SpacingBetweenSlices": 2.0,
      "SpecificCharacterSet": "ISO_IR 100",
      "StudyID": "1",
      "StudyTime": "152040.154000",
      "TransmitCoilName": "Body",
      "VariableFlipAngleFlag": "N",
      "WindowCenterWidthExplanation": "Algo1",
      "dBdt": 0.0},
    "slices": {}
  },
  "time": {
    "samples": {
      "AcquisitionNumber": [1, 2, 3, 4, 5, 6, 7, 8, 9, 10, 11, 12, 13, 14, 15, 16, 17, 18, 19, 20, 21, 22, 23, 24, 25, 26, 27, 28, 29, 30, 31, 32, 33, 34, 35, 36, 37, 38, 39, 40, 41, 42, 43, 44, 45, 46, 47, 48, 49, 50, 51, 52, 53, 54, 55, 56, 57, 58, 59, 60, 61, 62, 63, 64, 65, 66, 67, 68, 69, 70, 71, 72, 73, 74, 75, 76, 77, 78, 79, 80, 81, 82, 83, 84, 85, 86, 87, 88, 89, 90, 91, 92, 93, 94, 95, 96, 97, 98, 99, 100, 101, 102, 103, 104, 105, 106, 107, 108, 109, 110, 111, 112, 113, 114, 115, 116, 117, 118, 119, 120, 121, 122, 123, 124, 125, 126, 127, 128, 129, 130, 131, 132, 133, 134, 135, 136, 137, 138, 139, 140, 141, 142, 143, 144, 145, 146, 147, 148, 149, 150, 151, 152, 153, 154, 155, 156, 157, 158, 159, 160, 161, 162, 163, 164, 165, 166, 167, 168, 169, 170, 171, 172, 173, 174, 175, 176, 177, 178, 179, 180, 181, 182, 183, 184, 185, 186, 187, 188, 189, 190, 191, 192, 193, 194, 195, 196, 197, 198, 199, 200, 201, 202, 203, 204, 205, 206, 207, 208, 209, 210, 211, 212, 213, 214, 215, 216, 217, 218, 219, 220, 221, 222, 223, 224, 225, 226, 227, 228, 229, 230, 231, 232, 233, 234, 235, 236, 237, 238, 239, 240, 241, 242, 243, 244, 245, 246, 247, 248, 249, 250, 251, 252, 253, 254, 255, 256, 257, 258, 259, 260, 261, 262, 263, 264, 265, 266, 267, 268, 269, 270, 271, 272, 273, 274, 275, 276, 277, 278, 279, 280, 281, 282, 283, 284, 285, 286, 287, 288, 289, 290, 291, 292, 293, 294, 295, 296, 297, 298, 299, 300, 301, 302, 303, 304, 305, 306, 307, 308, 309, 310, 311, 312, 313, 314, 315, 316, 317, 318, 319, 320, 321, 322, 323, 324, 325, 326, 327, 328, 329, 330, 331, 332, 333, 334, 335, 336, 337, 338, 339, 340, 341, 342, 343, 344, 345, 346, 347, 348, 349, 350, 351, 352, 353, 354, 355, 356, 357, 358, 359, 360, 361, 362, 363, 364, 365, 366, 367, 368, 369, 370, 371, 372, 373, 374, 375, 376, 377, 378, 379, 380, 381, 382, 383, 384, 385, 386, 387, 388, 389, 390, 391, 392, 393, 394, 395, 396, 397, 398, 399, 400, 401, 402, 403, 404, 405, 406, 407, 408, 409, 410, 411, 412, 413, 414, 415, 416, 417, 418, 419, 420, 421, 422, 423, 424, 425, 426, 427, 428, 429, 430, 431, 432, 433, 434, 435, 436, 437, 438, 439, 440, 441, 442, 443, 444, 445, 446, 447, 448, 449, 450, 451, 452, 453, 454, 455, 456, 457, 458, 459, 460, 461, 462, 463, 464, 465, 466, 467, 468, 469, 470, 471, 472, 473, 474, 475, 476, 477, 478, 479, 480, 481, 482, 483, 484, 485, 486, 487, 488, 489, 490, 491, 492, 493, 494, 495, 496, 497, 498, 499, 500, 501, 502, 503, 504, 505, 506, 507, 508, 509, 510, 511, 512, 513, 514, 515, 516, 517, 518, 519, 520, 521, 522, 523, 524, 525, 526, 527, 528, 529, 530, 531, 532, 533, 534, 535, 536, 537, 538, 539, 540, 541, 542, 543, 544, 545, 546, 547, 548, 549, 550, 551, 552, 553, 554, 555, 556, 557, 558, 559, 560, 561, 562, 563, 564, 565, 566, 567, 568, 569, 570, 571, 572, 573, 574, 575, 576, 577, 578, 579, 580, 581, 582, 583, 584, 585, 586, 587, 588, 589, 590, 591, 592, 593, 594, 595, 596, 597, 598, 599, 600, 601, 602, 603, 604, 605, 606, 607, 608, 609, 610, 611, 612, 613, 614, 615, 616, 617, 618, 619, 620, 621, 622, 623, 624, 625, 626, 627, 628, 629, 630, 631, 632, 633, 634, 635, 636, 637, 638, 639, 640, 641, 642, 643, 644, 645, 646, 647, 648, 649, 650, 651, 652, 653, 654, 655, 656, 657, 658, 659, 660, 661, 662, 663, 664, 665, 666, 667, 668, 669, 670, 671, 672, 673, 674, 675, 676, 677, 678, 679, 680, 681, 682, 683, 684, 685, 686, 687, 688, 689, 690, 691, 692, 693, 694, 695, 696, 697, 698, 699, 700, 701, 702, 703, 704, 705, 706, 707, 708, 709, 710, 711, 712, 713, 714, 715, 716, 717, 718, 719, 720, 721, 722, 723, 724, 725, 726, 727, 728, 729, 730, 731, 732, 733, 734, 735, 736, 737, 738, 739, 740, 741, 742, 743, 744, 745, 746, 747, 748, 749, 750, 751, 752, 753, 754, 755, 756, 757, 758, 759, 760, 761, 762, 763, 764, 765, 766, 767, 768, 769, 770, 771, 772, 773, 774, 775, 776, 777, 778, 779, 780, 781, 782, 783, 784, 785, 786, 787, 788, 789, 790, 791, 792, 793, 794, 795, 796, 797, 798, 799, 800, 801, 802, 803, 804, 805, 806, 807, 808, 809, 810, 811, 812, 813, 814, 815, 816, 817, 818, 819, 820, 821, 822, 823, 824, 825, 826, 827, 828, 829, 830, 831, 832, 833, 834, 835, 836, 837, 838, 839, 840, 841, 842, 843, 844, 845, 846, 847, 848, 849, 850, 851, 852, 853, 854, 855, 856, 857, 858, 859, 860, 861, 862, 863, 864, 865, 866, 867, 868, 869, 870, 871, 872, 873, 874, 875, 876, 877, 878, 879, 880, 881, 882, 883, 884, 885, 886, 887, 888, 889, 890, 891, 892, 893, 894, 895, 896, 897, 898, 899, 900, 901, 902, 903, 904, 905, 906, 907, 908, 909, 910, 911, 912, 913, 914, 915, 916, 917, 918, 919, 920, 921, 922, 923, 924, 925, 926, 927, 928, 929, 930, 931, 932, 933, 934, 935, 936, 937, 938, 939, 940, 941, 942, 943, 944, 945, 946, 947, 948, 949, 950, 951, 952, 953, 954, 955, 956, 957, 958, 959, 960, 961, 962, 963, 964, 965, 966, 967, 968, 969, 970, 971, 972, 973, 974, 975, 976, 977, 978, 979, 980, 981, 982, 983, 984, 985, 986, 987, 988, 989, 990, 991, 992, 993, 994, 995, 996, 997, 998, 999, 1000, 1001, 1002, 1003, 1004, 1005, 1006, 1007, 1008, 1009, 1010, 1011, 1012, 1013, 1014, 1015, 1016, 1017, 1018, 1019, 1020, 1021, 1022, 1023, 1024, 1025, 1026, 1027, 1028, 1029, 1030, 1031, 1032, 1033, 1034, 1035, 1036, 1037, 1038, 1039, 1040, 1041, 1042, 1043, 1044, 1045, 1046, 1047, 1048, 1049, 1050, 1051, 1052, 1053, 1054, 1055, 1056, 1057, 1058, 1059, 1060, 1061, 1062, 1063, 1064, 1065, 1066, 1067, 1068, 1069, 1070, 1071, 1072, 1073, 1074, 1075, 1076, 1077, 1078, 1079, 1080, 1081, 1082, 1083, 1084, 1085, 1086, 1087, 1088, 1089, 1090, 1091, 1092, 1093, 1094, 1095, 1096, 1097, 1098, 1099, 1100, 1101, 1102, 1103, 1104, 1105, 1106, 1107, 1108, 1109, 1110, 1111, 1112, 1113, 1114, 1115, 1116, 1117, 1118, 1119, 1120, 1121, 1122, 1123, 1124, 1125, 1126, 1127, 1128, 1129, 1130, 1131, 1132, 1133, 1134, 1135, 1136, 1137, 1138, 1139, 1140, 1141, 1142, 1143, 1144, 1145, 1146, 1147, 1148, 1149, 1150, 1151, 1152, 1153, 1154, 1155, 1156, 1157, 1158, 1159, 1160, 1161, 1162, 1163, 1164, 1165, 1166, 1167, 1168, 1169, 1170, 1171, 1172, 1173, 1174, 1175, 1176, 1177, 1178, 1179, 1180, 1181, 1182, 1183, 1184, 1185, 1186, 1187, 1188, 1189, 1190, 1191, 1192, 1193, 1194, 1195, 1196, 1197, 1198, 1199, 1200, 1201, 1202, 1203, 1204, 1205, 1206, 1207, 1208, 1209, 1210, 1211, 1212, 1213, 1214, 1215, 1216, 1217, 1218, 1219, 1220, 1221, 1222, 1223, 1224, 1225, 1226, 1227, 1228, 1229, 1230, 1231, 1232, 1233, 1234, 1235, 1236, 1237, 1238, 1239, 1240, 1241, 1242, 1243, 1244, 1245, 1246, 1247, 1248, 1249, 1250, 1251, 1252, 1253, 1254, 1255, 1256, 1257, 1258, 1259, 1260, 1261, 1262, 1263, 1264, 1265, 1266, 1267, 1268, 1269, 1270, 1271, 1272, 1273, 1274, 1275, 1276, 1277, 1278, 1279, 1280, 1281, 1282, 1283, 1284, 1285, 1286, 1287, 1288, 1289, 1290, 1291, 1292, 1293, 1294, 1295, 1296, 1297, 1298, 1299, 1300, 1301, 1302, 1303, 1304, 1305, 1306, 1307, 1308, 1309, 1310, 1311, 1312, 1313, 1314, 1315, 1316, 1317, 1318, 1319, 1320, 1321, 1322, 1323, 1324, 1325, 1326, 1327, 1328, 1329, 1330, 1331, 1332, 1333, 1334, 1335, 1336, 1337, 1338, 1339, 1340, 1341, 1342, 1343, 1344, 1345, 1346, 1347, 1348, 1349, 1350, 1351, 1352, 1353, 1354, 1355, 1356, 1357, 1358, 1359, 1360],
      "AcquisitionTime": ["155403.850000", "155405.350000", "155406.850000", "155408.350000", "155409.850000", "155411.350000", "155412.850000", "155414.350000", "155415.850000", "155417.350000", "155418.850000", "155420.350000", "155421.850000", "155423.350000", "155424.850000", "155426.350000", "155427.850000", "155429.350000", "155430.850000", "155432.350000", "155433.850000", "155435.350000", "155436.850000", "155438.350000", "155439.850000", "155441.350000", "155442.850000", "155444.350000", "155445.850000", "155447.350000", "155448.850000", "155450.350000", "155451.850000", "155453.350000", "155454.850000", "155456.350000", "155457.850000", "155459.350000", "155500.850000", "155502.350000", "155503.850000", "155505.350000", "155506.850000", "155508.350000", "155509.850000", "155511.350000", "155512.850000", "155514.350000", "155515.850000", "155517.350000", "155518.850000", "155520.350000", "155521.850000", "155523.350000", "155524.850000", "155526.350000", "155527.850000", "155529.350000", "155530.850000", "155532.350000", "155533.850000", "155535.350000", "155536.850000", "155538.350000", "155539.850000", "155541.350000", "155542.850000", "155544.350000", "155545.850000", "155547.350000", "155548.850000", "155550.350000", "155551.850000", "155553.350000", "155554.850000", "155556.350000", "155557.850000", "155559.350000", "155600.850000", "155602.350000", "155603.850000", "155605.350000", "155606.850000", "155608.350000", "155609.850000", "155611.350000", "155612.850000", "155614.350000", "155615.850000", "155617.350000", "155618.850000", "155620.350000", "155621.850000", "155623.350000", "155624.850000", "155626.350000", "155627.850000", "155629.350000", "155630.850000", "155632.350000", "155633.850000", "155635.350000", "155636.850000", "155638.350000", "155639.850000", "155641.350000", "155642.850000", "155644.350000", "155645.850000", "155647.350000", "155648.850000", "155650.350000", "155651.850000", "155653.350000", "155654.850000", "155656.350000", "155657.850000", "155659.350000", "155700.850000", "155702.350000", "155703.850000", "155705.350000", "155706.850000", "155708.350000", "155709.850000", "155711.350000", "155712.850000", "155714.350000", "155715.850000", "155717.350000", "155718.850000", "155720.350000", "155721.850000", "155723.350000", "155724.850000", "155726.350000", "155727.850000", "155729.350000", "155730.850000", "155732.350000", "155733.850000", "155735.350000", "155736.850000", "155738.350000", "155739.850000", "155741.350000", "155742.850000", "155744.350000", "155745.850000", "155747.350000", "155748.850000", "155750.350000", "155751.850000", "155753.350000", "155754.850000", "155756.350000", "155757.850000", "155759.350000", "155800.850000", "155802.350000", "155803.850000", "155805.350000", "155806.850000", "155808.350000", "155809.850000", "155811.350000", "155812.850000", "155814.350000", "155815.850000", "155817.350000", "155818.850000", "155820.350000", "155821.850000", "155823.350000", "155824.850000", "155826.350000", "155827.850000", "155829.350000", "155830.850000", "155832.350000", "155833.850000", "155835.350000", "155836.850000", "155838.350000", "155839.850000", "155841.350000", "155842.850000", "155844.350000", "155845.850000", "155847.350000", "155848.850000", "155850.350000", "155851.850000", "155853.350000", "155854.850000", "155856.350000", "155857.850000", "155859.350000", "155900.850000", "155902.350000", "155903.850000", "155905.350000", "155906.850000", "155908.350000", "155909.850000", "155911.350000", "155912.850000", "155914.350000", "155915.850000", "155917.350000", "155918.850000", "155920.350000", "155921.850000", "155923.350000", "155924.850000", "155926.350000", "155927.850000", "155929.350000", "155930.850000", "155932.350000", "155933.850000", "155935.350000", "155936.850000", "155938.350000", "155939.850000", "155941.350000", "155942.850000", "155944.350000", "155945.850000", "155947.350000", "155948.850000", "155950.350000", "155951.850000", "155953.350000", "155954.850000", "155956.350000", "155957.850000", "155959.350000", "160000.850000", "160002.350000", "160003.850000", "160005.350000", "160006.850000", "160008.350000", "160009.850000", "160011.350000", "160012.850000", "160014.350000", "160015.850000", "160017.350000", "160018.850000", "160020.350000", "160021.850000", "160023.350000", "160024.850000", "160026.350000", "160027.850000", "160029.350000", "160030.850000", "160032.350000", "160033.850000", "160035.350000", "160036.850000", "160038.350000", "160039.850000", "160041.350000", "160042.850000", "160044.350000", "160045.850000", "160047.350000", "160048.850000", "160050.350000", "160051.850000", "160053.350000", "160054.850000", "160056.350000", "160057.850000", "160059.350000", "160100.850000", "160102.350000", "160103.850000", "160105.350000", "160106.850000", "160108.350000", "160109.850000", "160111.350000", "160112.850000", "160114.350000", "160115.850000", "160117.350000", "160118.850000", "160120.350000", "160121.850000", "160123.350000", "160124.850000", "160126.350000", "160127.850000", "160129.350000", "160130.850000", "160132.350000", "160133.850000", "160135.350000", "160136.850000", "160138.350000", "160139.850000", "160141.350000", "160142.850000", "160144.350000", "160145.850000", "160147.350000", "160148.850000", "160150.350000", "160151.850000", "160153.350000", "160154.850000", "160156.350000", "160157.850000", "160159.350000", "160200.850000", "160202.350000", "160203.850000", "160205.350000", "160206.850000", "160208.350000", "160209.850000", "160211.350000", "160212.850000", "160214.350000", "160215.850000", "160217.350000", "160218.850000", "160220.350000", "160221.850000", "160223.350000", "160224.850000", "160226.350000", "160227.850000", "160229.350000", "160230.850000", "160232.350000", "160233.850000", "160235.350000", "160236.850000", "160238.350000", "160239.850000", "160241.350000", "160242.850000", "160244.350000", "160245.850000", "160247.350000", "160248.850000", "160250.350000", "160251.850000", "160253.350000", "160254.850000", "160256.350000", "160257.850000", "160259.350000", "160300.850000", "160302.350000", "160303.850000", "160305.350000", "160306.850000", "160308.350000", "160309.850000", "160311.350000", "160312.850000", "160314.350000", "160315.850000", "160317.350000", "160318.850000", "160320.350000", "160321.850000", "160323.350000", "160324.850000", "160326.350000", "160327.850000", "160329.350000", "160330.850000", "160332.350000", "160333.850000", "160335.350000", "160336.850000", "160338.350000", "160339.850000", "160341.350000", "160342.850000", "160344.350000", "160345.850000", "160347.350000", "160348.850000", "160350.350000", "160351.850000", "160353.350000", "160354.850000", "160356.350000", "160357.850000", "160359.350000", "160400.850000", "160402.350000", "160403.850000", "160405.350000", "160406.850000", "160408.350000", "160409.850000", "160411.350000", "160412.850000", "160414.350000", "160415.850000", "160417.350000", "160418.850000", "160420.350000", "160421.850000", "160423.350000", "160424.850000", "160426.350000", "160427.850000", "160429.350000", "160430.850000", "160432.350000", "160433.850000", "160435.350000", "160436.850000", "160438.350000", "160439.850000", "160441.350000", "160442.850000", "160444.350000", "160445.850000", "160447.350000", "160448.850000", "160450.350000", "160451.850000", "160453.350000", "160454.850000", "160456.350000", "160457.850000", "160459.350000", "160500.850000", "160502.350000", "160503.850000", "160505.350000", "160506.850000", "160508.350000", "160509.850000", "160511.350000", "160512.850000", "160514.350000", "160515.850000", "160517.350000", "160518.850000", "160520.350000", "160521.850000", "160523.350000", "160524.850000", "160526.350000", "160527.850000", "160529.350000", "160530.850000", "160532.350000", "160533.850000", "160535.350000", "160536.850000", "160538.350000", "160539.850000", "160541.350000", "160542.850000", "160544.350000", "160545.850000", "160547.350000", "160548.850000", "160550.350000", "160551.850000", "160553.350000", "160554.850000", "160556.350000", "160557.850000", "160559.350000", "160600.850000", "160602.350000", "160603.850000", "160605.350000", "160606.850000", "160608.350000", "160609.850000", "160611.350000", "160612.850000", "160614.350000", "160615.850000", "160617.350000", "160618.850000", "160620.350000", "160621.850000", "160623.350000", "160624.850000", "160626.350000", "160627.850000", "160629.350000", "160630.850000", "160632.350000", "160633.850000", "160635.350000", "160636.850000", "160638.350000", "160639.850000", "160641.350000", "160642.850000", "160644.350000", "160645.850000", "160647.350000", "160648.850000", "160650.350000", "160651.850000", "160653.350000", "160654.850000", "160656.350000", "160657.850000", "160659.350000", "160700.850000", "160702.350000", "160703.850000", "160705.350000", "160706.850000", "160708.350000", "160709.850000", "160711.350000", "160712.850000", "160714.350000", "160715.850000", "160717.350000", "160718.850000", "160720.350000", "160721.850000", "160723.350000", "160724.850000", "160726.350000", "160727.850000", "160729.350000", "160730.850000", "160732.350000", "160733.850000", "160735.350000", "160736.850000", "160738.350000", "160739.850000", "160741.350000", "160742.850000", "160744.350000", "160745.850000", "160747.350000", "160748.850000", "160750.350000", "160751.850000", "160753.350000", "160754.850000", "160756.350000", "160757.850000", "160759.350000", "160800.850000", "160802.350000", "160803.850000", "160805.350000", "160806.850000", "160808.350000", "160809.850000", "160811.350000", "160812.850000", "160814.350000", "160815.850000", "160817.350000", "160818.850000", "160820.350000", "160821.850000", "160823.350000", "160824.850000", "160826.350000", "160827.850000", "160829.350000", "160830.850000", "160832.350000", "160833.850000", "160835.350000", "160836.850000", "160838.350000", "160839.850000", "160841.350000", "160842.850000", "160844.350000", "160845.850000", "160847.350000", "160848.850000", "160850.350000", "160851.850000", "160853.350000", "160854.850000", "160856.350000", "160857.850000", "160859.350000", "160900.850000", "160902.350000", "160903.850000", "160905.350000", "160906.850000", "160908.350000", "160909.850000", "160911.350000", "160912.850000", "160914.350000", "160915.850000", "160917.350000", "160918.850000", "160920.350000", "160921.850000", "160923.350000", "160924.850000", "160926.350000", "160927.850000", "160929.350000", "160930.850000", "160932.350000", "160933.850000", "160935.350000", "160936.850000", "160938.350000", "160939.850000", "160941.350000", "160942.850000", "160944.350000", "160945.850000", "160947.350000", "160948.850000", "160950.350000", "160951.850000", "160953.350000", "160954.850000", "160956.350000", "160957.850000", "160959.350000", "161000.850000", "161002.350000", "161003.850000", "161005.350000", "161006.850000", "161008.350000", "161009.850000", "161011.350000", "161012.850000", "161014.350000", "161015.850000", "161017.350000", "161018.850000", "161020.350000", "161021.850000", "161023.350000", "161024.850000", "161026.350000", "161027.850000", "161029.350000", "161030.850000", "161032.350000", "161033.850000", "161035.350000", "161036.850000", "161038.350000", "161039.850000", "161041.350000", "161042.850000", "161044.350000", "161045.850000", "161047.350000", "161048.850000", "161050.350000", "161051.850000", "161053.350000", "161054.850000", "161056.350000", "161057.850000", "161059.350000", "161100.850000", "161102.350000", "161103.850000", "161105.350000", "161106.850000", "161108.350000", "161109.850000", "161111.350000", "161112.850000", "161114.350000", "161115.850000", "161117.350000", "161118.850000", "161120.350000", "161121.850000", "161123.350000", "161124.850000", "161126.350000", "161127.850000", "161129.350000", "161130.850000", "161132.350000", "161133.850000", "161135.350000", "161136.850000", "161138.350000", "161139.850000", "161141.350000", "161142.850000", "161144.350000", "161145.850000", "161147.350000", "161148.850000", "161150.350000", "161151.850000", "161153.350000", "161154.850000", "161156.350000", "161157.850000", "161159.350000", "161200.850000", "161202.350000", "161203.850000", "161205.350000", "161206.850000", "161208.350000", "161209.850000", "161211.350000", "161212.850000", "161214.350000", "161215.850000", "161217.350000", "161218.850000", "161220.350000", "161221.850000", "161223.350000", "161224.850000", "161226.350000", "161227.850000", "161229.350000", "161230.850000", "161232.350000", "161233.850000", "161235.350000", "161236.850000", "161238.350000", "161239.850000", "161241.350000", "161242.850000", "161244.350000", "161245.850000", "161247.350000", "161248.850000", "161250.350000", "161251.850000", "161253.350000", "161254.850000", "161256.350000", "161257.850000", "161259.350000", "161300.850000", "161302.350000", "161303.850000", "161305.350000", "161306.850000", "161308.350000", "161309.850000", "161311.350000", "161312.850000", "161314.350000", "161315.850000", "161317.350000", "161318.850000", "161320.350000", "161321.850000", "161323.350000", "161324.850000", "161326.350000", "161327.850000", "161329.350000", "161330.850000", "161332.350000", "161333.850000", "161335.350000", "161336.850000", "161338.350000", "161339.850000", "161341.350000", "161342.850000", "161344.350000", "161345.850000", "161347.350000", "161348.850000", "161350.350000", "161351.850000", "161353.350000", "161354.850000", "161356.350000", "161357.850000", "161359.350000", "161400.850000", "161402.350000", "161403.850000", "161405.350000", "161406.850000", "161408.350000", "161409.850000", "161411.350000", "161412.850000", "161414.350000", "161415.850000", "161417.350000", "161418.850000", "161420.350000", "161421.850000", "161423.350000", "161424.850000", "161426.350000", "161427.850000", "161429.350000", "161430.850000", "161432.350000", "161433.850000", "161435.350000", "161436.850000", "161438.350000", "161439.850000", "161441.350000", "161442.850000", "161444.350000", "161445.850000", "161447.350000", "161448.850000", "161450.350000", "161451.850000", "161453.350000", "161454.850000", "161456.350000", "161457.850000", "161459.350000", "161500.850000", "161502.350000", "161503.850000", "161505.350000", "161506.850000", "161508.350000", "161509.850000", "161511.350000", "161512.850000", "161514.350000", "161515.850000", "161517.350000", "161518.850000", "161520.350000", "161521.850000", "161523.350000", "161524.850000", "161526.350000", "161527.850000", "161529.350000", "161530.850000", "161532.350000", "161533.850000", "161535.350000", "161536.850000", "161538.350000", "161539.850000", "161541.350000", "161542.850000", "161544.350000", "161545.850000", "161547.350000", "161548.850000", "161550.350000", "161551.850000", "161553.350000", "161554.850000", "161556.350000", "161557.850000", "161559.350000", "161600.850000", "161602.350000", "161603.850000", "161605.350000", "161606.850000", "161608.350000", "161609.850000", "161611.350000", "161612.850000", "161614.350000", "161615.850000", "161617.350000", "161618.850000", "161620.350000", "161621.850000", "161623.350000", "161624.850000", "161626.350000", "161627.850000", "161629.350000", "161630.850000", "161632.350000", "161633.850000", "161635.350000", "161636.850000", "161638.350000", "161639.850000", "161641.350000", "161642.850000", "161644.350000", "161645.850000", "161647.350000", "161648.850000", "161650.350000", "161651.850000", "161653.350000", "161654.850000", "161656.350000", "161657.850000", "161659.350000", "161700.850000", "161702.350000", "161703.850000", "161705.350000", "161706.850000", "161708.350000", "161709.850000", "161711.350000", "161712.850000", "161714.350000", "161715.850000", "161717.350000", "161718.850000", "161720.350000", "161721.850000", "161723.350000", "161724.850000", "161726.350000", "161727.850000", "161729.350000", "161730.850000", "161732.350000", "161733.850000", "161735.350000", "161736.850000", "161738.350000", "161739.850000", "161741.350000", "161742.850000", "161744.350000", "161745.850000", "161747.350000", "161748.850000", "161750.350000", "161751.850000", "161753.350000", "161754.850000", "161756.350000", "161757.850000", "161759.350000", "161800.850000", "161802.350000", "161803.850000", "161805.350000", "161806.850000", "161808.350000", "161809.850000", "161811.350000", "161812.850000", "161814.350000", "161815.850000", "161817.350000", "161818.850000", "161820.350000", "161821.850000", "161823.350000", "161824.850000", "161826.350000", "161827.850000", "161829.350000", "161830.850000", "161832.350000", "161833.850000", "161835.350000", "161836.850000", "161838.350000", "161839.850000", "161841.350000", "161842.850000", "161844.350000", "161845.850000", "161847.350000", "161848.850000", "161850.350000", "161851.850000", "161853.350000", "161854.850000", "161856.350000", "161857.850000", "161859.350000", "161900.850000", "161902.350000", "161903.850000", "161905.350000", "161906.850000", "161908.350000", "161909.850000", "161911.350000", "161912.850000", "161914.350000", "161915.850000", "161917.350000", "161918.850000", "161920.350000", "161921.850000", "161923.350000", "161924.850000", "161926.350000", "161927.850000", "161929.350000", "161930.8500