{
  "AcquisitionMatrixPE": 106,
  "AcquisitionNumber": 1,
  "AcquisitionTime": "11:05:25.565000",
  "BandwidthPerPixelPhaseEncode": 16.846,
  "BaseResolution": 106,
  "BodyPartExamined": "BRAIN",
  "CoilCombinationMethod": "Sum of Squares",
  "ConsistencyInfo": "N4_VE11C_LATEST_20160120",
  "ConversionSoftware": "dcm2niix",
  "ConversionSoftwareVersion": "v1.0.20220720",
  "DerivedVendorReportedEchoSpacing": 0.000560012,
  "DeviceSerialNumber": "166108",
  "DwellTime": 1.8e-06,
  "EchoTime": 0.0352,
  "EchoTrainLength": 106,
  "EffectiveEchoSpacing": 0.000560012,
  "FlipAngle": 60,
  "HeudiconvVersion": "1.3.0",
  "ImageComments": "Unaliased MB4/PE3/LB",
  "ImageOrientationPatientDICOM": [1, 0, 0, 0, 1, 0],
  "ImageOrientationText": "Tra",
  "ImageType": [
    "ORIGINAL",
    "PRIMARY",
    "M",
    "MB",
    "ND",
    "MOSAIC"
],
  "ImagingFrequency": 123.244,
  "InPlanePhaseEncodingDirectionDICOM": "COL",
  "InstitutionAddress": "Bedford Way 26,London,London,GB,WC1H 0AP",
  "InstitutionName": "University College",
  "InstitutionalDepartmentName": "Department",
  "MRAcquisitionType": "2D",
  "MagneticFieldStrength": 3,
  "Manufacturer": "Siemens",
  "ManufacturersModelName": "Prisma",
  "MatrixCoilMode": "SENSE",
  "Modality": "MR",
  "MultibandAccelerationFactor": 4,
  "NonlinearGradientCorrection": false,
  "PartialFourier": 1,
  "PatientPosition": "HFS",
  "PercentPhaseFOV": 100,
  "PercentSampling": 100,
  "PhaseEncodingDirection": "j-",
  "PhaseEncodingSteps": 106,
  "PhaseResolution": 1,
  "PixelBandwidth": 2620,
  "ProcedureStepDescription": "Egor^MovieProject2",
  "ProtocolName": "task-backtothefuture_run-1",
  "PulseSequenceDetails": "%CustomerSeq%\\cmrr_mbep2d_bold",
  "ReceiveCoilActiveElements": "HEA;HEP",
  "ReceiveCoilName": "Head_32",
  "ReconMatrixPE": 106,
  "RepetitionTime": 1.5,
  "SAR": 0.0769005,
  "ScanOptions": "FS\\EXT",
  "ScanningSequence": "EP",
  "SequenceName": "epfid2d1_106",
  "SequenceVariant": "SK\\SS",
  "SeriesDescription": "task-backtothefuture_run-1",
  "SeriesNumber": 3,
  "ShimSetting": [-1515, 597, 7480, 415, -3, 175, 217, -28],
  "SliceThickness": 2,
  "SliceTiming": [0, 1.07, 0.66, 0.2475, 1.3175, 0.905, 0.495, 0.0825, 1.1525, 0.74, 0.33, 1.4, 0.9875, 0.5775, 0.165, 1.235, 0.8225, 0.4125, 0, 1.07, 0.66, 0.2475, 1.3175, 0.905, 0.495, 0.0825, 1.1525, 0.74, 0.33, 1.4, 0.9875, 0.5775, 0.165, 1.235, 0.8225, 0.4125, 0, 1.07, 0.66, 0.2475, 1.3175, 0.905, 0.495, 0.0825, 1.1525, 0.74, 0.33, 1.4, 0.9875, 0.5775, 0.165, 1.235, 0.8225, 0.4125, 0, 1.07, 0.66, 0.2475, 1.3175, 0.905, 0.495, 0.0825, 1.1525, 0.74, 0.33, 1.4, 0.9875, 0.5775, 0.165, 1.235, 0.8225, 0.4125],
  "SoftwareVersions": "syngo MR E11",
  "SpacingBetweenSlices": 2,
  "StationName": "AWP166108",
  "TaskName": "backtothefuture",
  "TotalReadoutTime": 0.0588013,
  "TxRefAmp": 229.519,
  "WipMemBlock": "357cc0c5-40a9-4de1-868e-f438d2bdc5b7||Sequence: R016 ve11c/master r/e634e98; Dec 19 2017 11:00:25 by eja",
  "dcmmeta_affine": [
    [-2.0, 0.0, 0.0, 106.0],
    [0.0, 2.0, 0.0, -86.53012084960938],
    [0.0, 0.0, 2.0, -42.68674850463867],
    [0.0, 0.0, 0.0, 1.0]
],
  "dcmmeta_reorient_transform": [
    [0.0, -1.0, 0.0, 105.0],
    [1.0, 0.0, 0.0, 0.0],
    [0.0, 0.0, 1.0, 0.0],
    [0.0, 0.0, 0.0, 1.0]
],
  "dcmmeta_shape": [106, 106, 72, 1360],
  "dcmmeta_slice_dim": 2,
  "dcmmeta_version": 0.6,
  "global": {
    "const": {
      "AcquisitionMatrix": [106, 0, 0, 106],
      "AngioFlag": "N",
      "BitsAllocated": 16,
      "BitsStored": 16,
      "BodyPartExamined": "BRAIN",
      "CardiacNumberOfImages": 1,
      "Columns": 954,
      "EchoNumbers": 1,
      "EchoTime": 35.2,
      "EchoTrainLength": 106,
      "FlipAngle": 60.0,
      "HighBit": 15,
      "ImageOrientationPatient": [1.0, 0.0, 0.0, 0.0, 1.0, 0.0],
      "ImagePositionPatient": [-954.0, -971.46987915039, -42.686748504639],
      "ImageType": [
        "ORIGINAL",
        "PRIMARY",
        "M",
        "MB",
        "ND",
        "MOSAIC"
],
      "ImagedNucleus": "1H",
      "ImagingFrequency": 123.243599,
      "InPlanePhaseEncodingDirection": "COL",
      "MRAcquisitionType": "2D",
      "MagneticFieldStrength": 3.0,
      "Manufacturer": "SIEMENS",
      "ManufacturerModelName": "Prisma",
      "Modality": "MR",
      "NominalInterval": 0,
      "NumberOfAverages": 1.0,
      "NumberOfPhaseEncodingSteps": 106,
      "PercentPhaseFieldOfView": 100.0,
      "PercentSampling": 100.0,
      "PerformedProcedureStepStartTime": "103525.421000",
      "PhotometricInterpretation": "MONOCHROME2",
      "PixelBandwidth": 2620.0,
      "PixelRepresentation": 0,
      "PixelSpacing": [2.0, 2.0],
      "ProtocolName": "task-backtothefuture_run-1",
      "RepetitionTime": 1500.0,
      "Rows": 954,
      "SAR": 0.07690044937662,
      "SamplesPerPixel": 1,
      "ScanOptions": [
        "FS",
        "EXT"
],
      "ScanningSequence": "EP",
      "SequenceName": "epfid2d1_106",
      "SequenceVariant": [
        "SK",
        "SS"
],
      "SeriesDescription": "task-backtothefuture_run-1",
      "SeriesNumber": 3,
      "SeriesTime": "110623.531000",
      "SliceLocation": -42.686748504639,
      "SliceThickness": 2.0,
      "SmallestImagePixelValue": 0,
      "SoftwareVersions": "syngo MR E11",
      "SpacingBetweenSlices": 2.0000000537281,
      "SpecificCharacterSet": "ISO_IR 100",
      "StudyID": "1",
      "StudyTime": "103525.358000",
      "TransmitCoilName": "Body",
      "VariableFlipAngleFlag": "N",
      "WindowCenterWidthExplanation": "Algo1",
      "dBdt": 0.0},
    "slices": {}
  },
  "time": {
    "samples": {
      "AcquisitionNumber": [1, 2, 3, 4, 5, 6, 7, 8, 9, 10, 11, 12, 13, 14, 15, 16, 17, 18, 19, 20, 21, 22, 23, 24, 25, 26, 27, 28, 29, 30, 31, 32, 33, 34, 35, 36, 37, 38, 39, 40, 41, 42, 43, 44, 45, 46, 47, 48, 49, 50, 51, 52, 53, 54, 55, 56, 57, 58, 59, 60, 61, 62, 63, 64, 65, 66, 67, 68, 69, 70, 71, 72, 73, 74, 75, 76, 77, 78, 79, 80, 81, 82, 83, 84, 85, 86, 87, 88, 89, 90, 91, 92, 93, 94, 95, 96, 97, 98, 99, 100, 101, 102, 103, 104, 105, 106, 107, 108, 109, 110, 111, 112, 113, 114, 115, 116, 117, 118, 119, 120, 121, 122, 123, 124, 125, 126, 127, 128, 129, 130, 131, 132, 133, 134, 135, 136, 137, 138, 139, 140, 141, 142, 143, 144, 145, 146, 147, 148, 149, 150, 151, 152, 153, 154, 155, 156, 157, 158, 159, 160, 161, 162, 163, 164, 165, 166, 167, 168, 169, 170, 171, 172, 173, 174, 175, 176, 177, 178, 179, 180, 181, 182, 183, 184, 185, 186, 187, 188, 189, 190, 191, 192, 193, 194, 195, 196, 197, 198, 199, 200, 201, 202, 203, 204, 205, 206, 207, 208, 209, 210, 211, 212, 213, 214, 215, 216, 217, 218, 219, 220, 221, 222, 223, 224, 225, 226, 227, 228, 229, 230, 231, 232, 233, 234, 235, 236, 237, 238, 239, 240, 241, 242, 243, 244, 245, 246, 247, 248, 249, 250, 251, 252, 253, 254, 255, 256, 257, 258, 259, 260, 261, 262, 263, 264, 265, 266, 267, 268, 269, 270, 271, 272, 273, 274, 275, 276, 277, 278, 279, 280, 281, 282, 283, 284, 285, 286, 287, 288, 289, 290, 291, 292, 293, 294, 295, 296, 297, 298, 299, 300, 301, 302, 303, 304, 305, 306, 307, 308, 309, 310, 311, 312, 313, 314, 315, 316, 317, 318, 319, 320, 321, 322, 323, 324, 325, 326, 327, 328, 329, 330, 331, 332, 333, 334, 335, 336, 337, 338, 339, 340, 341, 342, 343, 344, 345, 346, 347, 348, 349, 350, 351, 352, 353, 354, 355, 356, 357, 358, 359, 360, 361, 362, 363, 364, 365, 366, 367, 368, 369, 370, 371, 372, 373, 374, 375, 376, 377, 378, 379, 380, 381, 382, 383, 384, 385, 386, 387, 388, 389, 390, 391, 392, 393, 394, 395, 396, 397, 398, 399, 400, 401, 402, 403, 404, 405, 406, 407, 408, 409, 410, 411, 412, 413, 414, 415, 416, 417, 418, 419, 420, 421, 422, 423, 424, 425, 426, 427, 428, 429, 430, 431, 432, 433, 434, 435, 436, 437, 438, 439, 440, 441, 442, 443, 444, 445, 446, 447, 448, 449, 450, 451, 452, 453, 454, 455, 456, 457, 458, 459, 460, 461, 462, 463, 464, 465, 466, 467, 468, 469, 470, 471, 472, 473, 474, 475, 476, 477, 478, 479, 480, 481, 482, 483, 484, 485, 486, 487, 488, 489, 490, 491, 492, 493, 494, 495, 496, 497, 498, 499, 500, 501, 502, 503, 504, 505, 506, 507, 508, 509, 510, 511, 512, 513, 514, 515, 516, 517, 518, 519, 520, 521, 522, 523, 524, 525, 526, 527, 528, 529, 530, 531, 532, 533, 534, 535, 536, 537, 538, 539, 540, 541, 542, 543, 544, 545, 546, 547, 548, 549, 550, 551, 552, 553, 554, 555, 556, 557, 558, 559, 560, 561, 562, 563, 564, 565, 566, 567, 568, 569, 570, 571, 572, 573, 574, 575, 576, 577, 578, 579, 580, 581, 582, 583, 584, 585, 586, 587, 588, 589, 590, 591, 592, 593, 594, 595, 596, 597, 598, 599, 600, 601, 602, 603, 604, 605, 606, 607, 608, 609, 610, 611, 612, 613, 614, 615, 616, 617, 618, 619, 620, 621, 622, 623, 624, 625, 626, 627, 628, 629, 630, 631, 632, 633, 634, 635, 636, 637, 638, 639, 640, 641, 642, 643, 644, 645, 646, 647, 648, 649, 650, 651, 652, 653, 654, 655, 656, 657, 658, 659, 660, 661, 662, 663, 664, 665, 666, 667, 668, 669, 670, 671, 672, 673, 674, 675, 676, 677, 678, 679, 680, 681, 682, 683, 684, 685, 686, 687, 688, 689, 690, 691, 692, 693, 694, 695, 696, 697, 698, 699, 700, 701, 702, 703, 704, 705, 706, 707, 708, 709, 710, 711, 712, 713, 714, 715, 716, 717, 718, 719, 720, 721, 722, 723, 724, 725, 726, 727, 728, 729, 730, 731, 732, 733, 734, 735, 736, 737, 738, 739, 740, 741, 742, 743, 744, 745, 746, 747, 748, 749, 750, 751, 752, 753, 754, 755, 756, 757, 758, 759, 760, 761, 762, 763, 764, 765, 766, 767, 768, 769, 770, 771, 772, 773, 774, 775, 776, 777, 778, 779, 780, 781, 782, 783, 784, 785, 786, 787, 788, 789, 790, 791, 792, 793, 794, 795, 796, 797, 798, 799, 800, 801, 802, 803, 804, 805, 806, 807, 808, 809, 810, 811, 812, 813, 814, 815, 816, 817, 818, 819, 820, 821, 822, 823, 824, 825, 826, 827, 828, 829, 830, 831, 832, 833, 834, 835, 836, 837, 838, 839, 840, 841, 842, 843, 844, 845, 846, 847, 848, 849, 850, 851, 852, 853, 854, 855, 856, 857, 858, 859, 860, 861, 862, 863, 864, 865, 866, 867, 868, 869, 870, 871, 872, 873, 874, 875, 876, 877, 878, 879, 880, 881, 882, 883, 884, 885, 886, 887, 888, 889, 890, 891, 892, 893, 894, 895, 896, 897, 898, 899, 900, 901, 902, 903, 904, 905, 906, 907, 908, 909, 910, 911, 912, 913, 914, 915, 916, 917, 918, 919, 920, 921, 922, 923, 924, 925, 926, 927, 928, 929, 930, 931, 932, 933, 934, 935, 936, 937, 938, 939, 940, 941, 942, 943, 944, 945, 946, 947, 948, 949, 950, 951, 952, 953, 954, 955, 956, 957, 958, 959, 960, 961, 962, 963, 964, 965, 966, 967, 968, 969, 970, 971, 972, 973, 974, 975, 976, 977, 978, 979, 980, 981, 982, 983, 984, 985, 986, 987, 988, 989, 990, 991, 992, 993, 994, 995, 996, 997, 998, 999, 1000, 1001, 1002, 1003, 1004, 1005, 1006, 1007, 1008, 1009, 1010, 1011, 1012, 1013, 1014, 1015, 1016, 1017, 1018, 1019, 1020, 1021, 1022, 1023, 1024, 1025, 1026, 1027, 1028, 1029, 1030, 1031, 1032, 1033, 1034, 1035, 1036, 1037, 1038, 1039, 1040, 1041, 1042, 1043, 1044, 1045, 1046, 1047, 1048, 1049, 1050, 1051, 1052, 1053, 1054, 1055, 1056, 1057, 1058, 1059, 1060, 1061, 1062, 1063, 1064, 1065, 1066, 1067, 1068, 1069, 1070, 1071, 1072, 1073, 1074, 1075, 1076, 1077, 1078, 1079, 1080, 1081, 1082, 1083, 1084, 1085, 1086, 1087, 1088, 1089, 1090, 1091, 1092, 1093, 1094, 1095, 1096, 1097, 1098, 1099, 1100, 1101, 1102, 1103, 1104, 1105, 1106, 1107, 1108, 1109, 1110, 1111, 1112, 1113, 1114, 1115, 1116, 1117, 1118, 1119, 1120, 1121, 1122, 1123, 1124, 1125, 1126, 1127, 1128, 1129, 1130, 1131, 1132, 1133, 1134, 1135, 1136, 1137, 1138, 1139, 1140, 1141, 1142, 1143, 1144, 1145, 1146, 1147, 1148, 1149, 1150, 1151, 1152, 1153, 1154, 1155, 1156, 1157, 1158, 1159, 1160, 1161, 1162, 1163, 1164, 1165, 1166, 1167, 1168, 1169, 1170, 1171, 1172, 1173, 1174, 1175, 1176, 1177, 1178, 1179, 1180, 1181, 1182, 1183, 1184, 1185, 1186, 1187, 1188, 1189, 1190, 1191, 1192, 1193, 1194, 1195, 1196, 1197, 1198, 1199, 1200, 1201, 1202, 1203, 1204, 1205, 1206, 1207, 1208, 1209, 1210, 1211, 1212, 1213, 1214, 1215, 1216, 1217, 1218, 1219, 1220, 1221, 1222, 1223, 1224, 1225, 1226, 1227, 1228, 1229, 1230, 1231, 1232, 1233, 1234, 1235, 1236, 1237, 1238, 1239, 1240, 1241, 1242, 1243, 1244, 1245, 1246, 1247, 1248, 1249, 1250, 1251, 1252, 1253, 1254, 1255, 1256, 1257, 1258, 1259, 1260, 1261, 1262, 1263, 1264, 1265, 1266, 1267, 1268, 1269, 1270, 1271, 1272, 1273, 1274, 1275, 1276, 1277, 1278, 1279, 1280, 1281, 1282, 1283, 1284, 1285, 1286, 1287, 1288, 1289, 1290, 1291, 1292, 1293, 1294, 1295, 1296, 1297, 1298, 1299, 1300, 1301, 1302, 1303, 1304, 1305, 1306, 1307, 1308, 1309, 1310, 1311, 1312, 1313, 1314, 1315, 1316, 1317, 1318, 1319, 1320, 1321, 1322, 1323, 1324, 1325, 1326, 1327, 1328, 1329, 1330, 1331, 1332, 1333, 1334, 1335, 1336, 1337, 1338, 1339, 1340, 1341, 1342, 1343, 1344, 1345, 1346, 1347, 1348, 1349, 1350, 1351, 1352, 1353, 1354, 1355, 1356, 1357, 1358, 1359, 1360],
      "AcquisitionTime": ["110525.565000", "110527.065000", "110528.565000", "110530.065000", "110531.565000", "110533.065000", "110534.565000", "110536.065000", "110537.565000", "110539.065000", "110540.565000", "110542.065000", "110543.565000", "110545.065000", "110546.565000", "110548.065000", "110549.565000", "110551.065000", "110552.565000", "110554.065000", "110555.565000", "110557.065000", "110558.565000", "110600.065000", "110601.565000", "110603.065000", "110604.565000", "110606.065000", "110607.565000", "110609.065000", "110610.565000", "110612.065000", "110613.565000", "110615.065000", "110616.565000", "110618.065000", "110619.565000", "110621.065000", "110622.565000", "110624.065000", "110625.565000", "110627.065000", "110628.565000", "110630.065000", "110631.565000", "110633.065000", "110634.565000", "110636.065000", "110637.565000", "110639.065000", "110640.565000", "110642.065000", "110643.565000", "110645.065000", "110646.565000", "110648.065000", "110649.565000", "110651.065000", "110652.565000", "110654.065000", "110655.565000", "110657.065000", "110658.565000", "110700.065000", "110701.565000", "110703.065000", "110704.565000", "110706.065000", "110707.565000", "110709.065000", "110710.565000", "110712.065000", "110713.565000", "110715.065000", "110716.565000", "110718.065000", "110719.565000", "110721.065000", "110722.565000", "110724.065000", "110725.565000", "110727.065000", "110728.565000", "110730.065000", "110731.565000", "110733.065000", "110734.565000", "110736.065000", "110737.565000", "110739.065000", "110740.565000", "110742.065000", "110743.565000", "110745.065000", "110746.565000", "110748.065000", "110749.565000", "110751.065000", "110752.565000", "110754.065000", "110755.565000", "110757.065000", "110758.565000", "110800.065000", "110801.565000", "110803.065000", "110804.565000", "110806.065000", "110807.565000", "110809.065000", "110810.565000", "110812.065000", "110813.565000", "110815.065000", "110816.565000", "110818.065000", "110819.565000", "110821.065000", "110822.565000", "110824.065000", "110825.565000", "110827.065000", "110828.565000", "110830.065000", "110831.565000", "110833.065000", "110834.565000", "110836.065000", "110837.565000", "110839.065000", "110840.565000", "110842.065000", "110843.565000", "110845.065000", "110846.565000", "110848.065000", "110849.565000", "110851.065000", "110852.565000", "110854.065000", "110855.565000", "110857.065000", "110858.565000", "110900.065000", "110901.565000", "110903.065000", "110904.565000", "110906.065000", "110907.565000", "110909.065000", "110910.565000", "110912.065000", "110913.565000", "110915.065000", "110916.565000", "110918.065000", "110919.565000", "110921.065000", "110922.565000", "110924.065000", "110925.565000", "110927.065000", "110928.565000", "110930.065000", "110931.565000", "110933.065000", "110934.565000", "110936.065000", "110937.565000", "110939.065000", "110940.565000", "110942.065000", "110943.565000", "110945.065000", "110946.565000", "110948.065000", "110949.565000", "110951.065000", "110952.565000", "110954.065000", "110955.565000", "110957.065000", "110958.565000", "111000.065000", "111001.565000", "111003.065000", "111004.565000", "111006.065000", "111007.565000", "111009.065000", "111010.565000", "111012.065000", "111013.565000", "111015.065000", "111016.565000", "111018.065000", "111019.565000", "111021.065000", "111022.565000", "111024.065000", "111025.565000", "111027.065000", "111028.565000", "111030.065000", "111031.565000", "111033.065000", "111034.565000", "111036.065000", "111037.565000", "111039.065000", "111040.565000", "111042.065000", "111043.565000", "111045.065000", "111046.565000", "111048.065000", "111049.565000", "111051.065000", "111052.565000", "111054.065000", "111055.565000", "111057.065000", "111058.565000", "111100.065000", "111101.565000", "111103.065000", "111104.565000", "111106.065000", "111107.565000", "111109.065000", "111110.565000", "111112.065000", "111113.565000", "111115.065000", "111116.565000", "111118.065000", "111119.565000", "111121.065000", "111122.565000", "111124.065000", "111125.565000", "111127.065000", "111128.565000", "111130.065000", "111131.565000", "111133.065000", "111134.565000", "111136.065000", "111137.565000", "111139.065000", "111140.565000", "111142.065000", "111143.565000", "111145.065000", "111146.565000", "111148.065000", "111149.565000", "111151.065000", "111152.565000", "111154.065000", "111155.565000", "111157.065000", "111158.565000", "111200.065000", "111201.565000", "111203.065000", "111204.565000", "111206.065000", "111207.565000", "111209.065000", "111210.565000", "111212.065000", "111213.565000", "111215.065000", "111216.565000", "111218.065000", "111219.565000", "111221.065000", "111222.565000", "111224.065000", "111225.565000", "111227.065000", "111228.565000", "111230.065000", "111231.565000", "111233.065000", "111234.565000", "111236.065000", "111237.565000", "111239.065000", "111240.565000", "111242.065000", "111243.565000", "111245.065000", "111246.565000", "111248.065000", "111249.565000", "111251.065000", "111252.565000", "111254.065000", "111255.565000", "111257.065000", "111258.565000", "111300.065000", "111301.565000", "111303.065000", "111304.565000", "111306.065000", "111307.565000", "111309.065000", "111310.565000", "111312.065000", "111313.565000", "111315.065000", "111316.565000", "111318.065000", "111319.565000", "111321.065000", "111322.565000", "111324.065000", "111325.565000", "111327.065000", "111328.565000", "111330.065000", "111331.565000", "111333.065000", "111334.565000", "111336.065000", "111337.565000", "111339.065000", "111340.565000", "111342.065000", "111343.565000", "111345.065000", "111346.565000", "111348.065000", "111349.565000", "111351.065000", "111352.565000", "111354.065000", "111355.565000", "111357.065000", "111358.565000", "111400.065000", "111401.565000", "111403.065000", "111404.565000", "111406.065000", "111407.565000", "111409.065000", "111410.565000", "111412.065000", "111413.565000", "111415.065000", "111416.565000", "111418.065000", "111419.565000", "111421.065000", "111422.565000", "111424.065000", "111425.565000", "111427.065000", "111428.565000", "111430.065000", "111431.565000", "111433.065000", "111434.565000", "111436.065000", "111437.565000", "111439.065000", "111440.565000", "111442.065000", "111443.565000", "111445.065000", "111446.565000", "111448.065000", "111449.565000", "111451.065000", "111452.565000", "111454.065000", "111455.565000", "111457.065000", "111458.565000", "111500.065000", "111501.565000", "111503.065000", "111504.565000", "111506.065000", "111507.565000", "111509.065000", "111510.565000", "111512.065000", "111513.565000", "111515.065000", "111516.565000", "111518.065000", "111519.565000", "111521.065000", "111522.565000", "111524.065000", "111525.565000", "111527.065000", "111528.565000", "111530.065000", "111531.565000", "111533.065000", "111534.565000", "111536.065000", "111537.565000", "111539.065000", "111540.565000", "111542.065000", "111543.565000", "111545.065000", "111546.565000", "111548.065000", "111549.565000", "111551.065000", "111552.565000", "111554.065000", "111555.565000", "111557.065000", "111558.565000", "111600.065000", "111601.565000", "111603.065000", "111604.565000", "111606.065000", "111607.565000", "111609.065000", "111610.565000", "111612.065000", "111613.565000", "111615.065000", "111616.565000", "111618.065000", "111619.565000", "111621.065000", "111622.565000", "111624.065000", "111625.565000", "111627.065000", "111628.565000", "111630.065000", "111631.565000", "111633.065000", "111634.565000", "111636.065000", "111637.565000", "111639.065000", "111640.565000", "111642.065000", "111643.565000", "111645.065000", "111646.565000", "111648.065000", "111649.565000", "111651.065000", "111652.565000", "111654.065000", "111655.565000", "111657.065000", "111658.565000", "111700.065000", "111701.565000", "111703.065000", "111704.565000", "111706.065000", "111707.565000", "111709.065000", "111710.565000", "111712.065000", "111713.565000", "111715.065000", "111716.565000", "111718.065000", "111719.565000", "111721.065000", "111722.565000", "111724.065000", "111725.565000", "111727.065000", "111728.565000", "111730.065000", "111731.565000", "111733.065000", "111734.565000", "111736.065000", "111737.565000", "111739.065000", "111740.565000", "111742.065000", "111743.565000", "111745.065000", "111746.565000", "111748.065000", "111749.565000", "111751.065000", "111752.565000", "111754.065000", "111755.565000", "111757.065000", "111758.565000", "111800.065000", "111801.565000", "111803.065000", "111804.565000", "111806.065000", "111807.565000", "111809.065000", "111810.565000", "111812.065000", "111813.565000", "111815.065000", "111816.565000", "111818.065000", "111819.565000", "111821.065000", "111822.565000", "111824.065000", "111825.565000", "111827.065000", "111828.565000", "111830.065000", "111831.565000", "111833.065000", "111834.565000", "111836.065000", "111837.565000", "111839.065000", "111840.565000", "111842.065000", "111843.565000", "111845.065000", "111846.565000", "111848.065000", "111849.565000", "111851.065000", "111852.565000", "111854.065000", "111855.565000", "111857.065000", "111858.565000", "111900.065000", "111901.565000", "111903.065000", "111904.565000", "111906.065000", "111907.565000", "111909.065000", "111910.565000", "111912.065000", "111913.565000", "111915.065000", "111916.565000", "111918.065000", "111919.565000", "111921.065000", "111922.565000", "111924.065000", "111925.565000", "111927.065000", "111928.565000", "111930.065000", "111931.565000", "111933.065000", "111934.565000", "111936.065000", "111937.565000", "111939.065000", "111940.565000", "111942.065000", "111943.565000", "111945.065000", "111946.565000", "111948.065000", "111949.565000", "111951.065000", "111952.565000", "111954.065000", "111955.565000", "111957.065000", "111958.565000", "112000.065000", "112001.565000", "112003.065000", "112004.565000", "112006.065000", "112007.565000", "112009.065000", "112010.565000", "112012.065000", "112013.565000", "112015.065000", "112016.565000", "112018.065000", "112019.565000", "112021.065000", "112022.565000", "112024.065000", "112025.565000", "112027.065000", "112028.565000", "112030.065000", "112031.565000", "112033.065000", "112034.565000", "112036.065000", "112037.565000", "112039.065000", "112040.565000", "112042.065000", "112043.565000", "112045.065000", "112046.565000", "112048.065000", "112049.565000", "112051.065000", "112052.565000", "112054.065000", "112055.565000", "112057.065000", "112058.565000", "112100.065000", "112101.565000", "112103.065000", "112104.565000", "112106.065000", "112107.565000", "112109.065000", "112110.565000", "112112.065000", "112113.565000", "112115.065000", "112116.565000", "112118.065000", "112119.565000", "112121.065000", "112122.565000", "112124.065000", "112125.565000", "112127.065000", "112128.565000", "112130.065000", "112131.565000", "112133.065000", "112134.565000", "112136.065000", "112137.565000", "112139.065000", "112140.565000", "112142.065000", "112143.565000", "112145.065000", "112146.565000", "112148.065000", "112149.565000", "112151.065000", "112152.565000", "112154.065000", "112155.565000", "112157.065000", "112158.565000", "112200.065000", "112201.565000", "112203.065000", "112204.565000", "112206.065000", "112207.565000", "112209.065000", "112210.565000", "112212.065000", "112213.565000", "112215.065000", "112216.565000", "112218.065000", "112219.565000", "112221.065000", "112222.565000", "112224.065000", "112225.565000", "112227.065000", "112228.565000", "112230.065000", "112231.565000", "112233.065000", "112234.565000", "112236.065000", "112237.565000", "112239.065000", "112240.565000", "112242.065000", "112243.565000", "112245.065000", "112246.565000", "112248.065000", "112249.565000", "112251.065000", "112252.565000", "112254.065000", "112255.565000", "112257.065000", "112258.565000", "112300.065000", "112301.565000", "112303.065000", "112304.565000", "112306.065000", "112307.565000", "112309.065000", "112310.565000", "112312.065000", "112313.565000", "112315.065000", "112316.565000", "112318.065000", "112319.565000", "112321.065000", "112322.565000", "112324.065000", "112325.565000", "112327.065000", "112328.565000", "112330.065000", "112331.565000", "112333.065000", "112334.565000", "112336.065000", "112337.565000", "112339.065000", "112340.565000", "112342.065000", "112343.565000", "112345.065000", "112346.565000", "112348.065000", "112349.565000", "112351.065000", "112352.565000", "112354.065000", "112355.565000", "112357.065000", "112358.565000", "112400.065000", "112401.565000", "112403.065000", "112404.565000", "112406.065000", "112407.565000", "112409.065000", "112410.565000", "112412.065000", "112413.565000", "112415.065000", "112416.565000", "112418.065000", "112419.565000", "112421.065000", "112422.565000", "112424.065000", "112425.565000", "112427.065000", "112428.565000", "112430.065000", "112431.565000", "112433.065000", "112434.565000", "112436.065000", "112437.565000", "112439.065000", "112440.565000", "112442.065000", "112443.565000", "112445.065000", "112446.565000", "112448.065000", "112449.565000", "112451.065000", "112452.565000", "112454.065000", "112455.565000", "112457.065000", "112458.565000", "112500.065000", "112501.565000", "112503.065000", "112504.565000", "112506.065000", "112507.565000", "112509.065000", "112510.565000", "112512.065000", "112513.565000", "112515.065000", "112516.565000", "112518.065000", "112519.565000", "112521.065000", "112522.565000", "112524.065000", "112525.565000", "112527.065000", "112528.565000", "112530.065000", "112531.565000", "112533.065000", "112534.565000", "112536.065000", "112537.565000", "112539.065000", "112540.565000", "112542.065000", "112543.565000", "112545.065000", "112546.565000", "112548.065000", "112549.565000", "112551.065000", "112552.565000", "112554.065000", "112555.565000", "112557.065000", "112558.565000", "112600.065000", "112601.565000", "112603.065000", "112604.565000", "112606.065000", "112607.565000", "112609.065000", "112610.565000", "112612.065000", "112613.565000", "112615.065000", "112616.565000", "112618.065000", "112619.565000", "112621.065000", "112622.565000", "112624.065000", "112625.565000", "112627.065000", "112628.565000", "112630.065000", "112631.565000", "112633.065000", "112634.565000", "112636.065000", "112637.565000", "112639.065000", "112640.565000", "112642.065000", "112643.565000", "112645.065000", "112646.565000", "112648.065000", "112649.565000", "112651.065000", "112652.565000", "112654.065000", "112655.565000", "112657.065000", "112658.565000", "112700.065000", "112701.565000", "112703.065000", "112704.565000", "112706.065000", "112707.565000", "112709.065000", "112710.565000", "112712.065000", "112713.565000", "112715.065000", "112716.565000", "112718.065000", "112719.565000", "112721.065000", "112722.565000", "112724.065000", "112725.565000", "112727.065000", "112728.565000", "112730.065000", "112731.565000", "112733.065000", "112734.565000", "112736.065000", "112737.565000", "112739.065000", "112740.565000", "112742.065000", "112743.565000", "112745.065000", "112746.565000", "112748.065000", "112749.565000", "112751.065000", "112752.565000", "112754.065000", "112755.565000", "112757.065000", "112758.565000", "112800.065000", "112801.565000", "112803.065000", "112804.565000", "112806.065000", "112807.565000", "112809.065000", "112810.565000", "112812.065000", "112813.565000", "112815.065000", "112816.565000", "112818.065000", "112819.565000", "112821.065000", "112822.565000", "112824.065000", "112825.565000", "112827.065000", "112828.565000", "112830.065000", "112831.565000", "112833.065000", "112834.565000", "112836.065000", "112837.565000", "112839.065000", "112840.565000", "112842.065000", "112843.565000", "112845.065000", "112846.565000", "112848.065000", "112849.565000", "112851.065000", "112852.565000", "112854.065000", "112855.565000", "112857.065000", "112858.565000", "112900.065000", "112901.565000", "112903.065000", "112904.565000", "112906.065000", "112907.565000", "112909.065000", "112910.565000", "112912.065000", "112913.565000", "112915.065000", "112916.565000", "112918.065000", "112919.565000", "112921.065000", "112922.565000", "112924.065000", "112925.565000", "112927.065000", "112928.565000", "112930.065000", "112931.565000", "112933.065000", "112934.565000", "112936.065000", "112937.565000", "112939.065000", "112940.565000", "112942.065000", "112943.565000", "112945.065000", "112946.565000", "112948.065000", "112949.565000", "112951.065000", "112952.565000", "112954.065000", "112955.565000", "112957.065000", "112958.565000", "113000.065000", "113001.565000", "113003.065000", "113004.565000", "113006.065000", "113007.565000", "113009.065000", "113010.565000", "113012.065000", "113013.565000", "113015.065000", "113016.565000", "113018.065000", "113019.565000", "113021.065000", "113022.565000", "113024.065000", "113025.565000", "113027.065000", "113028.565000", "113030.065000", "113031.565000", "113033.065000", "113034.565000", "113036.065000", "113037.565000", "113039.065000", "113040.565000", "113042.065000", "113043.565000", "113045.065000", "113046.565000", "113048.065000", "113049.565000", "113051.065000", "11