{
  "AcquisitionMatrixPE": 106,
  "AcquisitionNumber": 1,
  "AcquisitionTime": "11:38:38.297500",
  "BandwidthPerPixelPhaseEncode": 16.846,
  "BaseResolution": 106,
  "BodyPartExamined": "BRAIN",
  "CoilCombinationMethod": "Sum of Squares",
  "ConsistencyInfo": "N4_VE11C_LATEST_20160120",
  "ConversionSoftware": "dcm2niix",
  "ConversionSoftwareVersion": "v1.0.20220720",
  "DerivedVendorReportedEchoSpacing": 0.000560012,
  "DeviceSerialNumber": "166108",
  "DwellTime": 1.8e-06,
  "EchoTime": 0.0352,
  "EchoTrainLength": 106,
  "EffectiveEchoSpacing": 0.000560012,
  "FlipAngle": 60,
  "HeudiconvVersion": "1.3.0",
  "ImageComments": "Unaliased MB4/PE3/LB",
  "ImageOrientationPatientDICOM": [1, 0, 0, 0, 1, 0],
  "ImageOrientationText": "Tra",
  "ImageType": [
    "ORIGINAL",
    "PRIMARY",
    "M",
    "MB",
    "ND",
    "MOSAIC"
],
  "ImagingFrequency": 123.244,
  "InPlanePhaseEncodingDirectionDICOM": "COL",
  "InstitutionAddress": "Bedford Way 26,London,London,GB,WC1H 0AP",
  "InstitutionName": "University College",
  "InstitutionalDepartmentName": "Department",
  "MRAcquisitionType": "2D",
  "MagneticFieldStrength": 3,
  "Manufacturer": "Siemens",
  "ManufacturersModelName": "Prisma",
  "MatrixCoilMode": "SENSE",
  "Modality": "MR",
  "MultibandAccelerationFactor": 4,
  "NonlinearGradientCorrection": false,
  "PartialFourier": 1,
  "PatientPosition": "HFS",
  "PercentPhaseFOV": 100,
  "PercentSampling": 100,
  "PhaseEncodingDirection": "j-",
  "PhaseEncodingSteps": 106,
  "PhaseResolution": 1,
  "PixelBandwidth": 2620,
  "ProcedureStepDescription": "Egor^MovieProject2",
  "ProtocolName": "task-backtothefuture_run-1",
  "PulseSequenceDetails": "%CustomerSeq%\\cmrr_mbep2d_bold",
  "ReceiveCoilActiveElements": "HEA;HEP",
  "ReceiveCoilName": "Head_32",
  "ReconMatrixPE": 106,
  "RepetitionTime": 1.5,
  "SAR": 0.0876971,
  "ScanOptions": "FS\\EXT",
  "ScanningSequence": "EP",
  "SequenceName": "epfid2d1_106",
  "SequenceVariant": "SK\\SS",
  "SeriesDescription": "task-backtothefuture_run-1",
  "SeriesNumber": 5,
  "ShimSetting": [-1514, 600, 7457, 336, -41, 143, 122, -71],
  "SliceThickness": 2,
  "SliceTiming": [0, 1.0675, 0.6575, 0.245, 1.315, 0.905, 0.4925, 0.0825, 1.15, 0.74, 0.3275, 1.3975, 0.985, 0.575, 0.165, 1.2325, 0.8225, 0.41, 0, 1.0675, 0.6575, 0.245, 1.315, 0.905, 0.4925, 0.0825, 1.15, 0.74, 0.3275, 1.3975, 0.985, 0.575, 0.165, 1.2325, 0.8225, 0.41, 0, 1.0675, 0.6575, 0.245, 1.315, 0.905, 0.4925, 0.0825, 1.15, 0.74, 0.3275, 1.3975, 0.985, 0.575, 0.165, 1.2325, 0.8225, 0.41, 0, 1.0675, 0.6575, 0.245, 1.315, 0.905, 0.4925, 0.0825, 1.15, 0.74, 0.3275, 1.3975, 0.985, 0.575, 0.165, 1.2325, 0.8225, 0.41],
  "SoftwareVersions": "syngo MR E11",
  "SpacingBetweenSlices": 2,
  "StationName": "AWP166108",
  "TaskName": "backtothefuture",
  "TotalReadoutTime": 0.0588013,
  "TxRefAmp": 257.815,
  "WipMemBlock": "0df27d6e-c978-4f49-b9dd-99bd9681cf75||Sequence: R016 ve11c/master r/e634e98; Dec 19 2017 11:00:25 by eja",
  "dcmmeta_affine": [
    [-2.0, 0.0, 0.0, 106.0],
    [0.0, 2.0, 0.0, -85.9277114868164],
    [0.0, 0.0, 2.0, -55.33734893798828],
    [0.0, 0.0, 0.0, 1.0]
],
  "dcmmeta_reorient_transform": [
    [0.0, -1.0, 0.0, 105.0],
    [1.0, 0.0, 0.0, 0.0],
    [0.0, 0.0, 1.0, 0.0],
    [0.0, 0.0, 0.0, 1.0]
],
  "dcmmeta_shape": [106, 106, 72, 351],
  "dcmmeta_slice_dim": 2,
  "dcmmeta_version": 0.6,
  "global": {
    "const": {
      "AcquisitionMatrix": [106, 0, 0, 106],
      "AngioFlag": "N",
      "BitsAllocated": 16,
      "BitsStored": 16,
      "BodyPartExamined": "BRAIN",
      "CardiacNumberOfImages": 1,
      "Columns": 954,
      "EchoNumbers": 1,
      "EchoTime": 35.2,
      "EchoTrainLength": 106,
      "FlipAngle": 60.0,
      "HighBit": 15,
      "ImageOrientationPatient": [1.0, 0.0, 0.0, 0.0, 1.0, 0.0],
      "ImagePositionPatient": [-954.0, -972.07228851318, -55.337348937988],
      "ImageType": [
        "ORIGINAL",
        "PRIMARY",
        "M",
        "MB",
        "ND",
        "MOSAIC"
],
      "ImagedNucleus": "1H",
      "ImagingFrequency": 123.243643,
      "InPlanePhaseEncodingDirection": "COL",
      "MRAcquisitionType": "2D",
      "MagneticFieldStrength": 3.0,
      "Manufacturer": "SIEMENS",
      "ManufacturerModelName": "Prisma",
      "Modality": "MR",
      "NominalInterval": 0,
      "NumberOfAverages": 1.0,
      "NumberOfPhaseEncodingSteps": 106,
      "PercentPhaseFieldOfView": 100.0,
      "PercentSampling": 100.0,
      "PerformedProcedureStepStartTime": "103753.724000",
      "PhotometricInterpretation": "MONOCHROME2",
      "PixelBandwidth": 2620.0,
      "PixelRepresentation": 0,
      "PixelSpacing": [2.0, 2.0],
      "ProtocolName": "task-backtothefuture_run-1",
      "RepetitionTime": 1500.0,
      "Rows": 954,
      "SAR": 0.08769707491529,
      "SamplesPerPixel": 1,
      "ScanOptions": [
        "FS",
        "EXT"
],
      "ScanningSequence": "EP",
      "SequenceName": "epfid2d1_106",
      "SequenceVariant": [
        "SK",
        "SS"
],
      "SeriesDescription": "task-backtothefuture_run-1",
      "SeriesNumber": 5,
      "SeriesTime": "113933.447000",
      "SliceLocation": -55.337348937988,
      "SliceThickness": 2.0,
      "SmallestImagePixelValue": 0,
      "SoftwareVersions": "syngo MR E11",
      "SpacingBetweenSlices": 2.0,
      "SpecificCharacterSet": "ISO_IR 100",
      "StudyID": "1",
      "StudyTime": "103753.666000",
      "TransmitCoilName": "Body",
      "VariableFlipAngleFlag": "N",
      "WindowCenterWidthExplanation": "Algo1",
      "dBdt": 0.0},
    "slices": {}
  },
  "time": {
    "samples": {
      "AcquisitionNumber": [1, 2, 3, 4, 5, 6, 7, 8, 9, 10, 11, 12, 13, 14, 15, 16, 17, 18, 19, 20, 21, 22, 23, 24, 25, 26, 27, 28, 29, 30, 31, 32, 33, 34, 35, 36, 37, 38, 39, 40, 41, 42, 43, 44, 45, 46, 47, 48, 49, 50, 51, 52, 53, 54, 55, 56, 57, 58, 59, 60, 61, 62, 63, 64, 65, 66, 67, 68, 69, 70, 71, 72, 73, 74, 75, 76, 77, 78, 79, 80, 81, 82, 83, 84, 85, 86, 87, 88, 89, 90, 91, 92, 93, 94, 95, 96, 97, 98, 99, 100, 101, 102, 103, 104, 105, 106, 107, 108, 109, 110, 111, 112, 113, 114, 115, 116, 117, 118, 119, 120, 121, 122, 123, 124, 125, 126, 127, 128, 129, 130, 131, 132, 133, 134, 135, 136, 137, 138, 139, 140, 141, 142, 143, 144, 145, 146, 147, 148, 149, 150, 151, 152, 153, 154, 155, 156, 157, 158, 159, 160, 161, 162, 163, 164, 165, 166, 167, 168, 169, 170, 171, 172, 173, 174, 175, 176, 177, 178, 179, 180, 181, 182, 183, 184, 185, 186, 187, 188, 189, 190, 191, 192, 193, 194, 195, 196, 197, 198, 199, 200, 201, 202, 203, 204, 205, 206, 207, 208, 209, 210, 211, 212, 213, 214, 215, 216, 217, 218, 219, 220, 221, 222, 223, 224, 225, 226, 227, 228, 229, 230, 231, 232, 233, 234, 235, 236, 237, 238, 239, 240, 241, 242, 243, 244, 245, 246, 247, 248, 249, 250, 251, 252, 253, 254, 255, 256, 257, 258, 259, 260, 261, 262, 263, 264, 265, 266, 267, 268, 269, 270, 271, 272, 273, 274, 275, 276, 277, 278, 279, 280, 281, 282, 283, 284, 285, 286, 287, 288, 289, 290, 291, 292, 293, 294, 295, 296, 297, 298, 299, 300, 301, 302, 303, 304, 305, 306, 307, 308, 309, 310, 311, 312, 313, 314, 315, 316, 317, 318, 319, 320, 321, 322, 323, 324, 325, 326, 327, 328, 329, 330, 331, 332, 333, 334, 335, 336, 337, 338, 339, 340, 341, 342, 343, 344, 345, 346, 347, 348, 349, 350, 351],
      "AcquisitionTime": ["113838.297500", "113839.797500", "113841.297500", "113842.797500", "113844.297500", "113845.797500", "113847.297500", "113848.797500", "113850.297500", "113851.797500", "113853.297500", "113854.797500", "113856.297500", "113857.797500", "113859.297500", "113900.797500", "113902.297500", "113903.797500", "113905.297500", "113906.797500", "113908.297500", "113909.797500", "113911.297500", "113912.797500", "113914.297500", "113915.797500", "113917.297500", "113918.797500", "113920.297500", "113921.797500", "113923.297500", "113924.797500", "113926.297500", "113927.797500", "113929.297500", "113930.797500", "113932.297500", "113933.797500", "113935.297500", "113936.797500", "113938.297500", "113939.797500", "113941.297500", "113942.797500", "113944.297500", "113945.797500", "113947.297500", "113948.797500", "113950.297500", "113951.797500", "113953.297500", "113954.797500", "113956.297500", "113957.797500", "113959.297500", "114000.797500", "114002.297500", "114003.797500", "114005.297500", "114006.797500", "114008.297500", "114009.797500", "114011.297500", "114012.797500", "114014.297500", "114015.797500", "114017.297500", "114018.797500", "114020.297500", "114021.797500", "114023.297500", "114024.797500", "114026.297500", "114027.797500", "114029.297500", "114030.797500", "114032.297500", "114033.797500", "114035.297500", "114036.797500", "114038.297500", "114039.797500", "114041.297500", "114042.797500", "114044.297500", "114045.797500", "114047.297500", "114048.797500", "114050.297500", "114051.797500", "114053.297500", "114054.797500", "114056.297500", "114057.797500", "114059.297500", "114100.797500", "114102.297500", "114103.797500", "114105.297500", "114106.797500", "114108.297500", "114109.797500", "114111.297500", "114112.797500", "114114.297500", "114115.797500", "114117.297500", "114118.797500", "114120.297500", "114121.797500", "114123.297500", "114124.797500", "114126.297500", "114127.797500", "114129.297500", "114130.797500", "114132.297500", "114133.797500", "114135.297500", "114136.797500", "114138.297500", "114139.797500", "114141.297500", "114142.797500", "114144.297500", "114145.797500", "114147.297500", "114148.797500", "114150.297500", "114151.797500", "114153.297500", "114154.797500", "114156.297500", "114157.797500", "114159.297500", "114200.797500", "114202.297500", "114203.797500", "114205.297500", "114206.797500", "114208.297500", "114209.797500", "114211.297500", "114212.797500", "114214.297500", "114215.797500", "114217.297500", "114218.797500", "114220.297500", "114221.797500", "114223.297500", "114224.797500", "114226.297500", "114227.797500", "114229.297500", "114230.797500", "114232.297500", "114233.797500", "114235.297500", "114236.797500", "114238.297500", "114239.797500", "114241.297500", "114242.797500", "114244.297500", "114245.797500", "114247.297500", "114248.797500", "114250.297500", "114251.797500", "114253.297500", "114254.797500", "114256.297500", "114257.797500", "114259.297500", "114300.797500", "114302.297500", "114303.797500", "114305.297500", "114306.797500", "114308.297500", "114309.797500", "114311.297500", "114312.797500", "114314.297500", "114315.797500", "114317.297500", "114318.797500", "114320.297500", "114321.797500", "114323.297500", "114324.797500", "114326.297500", "114327.797500", "114329.297500", "114330.797500", "114332.297500", "114333.797500", "114335.297500", "114336.797500", "114338.297500", "114339.797500", "114341.297500", "114342.797500", "114344.297500", "114345.797500", "114347.297500", "114348.797500", "114350.297500", "114351.797500", "114353.297500", "114354.797500", "114356.297500", "114357.797500", "114359.297500", "114400.797500", "114402.297500", "114403.797500", "114405.297500", "114406.797500", "114408.297500", "114409.797500", "114411.297500", "114412.797500", "114414.297500", "114415.797500", "114417.297500", "114418.797500", "114420.297500", "114421.797500", "114423.297500", "114424.797500", "114426.297500", "114427.797500", "114429.297500", "114430.797500", "114432.297500", "114433.797500", "114435.297500", "114436.797500", "114438.297500", "114439.797500", "114441.297500", "114442.797500", "114444.297500", "114445.797500", "114447.297500", "114448.797500", "114450.297500", "114451.797500", "114453.297500", "114454.797500", "114456.297500", "114457.797500", "114459.297500", "114500.797500", "114502.297500", "114503.797500", "114505.297500", "114506.797500", "114508.297500", "114509.797500", "114511.297500", "114512.797500", "114514.297500", "114515.797500", "114517.297500", "114518.797500", "114520.297500", "114521.797500", "114523.297500", "114524.797500", "114526.297500", "114527.797500", "114529.297500", "114530.797500", "114532.297500", "114533.797500", "114535.297500", "114536.797500", "114538.297500", "114539.797500", "114541.297500", "114542.797500", "114544.297500", "114545.797500", "114547.297500", "114548.797500", "114550.297500", "114551.797500", "114553.297500", "114554.797500", "114556.297500", "114557.797500", "114559.297500", "114600.797500", "114602.297500", "114603.797500", "114605.297500", "114606.797500", "114608.297500", "114609.797500", "114611.297500", "114612.797500", "114614.297500", "114615.797500", "114617.297500", "114618.797500", "114620.297500", "114621.797500", "114623.297500", "114624.797500", "114626.297500", "114627.797500", "114629.297500", "114630.797500", "114632.297500", "114633.797500", "114635.297500", "114636.797500", "114638.297500", "114639.797500", "114641.297500", "114642.797500", "114644.297500", "114645.797500", "114647.297500", "114648.797500", "114650.297500", "114651.797500", "114653.297500", "114654.797500", "114656.297500", "114657.797500", "114659.297500", "114700.797500", "114702.297500", "114703.797500", "114705.297500", "114706.797500", "114708.297500", "114709.797500", "114711.297500", "114712.797500", "114714.297500", "114715.797500", "114717.297500", "114718.797500", "114720.297500", "114721.797500", "114723.297500"],
      "ContentTime": ["113933.450000", "113933.453000", "113933.456000", "113933.463000", "113933.465000", "113933.468000", "113933.471000", "113933.474000", "113933.477000", "113933.479000", "113933.482000", "113933.485000", "113933.487000", "113933.490000", "113933.493000", "113933.496000", "113933.498000", "113933.501000", "113933.504000", "113933.506000", "113933.509000", "113933.512000", "113933.514000", "113933.517000", "113933.520000", "113933.523000", "113933.531000", "113933.534000", "113933.537000", "113933.539000", "113933.542000", "113933.545000", "113933.548000", "113933.550000", "113933.553000", "113933.556000", "114013.393000", "114013.403000", "114013.406000", "114013.409000", "114013.411000", "114013.414000", "114013.417000", "114013.420000", "114013.422000", "114013.425000", "114013.433000", "114013.436000", "114013.438000", "114013.441000", "114013.444000", "114013.447000", "114013.449000", "114013.452000", "114013.455000", "114013.458000", "114013.460000", "114013.463000", "114013.466000", "114013.469000", "114013.471000", "114013.474000", "114013.477000", "114053.392000", "114053.395000", "114053.397000", "114053.400000", "114053.403000", "114053.406000", "114053.408000", "114053.411000", "114053.414000", "114053.417000", "114053.419000", "114053.422000", "114053.425000", "114053.427000", "114053.430000", "114053.433000", "114053.436000", "114053.438000", "114053.441000", "114053.444000", "114053.446000", "114053.454000", "114053.457000", "114053.460000", "114053.462000", "114053.465000", "114133.392000", "114133.395000", "114133.398000", "114133.400000", "114133.403000", "114133.406000", "114133.408000", "114133.411000", "114133.414000", "114133.416000", "114133.419000", "114133.422000", "114133.424000", "114133.427000", "114133.430000", "114133.432000", "114133.435000", "114133.438000", "114133.440000", "114133.443000", "114133.446000", "114133.448000", "114133.451000", "114133.454000", "114133.456000", "114133.459000", "114133.469000", "114213.393000", "114213.396000", "114213.398000", "114213.401000", "114213.404000", "114213.406000", "114213.409000", "114213.412000", "114213.415000", "114213.427000", "114213.429000", "114213.432000", "114213.435000", "114213.437000", "114213.440000", "114213.443000", "114213.445000", "114213.448000", "114213.451000", "114213.468000", "114213.471000", "114213.473000", "114213.476000", "114213.479000", "114213.481000", "114213.484000", "114213.487000", "114253.392000", "114253.395000", "114253.397000", "114253.400000", "114253.403000", "114253.406000", "114253.408000", "114253.411000", "114253.414000", "114253.417000", "114253.419000", "114253.422000", "114253.425000", "114253.427000", "114253.430000", "114253.433000", "114253.435000", "114253.438000", "114253.441000", "114253.443000", "114253.446000", "114253.449000", "114253.451000", "114253.454000", "114253.457000", "114253.459000", "114333.392000", "114333.395000", "114333.398000", "114333.400000", "114333.403000", "114333.414000", "114333.417000", "114333.419000", "114333.422000", "114333.425000", "114333.428000", "114333.430000", "114333.433000", "114333.436000", "114333.438000", "114333.441000", "114333.444000", "114333.446000", "114333.449000", "114333.452000", "114333.454000", "114333.457000", "114333.460000", "114333.463000", "114333.465000", "114333.468000", "114333.471000", "114353.392000", "114353.394000", "114353.397000", "114353.400000", "114353.403000", "114353.405000", "114353.408000", "114353.411000", "114353.413000", "114353.416000", "114353.419000", "114353.422000", "114353.424000", "114433.393000", "114433.396000", "114433.398000", "114433.401000", "114433.404000", "114433.407000", "114433.409000", "114433.412000", "114433.415000", "114433.417000", "114433.420000", "114433.423000", "114433.425000", "114433.428000", "114433.431000", "114433.434000", "114433.436000", "114433.439000", "114433.442000", "114433.445000", "114433.447000", "114433.450000", "114433.453000", "114433.455000", "114433.458000", "114433.461000", "114433.464000", "114513.392000", "114513.395000", "114513.398000", "114513.400000", "114513.403000", "114513.406000", "114513.409000", "114513.411000", "114513.414000", "114513.417000", "114513.419000", "114513.422000", "114513.425000", "114513.428000", "114513.430000", "114513.433000", "114513.436000", "114513.438000", "114513.441000", "114513.444000", "114513.453000", "114513.456000", "114513.458000", "114513.461000", "114513.464000", "114513.466000", "114513.469000", "114553.392000", "114553.395000", "114553.397000", "114553.400000", "114553.403000", "114553.405000", "114553.408000", "114553.411000", "114553.414000", "114553.416000", "114553.419000", "114553.422000", "114553.425000", "114553.427000", "114553.430000", "114553.433000", "114553.435000", "114553.438000", "114553.441000", "114553.444000", "114553.446000", "114553.449000", "114553.452000", "114553.454000", "114553.457000", "114553.460000", "114633.393000", "114633.396000", "114633.398000", "114633.401000", "114633.404000", "114633.406000", "114633.409000", "114633.412000", "114633.415000", "114633.417000", "114633.420000", "114633.423000", "114633.426000", "114633.428000", "114633.431000", "114633.434000", "114633.449000", "114633.451000", "114633.454000", "114633.457000", "114633.459000", "114633.462000", "114633.465000", "114633.467000", "114633.470000", "114633.473000", "114633.476000", "114713.393000", "114713.396000", "114713.398000", "114713.401000", "114713.404000", "114713.407000", "114713.409000", "114713.412000", "114713.415000", "114713.418000", "114713.420000", "114713.423000", "114713.426000", "114713.428000", "114713.431000", "114713.434000", "114713.437000", "114713.439000", "114713.442000", "114713.445000", "114713.447000", "114713.450000", "114713.453000", "114713.455000", "114713.458000", "114713.461000", "114713.463000", "114724.953000", "114724.956000", "114724.958000", "114724.961000", "114724.964000", "114724.967000", "114724.970000", "114724.973000"],
      "InstanceCreationTime": ["113933.450000", "113933.453000", "113933.456000", "113933.463000", "113933.465000", "113933.468000", "113933.471000", "113933.474000", "113933.477000", "113933.479000", "113933.482000", "113933.485000", "113933.487000", "113933.490000", "113933.493000", "113933.496000", "113933.498000", "113933.501000", "113933.504000", "113933.506000", "113933.509000", "113933.512000", "113933.514000", "113933.517000", "113933.520000", "113933.523000", "113933.531000", "113933.534000", "113933.537000", "113933.539000", "113933.542000", "113933.545000", "113933.548000", "113933.550000", "113933.553000", "113933.556000", "114013.393000", "114013.403000", "114013.406000", "114013.409000", "114013.411000", "114013.414000", "114013.417000", "114013.420000", "114013.422000", "114013.425000", "114013.433000", "114013.436000", "114013.438000", "114013.441000", "114013.444000", "114013.447000", "114013.449000", "114013.452000", "114013.455000", "114013.458000", "114013.460000", "114013.463000", "114013.466000", "114013.469000", "114013.471000", "114013.474000", "114013.477000", "114053.392000", "114053.395000", "114053.397000", "114053.400000", "114053.403000", "114053.406000", "114053.408000", "114053.411000", "114053.414000", "114053.417000", "114053.419000", "114053.422000", "114053.425000", "114053.427000", "114053.430000", "114053.433000", "114053.436000", "114053.438000", "114053.441000", "114053.444000", "114053.446000", "114053.454000", "114053.457000", "114053.460000", "114053.462000", "114053.465000", "114133.392000", "114133.395000", "114133.398000", "114133.400000", "114133.403000", "114133.406000", "114133.408000", "114133.411000", "114133.414000", "114133.416000", "114133.419000", "114133.422000", "114133.424000", "114133.427000", "114133.430000", "114133.432000", "114133.435000", "114133.438000", "114133.440000", "114133.443000", "114133.446000", "114133.448000", "114133.451000", "114133.454000", "114133.456000", "114133.459000", "114133.469000", "114213.393000", "114213.396000", "114213.398000", "114213.401000", "114213.404000", "114213.406000", "114213.409000", "114213.412000", "114213.415000", "114213.427000", "114213.429000", "114213.432000", "114213.435000", "114213.437000", "114213.440000", "114213.443000", "114213.445000", "114213.448000", "114213.451000", "114213.468000", "114213.471000", "114213.473000", "114213.476000", "114213.479000", "114213.481000", "114213.484000", "114213.487000", "114253.392000", "114253.395000", "114253.397000", "114253.400000", "114253.403000", "114253.406000", "114253.408000", "114253.411000", "114253.414000", "114253.417000", "114253.419000", "114253.422000", "114253.425000", "114253.427000", "114253.430000", "114253.433000", "114253.435000", "114253.438000", "114253.441000", "114253.443000", "114253.446000", "114253.449000", "114253.451000", "114253.454000", "114253.457000", "114253.459000", "114333.392000", "114333.395000", "114333.398000", "114333.400000", "114333.403000", "114333.414000", "114333.417000", "114333.419000", "114333.422000", "114333.425000", "114333.428000", "114333.430000", "114333.433000", "114333.436000", "114333.438000", "114333.441000", "114333.444000", "114333.446000", "114333.449000", "114333.452000", "114333.454000", "114333.457000", "114333.460000", "114333.463000", "114333.465000", "114333.468000", "114333.471000", "114353.392000", "114353.394000", "114353.397000", "114353.400000", "114353.403000", "114353.405000", "114353.408000", "114353.411000", "114353.413000", "114353.416000", "114353.419000", "114353.422000", "114353.424000", "114433.393000", "114433.396000", "114433.398000", "114433.401000", "114433.404000", "114433.407000", "114433.409000", "114433.412000", "114433.415000", "114433.417000", "114433.420000", "114433.423000", "114433.425000", "114433.428000", "114433.431000", "114433.434000", "114433.436000", "114433.439000", "114433.442000", "114433.445000", "114433.447000", "114433.450000", "114433.453000", "114433.455000", "114433.458000", "114433.461000", "114433.464000", "114513.392000", "114513.395000", "114513.398000", "114513.400000", "114513.403000", "114513.406000", "114513.409000", "114513.411000", "114513.414000", "114513.417000", "114513.419000", "114513.422000", "114513.425000", "114513.428000", "114513.430000", "114513.433000", "114513.436000", "114513.438000", "114513.441000", "114513.444000", "114513.453000", "114513.456000", "114513.458000", "114513.461000", "114513.464000", "114513.466000", "114513.469000", "114553.392000", "114553.395000", "114553.397000", "114553.400000", "114553.403000", "114553.405000", "114553.408000", "114553.411000", "114553.414000", "114553.416000", "114553.419000", "114553.422000", "114553.425000", "114553.427000", "114553.430000", "114553.433000", "114553.435000", "114553.438000", "114553.441000", "114553.444000", "114553.446000", "114553.449000", "114553.452000", "114553.454000", "114553.457000", "114553.460000", "114633.393000", "114633.396000", "114633.398000", "114633.401000", "114633.404000", "114633.406000", "114633.409000", "114633.412000", "114633.415000", "114633.417000", "114633.420000", "114633.423000", "114633.426000", "114633.428000", "114633.431000", "114633.434000", "114633.449000", "114633.451000", "114633.454000", "114633.457000", "114633.459000", "114633.462000", "114633.465000", "114633.467000", "114633.470000", "114633.473000", "114633.476000", "114713.393000", "114713.396000", "114713.398000", "114713.401000", "114713.404000", "114713.407000", "114713.409000", "114713.412000", "114713.415000", "114713.418000", "114713.420000", "114713.423000", "114713.426000", "114713.428000", "114713.431000", "114713.434000", "114713.437000", "114713.439000", "114713.442000", "114713.445000", "114713.447000", "114713.450000", "114713.453000", "114713.455000", "114713.458000", "114713.461000", "114713.463000", "114724.953000", "114724.956000", "114724.958000", "114724.961000", "114724.964000", "114724.967000", "114724.970000", "114724.973000"],
      "InstanceNumber": [1, 2, 3, 4, 5, 6, 7, 8, 9, 10, 11, 12, 13, 14, 15, 16, 17, 18, 19, 20, 21, 22, 23, 24, 25, 26, 27, 28, 29, 30, 31, 32, 33, 34, 35, 36, 37, 38, 39, 40, 41, 42, 43, 44, 45, 46, 47, 48, 49, 50, 51, 52, 53, 54, 55, 56, 57, 58, 59, 60, 61, 62, 63, 64, 65, 66, 67, 68, 69, 70, 71, 72, 73, 74, 75, 76, 77, 78, 79, 80, 81, 82, 83, 84, 85, 86, 87, 88, 89, 90, 91, 92, 93, 94, 95, 96, 97, 98, 99, 100, 101, 102, 103, 104, 105, 106, 107, 108, 109, 110, 111, 112, 113, 114, 115, 116, 117, 118, 119, 120, 121, 122, 123, 124, 125, 126, 127, 128, 129, 130, 131, 132, 133, 134, 135, 136, 137, 138, 139, 140, 141, 142, 143, 144, 145, 146, 147, 148, 149, 150, 151, 152, 153, 154, 155, 156, 157, 158, 159, 160, 161, 162, 163, 164, 165, 166, 167, 168, 169, 170, 171, 172, 173, 174, 175, 176, 177, 178, 179, 180, 181, 182, 183, 184, 185, 186, 187, 188, 189, 190, 191, 192, 193, 194, 195, 196, 197, 198, 199, 200, 201, 202, 203, 204, 205, 206, 207, 208, 209, 210, 211, 212, 213, 214, 215, 216, 217, 218, 219, 220, 221, 222, 223, 224, 225, 226, 227, 228, 229, 230, 231, 232, 233, 234, 235, 236, 237, 238, 239, 240, 241, 242, 243, 244, 245, 246, 247, 248, 249, 250, 251, 252, 253, 254, 255, 256, 257, 258, 259, 260, 261, 262, 263, 264, 265, 266, 267, 268, 269, 270, 271, 272, 273, 274, 275, 276, 277, 278, 279, 280, 281, 282, 283, 284, 285, 286, 287, 288, 289, 290, 291, 292, 293, 294, 295, 296, 297, 298, 299, 300, 301, 302, 303, 304, 305, 306, 307, 308, 309, 310, 311, 312, 313, 314, 315, 316, 317, 318, 319, 320, 321, 322, 323, 324, 325, 326, 327, 328, 329, 330, 331, 332, 333, 334, 335, 336, 337, 338, 339, 340, 341, 342, 343, 344, 345, 346, 347, 348, 349, 350, 351],
      "LargestImagePixelValue": [11149, 10853, 10579, 10694, 10672, 10482, 10454, 10614, 10730, 10653, 10766, 10822, 10856, 10821, 10761, 10788, 10664, 10700, 10952, 10741, 10587, 11264, 10967, 11257, 10900, 10685, 10504, 10665, 10743, 10984, 10973, 10580, 10794, 10838, 11048, 10822, 10577, 11075, 11006, 11052, 10935, 10509, 10690, 11368, 10637, 10523, 11028, 10711, 10638, 11187, 10534, 10287, 10566, 11096, 10995, 11159, 11491, 10616, 10693, 10980, 10796, 10777, 10815, 11310, 10884, 11210, 11069, 10831, 11469, 10730, 10878, 11379, 10992, 11150, 10985, 10917, 11176, 11017, 10993, 11406, 10789, 10910, 11340, 10854, 10853, 11295, 10988, 11030, 11390, 10590, 11049, 10925, 10718, 11231, 10928, 10740, 10726, 11131, 10953, 10865, 10841, 10898, 11171, 10838, 10849, 10980, 10936, 11133, 11018, 10953, 11163, 11007, 11101, 10992, 11043, 11211, 10788, 11345, 10948, 11187, 10979, 11194, 10908, 10890, 11021, 10716, 10862, 10665, 10882, 10842, 10834, 10883, 10797, 10813, 10878, 10571, 10903, 10752, 10809, 10722, 10566, 10651, 10650, 10828, 10941, 10847, 11081, 10893, 11119, 11163, 10367, 10763, 10462, 10666, 10658, 11113, 10840, 11213, 11396, 11199, 10821, 11152, 11110, 11110, 10902, 10998, 11234, 11227, 11241, 11031, 11497, 11311, 11365, 11540, 11536, 11208, 10926, 10487, 10963, 11403, 11370, 11339, 11132, 11089, 11072, 11192, 11156, 11098, 10717, 11015, 10896, 10757, 10462, 10520, 10657, 10387, 10453, 10938, 10878, 10605, 10477, 10953, 10983, 10748, 11150, 11186, 11035, 11347, 11369, 11200, 11110, 11636, 11137, 10736, 11301, 11219, 11183, 11365, 11329, 11075, 11418, 11208, 11104, 10804, 11309, 11070, 10853, 10933, 11033, 10754, 10782, 10730, 11114, 11135, 10977, 11311, 11433, 11390, 11101, 11227, 11298, 11345, 11199, 11113, 11035, 11410, 11140, 11121, 11473, 11180, 11090, 11086, 11173, 11161, 11321, 11363, 10962, 10541, 10975, 11045, 10780, 10784, 10927, 10934, 10956, 10759, 10549, 10582, 10519, 10618, 10647, 10697, 10765, 10843, 10670, 10745, 10717, 10814, 10834, 11125, 10871, 10740, 10786, 10805, 10856, 10695, 11035, 11093, 10774, 10919, 11136, 10869, 10909, 10872, 10958, 10987, 11046, 11006, 11073, 10670, 10843, 10674, 10664, 10753, 10950, 10862, 10678, 10830, 10714, 10972, 10762, 10878, 11059, 10818, 10859, 10810, 10681, 10948, 10843, 10694, 10803, 10954, 10954, 10915, 10927, 10827, 10808, 10878, 10862, 10948, 10880, 10726, 10889, 10812, 10814, 10888, 10919, 11000, 10864, 10808, 10891, 10900, 10934, 10892, 10981, 10975, 11207, 11136, 10979, 10889, 10860],
