{
  "AcquisitionMatrixPE": 106,
  "AcquisitionNumber": 1,
  "AcquisitionTime": "12:53:13.117500",
  "BandwidthPerPixelPhaseEncode": 16.846,
  "BaseResolution": 106,
  "BodyPartExamined": "BRAIN",
  "CoilCombinationMethod": "Sum of Squares",
  "ConsistencyInfo": "N4_VE11C_LATEST_20160120",
  "ConversionSoftware": "dcm2niix",
  "ConversionSoftwareVersion": "v1.0.20220720",
  "DerivedVendorReportedEchoSpacing": 0.000560012,
  "DeviceSerialNumber": "166108",
  "DwellTime": 1.8e-06,
  "EchoTime": 0.0352,
  "EchoTrainLength": 106,
  "EffectiveEchoSpacing": 0.000560012,
  "FlipAngle": 60,
  "HeudiconvVersion": "1.3.0",
  "ImageComments": "Unaliased MB4/PE3/LB",
  "ImageOrientationPatientDICOM": [1, 0, 0, 0, 1, 0],
  "ImageOrientationText": "Tra",
  "ImageType": [
    "ORIGINAL",
    "PRIMARY",
    "M",
    "MB",
    "ND",
    "MOSAIC"
],
  "ImagingFrequency": 123.244,
  "InPlanePhaseEncodingDirectionDICOM": "COL",
  "InstitutionAddress": "Bedford Way 26,London,London,GB,WC1H 0AP",
  "InstitutionName": "University College",
  "InstitutionalDepartmentName": "Department",
  "MRAcquisitionType": "2D",
  "MagneticFieldStrength": 3,
  "Manufacturer": "Siemens",
  "ManufacturersModelName": "Prisma",
  "MatrixCoilMode": "SENSE",
  "Modality": "MR",
  "MultibandAccelerationFactor": 4,
  "NonlinearGradientCorrection": false,
  "PartialFourier": 1,
  "PatientPosition": "HFS",
  "PercentPhaseFOV": 100,
  "PercentSampling": 100,
  "PhaseEncodingDirection": "j-",
  "PhaseEncodingSteps": 106,
  "PhaseResolution": 1,
  "PixelBandwidth": 2620,
  "ProcedureStepDescription": "Egor^MovieProject2",
  "ProtocolName": "task-backtothefuture_run-3",
  "PulseSequenceDetails": "%CustomerSeq%\\cmrr_mbep2d_bold",
  "ReceiveCoilActiveElements": "HEA;HEP",
  "ReceiveCoilName": "Head_32",
  "ReconMatrixPE": 106,
  "RepetitionTime": 1.5,
  "SAR": 0.0999935,
  "ScanOptions": "FS\\EXT",
  "ScanningSequence": "EP",
  "SequenceName": "epfid2d1_106",
  "SequenceVariant": "SK\\SS",
  "SeriesDescription": "task-backtothefuture_run-3",
  "SeriesNumber": 15,
  "ShimSetting": [-1514, 556, 7467, 412, -50, 3, 160, -62],
  "SliceThickness": 2,
  "SliceTiming": [0, 1.07, 0.66, 0.2475, 1.3175, 0.905, 0.495, 0.0825, 1.1525, 0.74, 0.33, 1.4, 0.9875, 0.5775, 0.165, 1.235, 0.8225, 0.4125, 0, 1.07, 0.66, 0.2475, 1.3175, 0.905, 0.495, 0.0825, 1.1525, 0.74, 0.33, 1.4, 0.9875, 0.5775, 0.165, 1.235, 0.8225, 0.4125, 0, 1.07, 0.66, 0.2475, 1.3175, 0.905, 0.495, 0.0825, 1.1525, 0.74, 0.33, 1.4, 0.9875, 0.5775, 0.165, 1.235, 0.8225, 0.4125, 0, 1.07, 0.66, 0.2475, 1.3175, 0.905, 0.495, 0.0825, 1.1525, 0.74, 0.33, 1.4, 0.9875, 0.5775, 0.165, 1.235, 0.8225, 0.4125],
  "SoftwareVersions": "syngo MR E11",
  "SpacingBetweenSlices": 2,
  "StationName": "AWP166108",
  "TaskName": "backtothefuture",
  "TotalReadoutTime": 0.0588013,
  "TxRefAmp": 268.948,
  "WipMemBlock": "c5bd5509-7988-4b0c-b665-32c93ed42b89||Sequence: R016 ve11c/master r/e634e98; Dec 19 2017 11:00:25 by eja",
  "dcmmeta_affine": [
    [-2.0, 0.0, 0.0, 106.0],
    [0.0, 2.0, 0.0, -85.9277114868164],
    [0.0, 0.0, 2.0, -55.33734893798828],
    [0.0, 0.0, 0.0, 1.0]
],
  "dcmmeta_reorient_transform": [
    [0.0, -1.0, 0.0, 105.0],
    [1.0, 0.0, 0.0, 0.0],
    [0.0, 0.0, 1.0, 0.0],
    [0.0, 0.0, 0.0, 1.0]
],
  "dcmmeta_shape": [106, 106, 72, 1608],
  "dcmmeta_slice_dim": 2,
  "dcmmeta_version": 0.6,
  "global": {
    "const": {
      "AcquisitionMatrix": [106, 0, 0, 106],
      "AngioFlag": "N",
      "BitsAllocated": 16,
      "BitsStored": 16,
      "BodyPartExamined": "BRAIN",
      "CardiacNumberOfImages": 1,
      "Columns": 954,
      "EchoNumbers": 1,
      "EchoTime": 35.2,
      "EchoTrainLength": 106,
      "FlipAngle": 60.0,
      "HighBit": 15,
      "ImageOrientationPatient": [1.0, 0.0, 0.0, 0.0, 1.0, 0.0],
      "ImagePositionPatient": [-954.0, -972.07228851318, -55.337348937988],
      "ImageType": [
        "ORIGINAL",
        "PRIMARY",
        "M",
        "MB",
        "ND",
        "MOSAIC"
],
      "ImagedNucleus": "1H",
      "ImagingFrequency": 123.243638,
      "InPlanePhaseEncodingDirection": "COL",
      "MRAcquisitionType": "2D",
      "MagneticFieldStrength": 3.0,
      "Manufacturer": "SIEMENS",
      "ManufacturerModelName": "Prisma",
      "Modality": "MR",
      "NominalInterval": 0,
      "NumberOfAverages": 1.0,
      "NumberOfPhaseEncodingSteps": 106,
      "PercentPhaseFieldOfView": 100.0,
      "PercentSampling": 100.0,
      "PerformedProcedureStepStartTime": "103753.724000",
      "PhotometricInterpretation": "MONOCHROME2",
      "PixelBandwidth": 2620.0,
      "PixelRepresentation": 0,
      "PixelSpacing": [2.0, 2.0],
      "ProtocolName": "task-backtothefuture_run-3",
      "RepetitionTime": 1500.0,
      "Rows": 954,
      "SAR": 0.09999355190588,
      "SamplesPerPixel": 1,
      "ScanOptions": [
        "FS",
        "EXT"
],
      "ScanningSequence": "EP",
      "SequenceName": "epfid2d1_106",
      "SequenceVariant": [
        "SK",
        "SS"
],
      "SeriesDescription": "task-backtothefuture_run-3",
      "SeriesNumber": 15,
      "SeriesTime": "125353.425000",
      "SliceLocation": -55.337348937988,
      "SliceThickness": 2.0,
      "SmallestImagePixelValue": 0,
      "SoftwareVersions": "syngo MR E11",
      "SpacingBetweenSlices": 2.0,
      "SpecificCharacterSet": "ISO_IR 100",
      "StudyID": "1",
      "StudyTime": "103753.666000",
      "TransmitCoilName": "Body",
      "VariableFlipAngleFlag": "N",
      "WindowCenterWidthExplanation": "Algo1",
      "dBdt": 0.0},
    "slices": {}
  },
  "time": {
    "samples": {
      "AcquisitionNumber": [1, 2, 3, 4, 5, 6, 7, 8, 9, 10, 11, 12, 13, 14, 15, 16, 17, 18, 19, 20, 21, 22, 23, 24, 25, 26, 27, 28, 29, 30, 31, 32, 33, 34, 35, 36, 37, 38, 39, 40, 41, 42, 43, 44, 45, 46, 47, 48, 49, 50, 51, 52, 53, 54, 55, 56, 57, 58, 59, 60, 61, 62, 63, 64, 65, 66, 67, 68, 69, 70, 71, 72, 73, 74, 75, 76, 77, 78, 79, 80, 81, 82, 83, 84, 85, 86, 87, 88, 89, 90, 91, 92, 93, 94, 95, 96, 97, 98, 99, 100, 101, 102, 103, 104, 105, 106, 107, 108, 109, 110, 111, 112, 113, 114, 115, 116, 117, 118, 119, 120, 121, 122, 123, 124, 125, 126, 127, 128, 129, 130, 131, 132, 133, 134, 135, 136, 137, 138, 139, 140, 141, 142, 143, 144, 145, 146, 147, 148, 149, 150, 151, 152, 153, 154, 155, 156, 157, 158, 159, 160, 161, 162, 163, 164, 165, 166, 167, 168, 169, 170, 171, 172, 173, 174, 175, 176, 177, 178, 179, 180, 181, 182, 183, 184, 185, 186, 187, 188, 189, 190, 191, 192, 193, 194, 195, 196, 197, 198, 199, 200, 201, 202, 203, 204, 205, 206, 207, 208, 209, 210, 211, 212, 213, 214, 215, 216, 217, 218, 219, 220, 221, 222, 223, 224, 225, 226, 227, 228, 229, 230, 231, 232, 233, 234, 235, 236, 237, 238, 239, 240, 241, 242, 243, 244, 245, 246, 247, 248, 249, 250, 251, 252, 253, 254, 255, 256, 257, 258, 259, 260, 261, 262, 263, 264, 265, 266, 267, 268, 269, 270, 271, 272, 273, 274, 275, 276, 277, 278, 279, 280, 281, 282, 283, 284, 285, 286, 287, 288, 289, 290, 291, 292, 293, 294, 295, 296, 297, 298, 299, 300, 301, 302, 303, 304, 305, 306, 307, 308, 309, 310, 311, 312, 313, 314, 315, 316, 317, 318, 319, 320, 321, 322, 323, 324, 325, 326, 327, 328, 329, 330, 331, 332, 333, 334, 335, 336, 337, 338, 339, 340, 341, 342, 343, 344, 345, 346, 347, 348, 349, 350, 351, 352, 353, 354, 355, 356, 357, 358, 359, 360, 361, 362, 363, 364, 365, 366, 367, 368, 369, 370, 371, 372, 373, 374, 375, 376, 377, 378, 379, 380, 381, 382, 383, 384, 385, 386, 387, 388, 389, 390, 391, 392, 393, 394, 395, 396, 397, 398, 399, 400, 401, 402, 403, 404, 405, 406, 407, 408, 409, 410, 411, 412, 413, 414, 415, 416, 417, 418, 419, 420, 421, 422, 423, 424, 425, 426, 427, 428, 429, 430, 431, 432, 433, 434, 435, 436, 437, 438, 439, 440, 441, 442, 443, 444, 445, 446, 447, 448, 449, 450, 451, 452, 453, 454, 455, 456, 457, 458, 459, 460, 461, 462, 463, 464, 465, 466, 467, 468, 469, 470, 471, 472, 473, 474, 475, 476, 477, 478, 479, 480, 481, 482, 483, 484, 485, 486, 487, 488, 489, 490, 491, 492, 493, 494, 495, 496, 497, 498, 499, 500, 501, 502, 503, 504, 505, 506, 507, 508, 509, 510, 511, 512, 513, 514, 515, 516, 517, 518, 519, 520, 521, 522, 523, 524, 525, 526, 527, 528, 529, 530, 531, 532, 533, 534, 535, 536, 537, 538, 539, 540, 541, 542, 543, 544, 545, 546, 547, 548, 549, 550, 551, 552, 553, 554, 555, 556, 557, 558, 559, 560, 561, 562, 563, 564, 565, 566, 567, 568, 569, 570, 571, 572, 573, 574, 575, 576, 577, 578, 579, 580, 581, 582, 583, 584, 585, 586, 587, 588, 589, 590, 591, 592, 593, 594, 595, 596, 597, 598, 599, 600, 601, 602, 603, 604, 605, 606, 607, 608, 609, 610, 611, 612, 613, 614, 615, 616, 617, 618, 619, 620, 621, 622, 623, 624, 625, 626, 627, 628, 629, 630, 631, 632, 633, 634, 635, 636, 637, 638, 639, 640, 641, 642, 643, 644, 645, 646, 647, 648, 649, 650, 651, 652, 653, 654, 655, 656, 657, 658, 659, 660, 661, 662, 663, 664, 665, 666, 667, 668, 669, 670, 671, 672, 673, 674, 675, 676, 677, 678, 679, 680, 681, 682, 683, 684, 685, 686, 687, 688, 689, 690, 691, 692, 693, 694, 695, 696, 697, 698, 699, 700, 701, 702, 703, 704, 705, 706, 707, 708, 709, 710, 711, 712, 713, 714, 715, 716, 717, 718, 719, 720, 721, 722, 723, 724, 725, 726, 727, 728, 729, 730, 731, 732, 733, 734, 735, 736, 737, 738, 739, 740, 741, 742, 743, 744, 745, 746, 747, 748, 749, 750, 751, 752, 753, 754, 755, 756, 757, 758, 759, 760, 761, 762, 763, 764, 765, 766, 767, 768, 769, 770, 771, 772, 773, 774, 775, 776, 777, 778, 779, 780, 781, 782, 783, 784, 785, 786, 787, 788, 789, 790, 791, 792, 793, 794, 795, 796, 797, 798, 799, 800, 801, 802, 803, 804, 805, 806, 807, 808, 809, 810, 811, 812, 813, 814, 815, 816, 817, 818, 819, 820, 821, 822, 823, 824, 825, 826, 827, 828, 829, 830, 831, 832, 833, 834, 835, 836, 837, 838, 839, 840, 841, 842, 843, 844, 845, 846, 847, 848, 849, 850, 851, 852, 853, 854, 855, 856, 857, 858, 859, 860, 861, 862, 863, 864, 865, 866, 867, 868, 869, 870, 871, 872, 873, 874, 875, 876, 877, 878, 879, 880, 881, 882, 883, 884, 885, 886, 887, 888, 889, 890, 891, 892, 893, 894, 895, 896, 897, 898, 899, 900, 901, 902, 903, 904, 905, 906, 907, 908, 909, 910, 911, 912, 913, 914, 915, 916, 917, 918, 919, 920, 921, 922, 923, 924, 925, 926, 927, 928, 929, 930, 931, 932, 933, 934, 935, 936, 937, 938, 939, 940, 941, 942, 943, 944, 945, 946, 947, 948, 949, 950, 951, 952, 953, 954, 955, 956, 957, 958, 959, 960, 961, 962, 963, 964, 965, 966, 967, 968, 969, 970, 971, 972, 973, 974, 975, 976, 977, 978, 979, 980, 981, 982, 983, 984, 985, 986, 987, 988, 989, 990, 991, 992, 993, 994, 995, 996, 997, 998, 999, 1000, 1001, 1002, 1003, 1004, 1005, 1006, 1007, 1008, 1009, 1010, 1011, 1012, 1013, 1014, 1015, 1016, 1017, 1018, 1019, 1020, 1021, 1022, 1023, 1024, 1025, 1026, 1027, 1028, 1029, 1030, 1031, 1032, 1033, 1034, 1035, 1036, 1037, 1038, 1039, 1040, 1041, 1042, 1043, 1044, 1045, 1046, 1047, 1048, 1049, 1050, 1051, 1052, 1053, 1054, 1055, 1056, 1057, 1058, 1059, 1060, 1061, 1062, 1063, 1064, 1065, 1066, 1067, 1068, 1069, 1070, 1071, 1072, 1073, 1074, 1075, 1076, 1077, 1078, 1079, 1080, 1081, 1082, 1083, 1084, 1085, 1086, 1087, 1088, 1089, 1090, 1091, 1092, 1093, 1094, 1095, 1096, 1097, 1098, 1099, 1100, 1101, 1102, 1103, 1104, 1105, 1106, 1107, 1108, 1109, 1110, 1111, 1112, 1113, 1114, 1115, 1116, 1117, 1118, 1119, 1120, 1121, 1122, 1123, 1124, 1125, 1126, 1127, 1128, 1129, 1130, 1131, 1132, 1133, 1134, 1135, 1136, 1137, 1138, 1139, 1140, 1141, 1142, 1143, 1144, 1145, 1146, 1147, 1148, 1149, 1150, 1151, 1152, 1153, 1154, 1155, 1156, 1157, 1158, 1159, 1160, 1161, 1162, 1163, 1164, 1165, 1166, 1167, 1168, 1169, 1170, 1171, 1172, 1173, 1174, 1175, 1176, 1177, 1178, 1179, 1180, 1181, 1182, 1183, 1184, 1185, 1186, 1187, 1188, 1189, 1190, 1191, 1192, 1193, 1194, 1195, 1196, 1197, 1198, 1199, 1200, 1201, 1202, 1203, 1204, 1205, 1206, 1207, 1208, 1209, 1210, 1211, 1212, 1213, 1214, 1215, 1216, 1217, 1218, 1219, 1220, 1221, 1222, 1223, 1224, 1225, 1226, 1227, 1228, 1229, 1230, 1231, 1232, 1233, 1234, 1235, 1236, 1237, 1238, 1239, 1240, 1241, 1242, 1243, 1244, 1245, 1246, 1247, 1248, 1249, 1250, 1251, 1252, 1253, 1254, 1255, 1256, 1257, 1258, 1259, 1260, 1261, 1262, 1263, 1264, 1265, 1266, 1267, 1268, 1269, 1270, 1271, 1272, 1273, 1274, 1275, 1276, 1277, 1278, 1279, 1280, 1281, 1282, 1283, 1284, 1285, 1286, 1287, 1288, 1289, 1290, 1291, 1292, 1293, 1294, 1295, 1296, 1297, 1298, 1299, 1300, 1301, 1302, 1303, 1304, 1305, 1306, 1307, 1308, 1309, 1310, 1311, 1312, 1313, 1314, 1315, 1316, 1317, 1318, 1319, 1320, 1321, 1322, 1323, 1324, 1325, 1326, 1327, 1328, 1329, 1330, 1331, 1332, 1333, 1334, 1335, 1336, 1337, 1338, 1339, 1340, 1341, 1342, 1343, 1344, 1345, 1346, 1347, 1348, 1349, 1350, 1351, 1352, 1353, 1354, 1355, 1356, 1357, 1358, 1359, 1360, 1361, 1362, 1363, 1364, 1365, 1366, 1367, 1368, 1369, 1370, 1371, 1372, 1373, 1374, 1375, 1376, 1377, 1378, 1379, 1380, 1381, 1382, 1383, 1384, 1385, 1386, 1387, 1388, 1389, 1390, 1391, 1392, 1393, 1394, 1395, 1396, 1397, 1398, 1399, 1400, 1401, 1402, 1403, 1404, 1405, 1406, 1407, 1408, 1409, 1410, 1411, 1412, 1413, 1414, 1415, 1416, 1417, 1418, 1419, 1420, 1421, 1422, 1423, 1424, 1425, 1426, 1427, 1428, 1429, 1430, 1431, 1432, 1433, 1434, 1435, 1436, 1437, 1438, 1439, 1440, 1441, 1442, 1443, 1444, 1445, 1446, 1447, 1448, 1449, 1450, 1451, 1452, 1453, 1454, 1455, 1456, 1457, 1458, 1459, 1460, 1461, 1462, 1463, 1464, 1465, 1466, 1467, 1468, 1469, 1470, 1471, 1472, 1473, 1474, 1475, 1476, 1477, 1478, 1479, 1480, 1481, 1482, 1483, 1484, 1485, 1486, 1487, 1488, 1489, 1490, 1491, 1492, 1493, 1494, 1495, 1496, 1497, 1498, 1499, 1500, 1501, 1502, 1503, 1504, 1505, 1506, 1507, 1508, 1509, 1510, 1511, 1512, 1513, 1514, 1515, 1516, 1517, 1518, 1519, 1520, 1521, 1522, 1523, 1524, 1525, 1526, 1527, 1528, 1529, 1530, 1531, 1532, 1533, 1534, 1535, 1536, 1537, 1538, 1539, 1540, 1541, 1542, 1543, 1544, 1545, 1546, 1547, 1548, 1549, 1550, 1551, 1552, 1553, 1554, 1555, 1556, 1557, 1558, 1559, 1560, 1561, 1562, 1563, 1564, 1565, 1566, 1567, 1568, 1569, 1570, 1571, 1572, 1573, 1574, 1575, 1576, 1577, 1578, 1579, 1580, 1581, 1582, 1583, 1584, 1585, 1586, 1587, 1588, 1589, 1590, 1591, 1592, 1593, 1594, 1595, 1596, 1597, 1598, 1599, 1600, 1601, 1602, 1603, 1604, 1605, 1606, 1607, 1608],
      "AcquisitionTime": ["125313.117500", "125314.617500", "125316.117500", "125317.617500", "125319.117500", "125320.617500", "125322.117500", "125323.617500", "125325.117500", "125326.617500", "125328.117500", "125329.617500", "125331.117500", "125332.617500", "125334.117500", "125335.617500", "125337.117500", "125338.617500", "125340.117500", "125341.617500", "125343.117500", "125344.617500", "125346.117500", "125347.617500", "125349.117500", "125350.617500", "125352.117500", "125353.617500", "125355.117500", "125356.617500", "125358.117500", "125359.617500", "125401.117500", "125402.617500", "125404.117500", "125405.617500", "125407.117500", "125408.617500", "125410.117500", "125411.617500", "125413.117500", "125414.617500", "125416.117500", "125417.617500", "125419.117500", "125420.617500", "125422.117500", "125423.617500", "125425.117500", "125426.617500", "125428.117500", "125429.617500", "125431.117500", "125432.617500", "125434.117500", "125435.617500", "125437.117500", "125438.617500", "125440.117500", "125441.617500", "125443.117500", "125444.617500", "125446.117500", "125447.617500", "125449.117500", "125450.617500", "125452.117500", "125453.617500", "125455.117500", "125456.617500", "125458.117500", "125459.617500", "125501.117500", "125502.617500", "125504.117500", "125505.617500", "125507.117500", "125508.617500", "125510.117500", "125511.617500", "125513.117500", "125514.617500", "125516.117500", "125517.617500", "125519.117500", "125520.617500", "125522.117500", "125523.617500", "125525.117500", "125526.617500", "125528.117500", "125529.617500", "125531.117500", "125532.617500", "125534.117500", "125535.617500", "125537.117500", "125538.617500", "125540.117500", "125541.617500", "125543.117500", "125544.617500", "125546.117500", "125547.617500", "125549.117500", "125550.617500", "125552.117500", "125553.617500", "125555.117500", "125556.617500", "125558.117500", "125559.617500", "125601.117500", "125602.617500", "125604.117500", "125605.617500", "125607.117500", "125608.617500", "125610.117500", "125611.617500", "125613.117500", "125614.617500", "125616.117500", "125617.617500", "125619.117500", "125620.617500", "125622.117500", "125623.617500", "125625.117500", "125626.617500", "125628.117500", "125629.617500", "125631.117500", "125632.617500", "125634.117500", "125635.617500", "125637.117500", "125638.617500", "125640.117500", "125641.617500", "125643.117500", "125644.617500", "125646.117500", "125647.617500", "125649.117500", "125650.617500", "125652.117500", "125653.617500", "125655.117500", "125656.617500", "125658.117500", "125659.617500", "125701.117500", "125702.617500", "125704.117500", "125705.617500", "125707.117500", "125708.617500", "125710.117500", "125711.617500", "125713.117500", "125714.617500", "125716.117500", "125717.617500", "125719.117500", "125720.617500", "125722.117500", "125723.617500", "125725.117500", "125726.617500", "125728.117500", "125729.617500", "125731.117500", "125732.617500", "125734.117500", "125735.617500", "125737.117500", "125738.617500", "125740.117500", "125741.617500", "125743.117500", "125744.617500", "125746.117500", "125747.617500", "125749.117500", "125750.617500", "125752.117500", "125753.617500", "125755.117500", "125756.617500", "125758.117500", "125759.617500", "125801.117500", "125802.617500", "125804.117500", "125805.617500", "125807.117500", "125808.617500", "125810.117500", "125811.617500", "125813.117500", "125814.617500", "125816.117500", "125817.617500", "125819.117500", "125820.617500", "125822.117500", "125823.617500", "125825.117500", "125826.617500", "125828.117500", "125829.617500", "125831.117500", "125832.617500", "125834.117500", "125835.617500", "125837.117500", "125838.617500", "125840.117500", "125841.617500", "125843.117500", "125844.617500", "125846.117500", "125847.617500", "125849.117500", "125850.617500", "125852.117500", "125853.617500", "125855.117500", "125856.617500", "125858.117500", "125859.617500", "125901.117500", "125902.617500", "125904.117500", "125905.617500", "125907.117500", "125908.617500", "125910.117500", "125911.617500", "125913.117500", "125914.617500", "125916.117500", "125917.617500", "125919.117500", "125920.617500", "125922.117500", "125923.617500", "125925.117500", "125926.617500", "125928.117500", "125929.617500", "125931.117500", "125932.617500", "125934.117500", "125935.617500", "125937.117500", "125938.617500", "125940.117500", "125941.617500", "125943.117500", "125944.617500", "125946.117500", "125947.617500", "125949.117500", "125950.617500", "125952.117500", "125953.617500", "125955.117500", "125956.617500", "125958.117500", "125959.617500", "130001.117500", "130002.617500", "130004.117500", "130005.617500", "130007.117500", "130008.617500", "130010.117500", "130011.617500", "130013.117500", "130014.617500", "130016.117500", "130017.617500", "130019.117500", "130020.617500", "130022.117500", "130023.617500", "130025.117500", "130026.617500", "130028.117500", "130029.617500", "130031.117500", "130032.617500", "130034.117500", "130035.617500", "130037.117500", "130038.617500", "130040.117500", "130041.617500", "130043.117500", "130044.617500", "130046.117500", "130047.617500", "130049.117500", "130050.617500", "130052.117500", "130053.617500", "130055.117500", "130056.617500", "130058.117500", "130059.617500", "130101.117500", "130102.617500", "130104.117500", "130105.617500", "130107.117500", "130108.617500", "130110.117500", "130111.617500", "130113.117500", "130114.617500", "130116.117500", "130117.617500", "130119.117500", "130120.617500", "130122.117500", "130123.617500", "130125.117500", "130126.617500", "130128.117500", "130129.617500", "130131.117500", "130132.617500", "130134.117500", "130135.617500", "130137.117500", "130138.617500", "130140.117500", "130141.617500", "130143.117500", "130144.617500", "130146.117500", "130147.617500", "130149.117500", "130150.617500", "130152.117500", "130153.617500", "130155.117500", "130156.617500", "130158.117500", "130159.617500", "130201.117500", "130202.617500", "130204.117500", "130205.617500", "130207.117500", "130208.617500", "130210.117500", "130211.617500", "130213.117500", "130214.617500", "130216.117500", "130217.617500", "130219.117500", "130220.617500", "130222.117500", "130223.617500", "130225.117500", "130226.617500", "130228.117500", "130229.617500", "130231.117500", "130232.617500", "130234.117500", "130235.617500", "130237.117500", "130238.617500", "130240.117500", "130241.617500", "130243.117500", "130244.617500", "130246.117500", "130247.617500", "130249.117500", "130250.617500", "130252.117500", "130253.617500", "130255.117500", "130256.617500", "130258.117500", "130259.617500", "130301.117500", "130302.617500", "130304.117500", "130305.617500", "130307.117500", "130308.617500", "130310.117500", "130311.617500", "130313.117500", "130314.617500", "130316.117500", "130317.617500", "130319.117500", "130320.617500", "130322.117500", "130323.617500", "130325.117500", "130326.617500", "130328.117500", "130329.617500", "130331.117500", "130332.617500", "130334.117500", "130335.617500", "130337.117500", "130338.617500", "130340.117500", "130341.617500", "130343.117500", "130344.617500", "130346.117500", "130347.617500", "130349.117500", "130350.617500", "130352.117500", "130353.617500", "130355.117500", "130356.617500", "130358.117500", "130359.617500", "130401.117500", "130402.617500", "130404.117500", "130405.617500", "130407.117500", "130408.617500", "130410.117500", "130411.617500", "130413.117500", "130414.617500", "130416.117500", "130417.617500", "130419.117500", "130420.617500", "130422.117500", "130423.617500", "130425.117500", "130426.617500", "130428.117500", "130429.617500", "130431.117500", "130432.617500", "130434.117500", "130435.617500", "130437.117500", "130438.617500", "130440.117500", "130441.617500", "130443.117500", "130444.617500", "130446.117500", "130447.617500", "130449.117500", "130450.617500", "130452.117500", "130453.617500", "130455.117500", "130456.617500", "130458.117500", "130459.617500", "130501.117500", "130502.617500", "130504.117500", "130505.617500", "130507.117500", "130508.617500", "130510.117500", "130511.617500", "130513.117500", "130514.617500", "130516.117500", "130517.617500", "130519.117500", "130520.617500", "130522.117500", "130523.617500", "130525.117500", "130526.617500", "130528.117500", "130529.617500", "130531.117500", "130532.617500", "130534.117500", "130535.617500", "130537.117500", "130538.617500", "130540.117500", "130541.617500", "130543.117500", "130544.617500", "130546.117500", "130547.617500", "130549.117500", "130550.617500", "130552.117500", "130553.617500", "130555.117500", "130556.617500", "130558.117500", "130559.617500", "130601.117500", "130602.617500", "130604.117500", "130605.617500", "130607.117500", "130608.617500", "130610.117500", "130611.617500", "130613.117500", "130614.617500", "130616.117500", "130617.617500", "130619.117500", "130620.617500", "130622.117500", "130623.617500", "130625.117500", "130626.617500", "130628.117500", "130629.617500", "130631.117500", "130632.617500", "130634.117500", "130635.617500", "130637.117500", "130638.617500", "130640.117500", "130641.617500", "130643.117500", "130644.617500", "130646.117500", "130647.617500", "130649.117500", "130650.617500", "130652.117500", "130653.617500", "130655.117500", "130656.617500", "130658.117500", "130659.617500", "130701.117500", "130702.617500", "130704.117500", "130705.617500", "130707.117500", "130708.617500", "130710.117500", "130711.617500", "130713.117500", "130714.617500", "130716.117500", "130717.617500", "130719.117500", "130720.617500", "130722.117500", "130723.617500", "130725.117500", "130726.617500", "130728.117500", "130729.617500", "130731.117500", "130732.617500", "130734.117500", "130735.617500", "130737.117500", "130738.617500", "130740.117500", "130741.617500", "130743.117500", "130744.617500", "130746.117500", "130747.617500", "130749.117500", "130750.617500", "130752.117500", "130753.617500", "130755.117500", "130756.617500", "130758.117500", "130759.617500", "130801.117500", "130802.617500", "130804.117500", "130805.617500", "130807.117500", "130808.617500", "130810.117500", "130811.617500", "130813.117500", "130814.617500", "130816.117500", "130817.617500", "130819.117500", "130820.617500", "130822.117500", "130823.617500", "130825.117500", "130826.617500", "130828.117500", "130829.617500", "130831.117500", "130832.617500", "130834.117500", "130835.617500", "130837.117500", "130838.617500", "130840.117500", "130841.617500", "130843.117500", "130844.617500", "130846.117500", "130847.617500", "130849.117500", "130850.617500", "130852.117500", "130853.617500", "130855.117500", "130856.617500", "130858.117500", "130859.617500", "130901.117500", "130902.617500", "130904.117500", "130905.617500", "130907.117500", "130908.617500", "130910.117500", "130911.617500", "130913.117500", "130914.617500", "130916.117500", "130917.617500", "130919.117500", "130920.617500", "130922.117500", "130923.617500", "130925.117500", "130926.617500", "130928.117500", "130929.617500", "130931.117500", "130932.617500", "130934.117500", "130935.617500", "130937.117500", "130938.617500", "130940.117500", "130941.617500", "130943.117500", "130944.617500", "130946.117500", "130947.617500", "130949.117500", "130950.617500", "130952.117500", "130953.617500", "130955.117500", "130956.617500", "130958.117500", "130959.617500", "131001.117500", "131002.617500", "131004.117500", "131005.617500", "131007.117500", "131008.617500", "131010.117500", "131011.617500", "131013.117500", "131014.617500", "131016.117500", "131017.617500", "131019.117500", "131020.617500", "131022.117500", "131023.617500", "131025.117500", "131026.617500", "131028.117500", "131029.617500", "131031.117500", "131032.617500", "131034.117500", "131035.617500", "131037.117500", "131038.617500", "131040.117500", "131041.617500", "131043.117500", "131044.617500", "131046.117500", "131047.617500", "131049.117500", "131050.617500", "131052.117500", "131053.617500", "131055.117500", "131056.617500", "131058.117500", "131059.617500", "131101.117500", "131102.617500", "131104.117500", "131105.617500", "131107.117500", "131108.617500", "131110.117500", "131111.617500", "131113.117500", "131114.617500", "131116.117500", "131117.617500", "131119.117500", "131120.617500", "131122.117500", "131123.617500", "131125.117500", "131126.617500", "131128.117500", "131129.617500", "131131.117500", "131132.617500", "131134.117500", "131135.617500", "131137.117500", "131138.617500", "131140.117500", "131141.617500", "131143.117500", "131144.617500", "131146.117500", "131147.617500", "131149.117500", "131150.617500", "131152.117500", "131153.617500", "131155.117500", "131156.617500", "131158.117500", "131159.617500", "131201.117500", "131202.617500", "131204.117500", "131205.617500", "131207.117500", "131208.617500", "131210.117500", "131211.617500", "131213.117500", "131214.617500", "131216.117500", "131217.617500", "131219.117500", "131220.617500", "131222.117500", "131223.617500", "131225.117500", "131226.617500", "131228.117500", "131229.617500", "131231.117500", "131232.617500", "131234.117500", "131235.617500", "131237.117500", "131238.617500", "131240.117500", "131241.617500", "131243.117500", "131244.617500", "131246.117500", "131247.617500", "131249.117500", "131250.617500", "131252.117500", "131253.617500", "131255.117500", "131256.617500", "131258.117500", "131259.617500", "131301.117500", "131302.617500", "131304.117500", "131305.617500", "131307.117500", "131308.617500", "131310.117500", "131311.617500", "131313.117500", "131314.617500", "131316.117500", "131317.617500", "131319.117500", "131320.617500", "131322.117500", "131323.617500", "131325.117500", "131326.617500", "131328.117500", "131329.617500", "131331.117500", "131332.617500", "131334.117500", "131335.617500", "131337.117500", "131338.617500", "131340.117500", "131341.617500", "131343.117500", "131344.617500", "131346.117500", "131347.617500", "131349.117500", "131350.617500", "131352.117500", "131353.617500", "131355.117500", "131356.617500", "131358.117500", "131359.617500", "131401.117500", "131402.617500", "131404.117500", "131405.617500", "131407.117500", "131408.617500", "131410.117500", "131411.617500", "131413.117500", "131414.617500", "131416.117500", "131417.617500", "131419.117500", "131420.617500", "131422.117500", "131423.617500", "131425.117500", "131426.617500", "131428.117500", "131429.617500", "131431.117500", "131432.617500", "131434.117500", "131435.617500", "131437.117500", "131438.617500", "131440.117500", "131441.617500", "131443.117500", "131444.617500", "131446.117500", "131447.617500", "131449.117500", "131450.617500", "131452.117500", "131453.617500", "131455.117500", "131456.617500", "131458.117500", "131459.617500", "131501.117500", "131502.617500", "131504.117500", "131505.617500", "131507.117500", "131508.617500", "131510.117500", "131511.617500", "131513.117500", "131514.617500", "131516.117500", "131517.617500", "131519.117500", "131520.617500", "131522.117500", "131523.617500", "131525.117500", "131526.617500", "131528.117500", "131529.617500", "131531.117500", "131532.617500", "131534.117500", "131535.617500", "131537.117500", "131538.617500", "131540.117500", "131541.617500", "131543.117500", "131544.617500", "131546.117500", "131547.617500", "131549.117500", "131550.617500", "131552.117500", "131553.617500", "131555.117500", "131556.617500", "131558.117500", "131559.617500", "131601.117500", "131602.617500", "131604.117500", "131605.617500", "131607.117500", "131608.617500", "131610.117500", "131611.617500", "131613.117500", "131614.617500", "131616.117500", "131617.617500", "131619.117500", "131620.617500", "131622.117500", "131623.617500", "131625.117500", "131626.617500", "131628.117500", "13162