{
  "AcquisitionMatrixPE": 106,
  "AcquisitionNumber": 1,
  "AcquisitionTime": "11:10:0.800000",
  "BandwidthPerPixelPhaseEncode": 16.846,
  "BaseResolution": 106,
  "BodyPartExamined": "BRAIN",
  "CoilCombinationMethod": "Sum of Squares",
  "ConsistencyInfo": "N4_VE11C_LATEST_20160120",
  "ConversionSoftware": "dcm2niix",
  "ConversionSoftwareVersion": "v1.0.20220720",
  "DerivedVendorReportedEchoSpacing": 0.000560012,
  "DeviceSerialNumber": "166108",
  "DwellTime": 1.8e-06,
  "EchoTime": 0.0352,
  "EchoTrainLength": 106,
  "EffectiveEchoSpacing": 0.000560012,
  "FlipAngle": 60,
  "HeudiconvVersion": "1.3.0",
  "ImageComments": "Unaliased MB4/PE3/LB",
  "ImageOrientationPatientDICOM": [1, 0, 0, 0, 1, 0],
  "ImageOrientationText": "Tra",
  "ImageType": [
    "ORIGINAL",
    "PRIMARY",
    "M",
    "MB",
    "ND",
    "MOSAIC"
],
  "ImagingFrequency": 123.244,
  "InPlanePhaseEncodingDirectionDICOM": "COL",
  "InstitutionAddress": "Bedford Way 26,London,London,GB,WC1H 0AP",
  "InstitutionName": "University College",
  "InstitutionalDepartmentName": "Department",
  "MRAcquisitionType": "2D",
  "MagneticFieldStrength": 3,
  "Manufacturer": "Siemens",
  "ManufacturersModelName": "Prisma",
  "MatrixCoilMode": "SENSE",
  "Modality": "MR",
  "MultibandAccelerationFactor": 4,
  "NonlinearGradientCorrection": false,
  "PartialFourier": 1,
  "PatientPosition": "HFS",
  "PercentPhaseFOV": 100,
  "PercentSampling": 100,
  "PhaseEncodingDirection": "j-",
  "PhaseEncodingSteps": 106,
  "PhaseResolution": 1,
  "PixelBandwidth": 2620,
  "ProcedureStepDescription": "Egor^MovieProject2",
  "ProtocolName": "task-backtothefuture_run-1",
  "PulseSequenceDetails": "%CustomerSeq%\\cmrr_mbep2d_bold",
  "ReceiveCoilActiveElements": "HEA;HEP",
  "ReceiveCoilName": "Head_32",
  "ReconMatrixPE": 106,
  "RepetitionTime": 1.5,
  "SAR": 0.0881456,
  "ScanOptions": "FS\\EXT",
  "ScanningSequence": "EP",
  "SequenceName": "epfid2d1_106",
  "SequenceVariant": "SK\\SS",
  "SeriesDescription": "task-backtothefuture_run-1",
  "SeriesNumber": 3,
  "ShimSetting": [-1514, 600, 7457, 336, -41, 143, 122, -71],
  "SliceThickness": 2,
  "SliceTiming": [0, 1.07, 0.6575, 0.2475, 1.315, 0.905, 0.4925, 0.0825, 1.1525, 0.74, 0.33, 1.3975, 0.9875, 0.575, 0.165, 1.2325, 0.8225, 0.4125, 0, 1.07, 0.6575, 0.2475, 1.315, 0.905, 0.4925, 0.0825, 1.1525, 0.74, 0.33, 1.3975, 0.9875, 0.575, 0.165, 1.2325, 0.8225, 0.4125, 0, 1.07, 0.6575, 0.2475, 1.315, 0.905, 0.4925, 0.0825, 1.1525, 0.74, 0.33, 1.3975, 0.9875, 0.575, 0.165, 1.2325, 0.8225, 0.4125, 0, 1.07, 0.6575, 0.2475, 1.315, 0.905, 0.4925, 0.0825, 1.1525, 0.74, 0.33, 1.3975, 0.9875, 0.575, 0.165, 1.2325, 0.8225, 0.4125],
  "SoftwareVersions": "syngo MR E11",
  "SpacingBetweenSlices": 2,
  "StationName": "AWP166108",
  "TaskName": "backtothefuture",
  "TotalReadoutTime": 0.0588013,
  "TxRefAmp": 257.815,
  "WipMemBlock": "e69c4cb2-1fdc-483f-a51a-4363e8231347||Sequence: R016 ve11c/master r/e634e98; Dec 19 2017 11:00:25 by eja",
  "dcmmeta_affine": [
    [-2.0, 0.0, 0.0, 106.0],
    [0.0, 2.0, 0.0, -85.9277114868164],
    [0.0, 0.0, 2.0, -55.33734893798828],
    [0.0, 0.0, 0.0, 1.0]
],
  "dcmmeta_reorient_transform": [
    [0.0, -1.0, 0.0, 105.0],
    [1.0, 0.0, 0.0, 0.0],
    [0.0, 0.0, 1.0, 0.0],
    [0.0, 0.0, 0.0, 1.0]
],
  "dcmmeta_shape": [106, 106, 72, 1025],
  "dcmmeta_slice_dim": 2,
  "dcmmeta_version": 0.6,
  "global": {
    "const": {
      "AcquisitionMatrix": [106, 0, 0, 106],
      "AngioFlag": "N",
      "BitsAllocated": 16,
      "BitsStored": 16,
      "BodyPartExamined": "BRAIN",
      "CardiacNumberOfImages": 1,
      "Columns": 954,
      "EchoNumbers": 1,
      "EchoTime": 35.2,
      "EchoTrainLength": 106,
      "FlipAngle": 60.0,
      "HighBit": 15,
      "ImageOrientationPatient": [1.0, 0.0, 0.0, 0.0, 1.0, 0.0],
      "ImagePositionPatient": [-954.0, -972.07228851318, -55.337348937988],
      "ImageType": [
        "ORIGINAL",
        "PRIMARY",
        "M",
        "MB",
        "ND",
        "MOSAIC"
],
      "ImagedNucleus": "1H",
      "ImagingFrequency": 123.24363,
      "InPlanePhaseEncodingDirection": "COL",
      "MRAcquisitionType": "2D",
      "MagneticFieldStrength": 3.0,
      "Manufacturer": "SIEMENS",
      "ManufacturerModelName": "Prisma",
      "Modality": "MR",
      "NominalInterval": 0,
      "NumberOfAverages": 1.0,
      "NumberOfPhaseEncodingSteps": 106,
      "PercentPhaseFieldOfView": 100.0,
      "PercentSampling": 100.0,
      "PerformedProcedureStepStartTime": "103753.724000",
      "PhotometricInterpretation": "MONOCHROME2",
      "PixelBandwidth": 2620.0,
      "PixelRepresentation": 0,
      "PixelSpacing": [2.0, 2.0],
      "ProtocolName": "task-backtothefuture_run-1",
      "RepetitionTime": 1500.0,
      "Rows": 954,
      "SAR": 0.08814562076337,
      "SamplesPerPixel": 1,
      "ScanOptions": [
        "FS",
        "EXT"
],
      "ScanningSequence": "EP",
      "SequenceName": "epfid2d1_106",
      "SequenceVariant": [
        "SK",
        "SS"
],
      "SeriesDescription": "task-backtothefuture_run-1",
      "SeriesNumber": 3,
      "SeriesTime": "111042.323000",
      "SliceLocation": -55.337348937988,
      "SliceThickness": 2.0,
      "SmallestImagePixelValue": 0,
      "SoftwareVersions": "syngo MR E11",
      "SpacingBetweenSlices": 2.0,
      "SpecificCharacterSet": "ISO_IR 100",
      "StudyID": "1",
      "StudyTime": "103753.666000",
      "TransmitCoilName": "Body",
      "VariableFlipAngleFlag": "N",
      "WindowCenterWidthExplanation": "Algo1",
      "dBdt": 0.0},
    "slices": {}
  },
  "time": {
    "samples": {
      "AcquisitionNumber": [1, 2, 3, 4, 5, 6, 7, 8, 9, 10, 11, 12, 13, 14, 15, 16, 17, 18, 19, 20, 21, 22, 23, 24, 25, 26, 27, 28, 29, 30, 31, 32, 33, 34, 35, 36, 37, 38, 39, 40, 41, 42, 43, 44, 45, 46, 47, 48, 49, 50, 51, 52, 53, 54, 55, 56, 57, 58, 59, 60, 61, 62, 63, 64, 65, 66, 67, 68, 69, 70, 71, 72, 73, 74, 75, 76, 77, 78, 79, 80, 81, 82, 83, 84, 85, 86, 87, 88, 89, 90, 91, 92, 93, 94, 95, 96, 97, 98, 99, 100, 101, 102, 103, 104, 105, 106, 107, 108, 109, 110, 111, 112, 113, 114, 115, 116, 117, 118, 119, 120, 121, 122, 123, 124, 125, 126, 127, 128, 129, 130, 131, 132, 133, 134, 135, 136, 137, 138, 139, 140, 141, 142, 143, 144, 145, 146, 147, 148, 149, 150, 151, 152, 153, 154, 155, 156, 157, 158, 159, 160, 161, 162, 163, 164, 165, 166, 167, 168, 169, 170, 171, 172, 173, 174, 175, 176, 177, 178, 179, 180, 181, 182, 183, 184, 185, 186, 187, 188, 189, 190, 191, 192, 193, 194, 195, 196, 197, 198, 199, 200, 201, 202, 203, 204, 205, 206, 207, 208, 209, 210, 211, 212, 213, 214, 215, 216, 217, 218, 219, 220, 221, 222, 223, 224, 225, 226, 227, 228, 229, 230, 231, 232, 233, 234, 235, 236, 237, 238, 239, 240, 241, 242, 243, 244, 245, 246, 247, 248, 249, 250, 251, 252, 253, 254, 255, 256, 257, 258, 259, 260, 261, 262, 263, 264, 265, 266, 267, 268, 269, 270, 271, 272, 273, 274, 275, 276, 277, 278, 279, 280, 281, 282, 283, 284, 285, 286, 287, 288, 289, 290, 291, 292, 293, 294, 295, 296, 297, 298, 299, 300, 301, 302, 303, 304, 305, 306, 307, 308, 309, 310, 311, 312, 313, 314, 315, 316, 317, 318, 319, 320, 321, 322, 323, 324, 325, 326, 327, 328, 329, 330, 331, 332, 333, 334, 335, 336, 337, 338, 339, 340, 341, 342, 343, 344, 345, 346, 347, 348, 349, 350, 351, 352, 353, 354, 355, 356, 357, 358, 359, 360, 361, 362, 363, 364, 365, 366, 367, 368, 369, 370, 371, 372, 373, 374, 375, 376, 377, 378, 379, 380, 381, 382, 383, 384, 385, 386, 387, 388, 389, 390, 391, 392, 393, 394, 395, 396, 397, 398, 399, 400, 401, 402, 403, 404, 405, 406, 407, 408, 409, 410, 411, 412, 413, 414, 415, 416, 417, 418, 419, 420, 421, 422, 423, 424, 425, 426, 427, 428, 429, 430, 431, 432, 433, 434, 435, 436, 437, 438, 439, 440, 441, 442, 443, 444, 445, 446, 447, 448, 449, 450, 451, 452, 453, 454, 455, 456, 457, 458, 459, 460, 461, 462, 463, 464, 465, 466, 467, 468, 469, 470, 471, 472, 473, 474, 475, 476, 477, 478, 479, 480, 481, 482, 483, 484, 485, 486, 487, 488, 489, 490, 491, 492, 493, 494, 495, 496, 497, 498, 499, 500, 501, 502, 503, 504, 505, 506, 507, 508, 509, 510, 511, 512, 513, 514, 515, 516, 517, 518, 519, 520, 521, 522, 523, 524, 525, 526, 527, 528, 529, 530, 531, 532, 533, 534, 535, 536, 537, 538, 539, 540, 541, 542, 543, 544, 545, 546, 547, 548, 549, 550, 551, 552, 553, 554, 555, 556, 557, 558, 559, 560, 561, 562, 563, 564, 565, 566, 567, 568, 569, 570, 571, 572, 573, 574, 575, 576, 577, 578, 579, 580, 581, 582, 583, 584, 585, 586, 587, 588, 589, 590, 591, 592, 593, 594, 595, 596, 597, 598, 599, 600, 601, 602, 603, 604, 605, 606, 607, 608, 609, 610, 611, 612, 613, 614, 615, 616, 617, 618, 619, 620, 621, 622, 623, 624, 625, 626, 627, 628, 629, 630, 631, 632, 633, 634, 635, 636, 637, 638, 639, 640, 641, 642, 643, 644, 645, 646, 647, 648, 649, 650, 651, 652, 653, 654, 655, 656, 657, 658, 659, 660, 661, 662, 663, 664, 665, 666, 667, 668, 669, 670, 671, 672, 673, 674, 675, 676, 677, 678, 679, 680, 681, 682, 683, 684, 685, 686, 687, 688, 689, 690, 691, 692, 693, 694, 695, 696, 697, 698, 699, 700, 701, 702, 703, 704, 705, 706, 707, 708, 709, 710, 711, 712, 713, 714, 715, 716, 717, 718, 719, 720, 721, 722, 723, 724, 725, 726, 727, 728, 729, 730, 731, 732, 733, 734, 735, 736, 737, 738, 739, 740, 741, 742, 743, 744, 745, 746, 747, 748, 749, 750, 751, 752, 753, 754, 755, 756, 757, 758, 759, 760, 761, 762, 763, 764, 765, 766, 767, 768, 769, 770, 771, 772, 773, 774, 775, 776, 777, 778, 779, 780, 781, 782, 783, 784, 785, 786, 787, 788, 789, 790, 791, 792, 793, 794, 795, 796, 797, 798, 799, 800, 801, 802, 803, 804, 805, 806, 807, 808, 809, 810, 811, 812, 813, 814, 815, 816, 817, 818, 819, 820, 821, 822, 823, 824, 825, 826, 827, 828, 829, 830, 831, 832, 833, 834, 835, 836, 837, 838, 839, 840, 841, 842, 843, 844, 845, 846, 847, 848, 849, 850, 851, 852, 853, 854, 855, 856, 857, 858, 859, 860, 861, 862, 863, 864, 865, 866, 867, 868, 869, 870, 871, 872, 873, 874, 875, 876, 877, 878, 879, 880, 881, 882, 883, 884, 885, 886, 887, 888, 889, 890, 891, 892, 893, 894, 895, 896, 897, 898, 899, 900, 901, 902, 903, 904, 905, 906, 907, 908, 909, 910, 911, 912, 913, 914, 915, 916, 917, 918, 919, 920, 921, 922, 923, 924, 925, 926, 927, 928, 929, 930, 931, 932, 933, 934, 935, 936, 937, 938, 939, 940, 941, 942, 943, 944, 945, 946, 947, 948, 949, 950, 951, 952, 953, 954, 955, 956, 957, 958, 959, 960, 961, 962, 963, 964, 965, 966, 967, 968, 969, 970, 971, 972, 973, 974, 975, 976, 977, 978, 979, 980, 981, 982, 983, 984, 985, 986, 987, 988, 989, 990, 991, 992, 993, 994, 995, 996, 997, 998, 999, 1000, 1001, 1002, 1003, 1004, 1005, 1006, 1007, 1008, 1009, 1010, 1011, 1012, 1013, 1014, 1015, 1016, 1017, 1018, 1019, 1020, 1021, 1022, 1023, 1024, 1025],
      "AcquisitionTime": ["111000.800000", "111002.300000", "111003.800000", "111005.300000", "111006.800000", "111008.300000", "111009.800000", "111011.300000", "111012.800000", "111014.300000", "111015.800000", "111017.300000", "111018.800000", "111020.300000", "111021.800000", "111023.300000", "111024.800000", "111026.300000", "111027.800000", "111029.300000", "111030.800000", "111032.300000", "111033.800000", "111035.300000", "111036.800000", "111038.300000", "111039.800000", "111041.300000", "111042.800000", "111044.300000", "111045.800000", "111047.300000", "111048.800000", "111050.300000", "111051.800000", "111053.300000", "111054.800000", "111056.300000", "111057.800000", "111059.300000", "111100.800000", "111102.300000", "111103.800000", "111105.300000", "111106.800000", "111108.300000", "111109.800000", "111111.300000", "111112.800000", "111114.300000", "111115.800000", "111117.300000", "111118.800000", "111120.300000", "111121.800000", "111123.300000", "111124.800000", "111126.300000", "111127.800000", "111129.300000", "111130.800000", "111132.300000", "111133.800000", "111135.300000", "111136.800000", "111138.300000", "111139.800000", "111141.300000", "111142.800000", "111144.300000", "111145.800000", "111147.300000", "111148.800000", "111150.300000", "111151.800000", "111153.300000", "111154.800000", "111156.300000", "111157.800000", "111159.300000", "111200.800000", "111202.300000", "111203.800000", "111205.300000", "111206.800000", "111208.300000", "111209.800000", "111211.300000", "111212.800000", "111214.300000", "111215.800000", "111217.300000", "111218.800000", "111220.300000", "111221.800000", "111223.300000", "111224.800000", "111226.300000", "111227.800000", "111229.300000", "111230.800000", "111232.300000", "111233.800000", "111235.300000", "111236.800000", "111238.300000", "111239.800000", "111241.300000", "111242.800000", "111244.300000", "111245.800000", "111247.300000", "111248.800000", "111250.300000", "111251.800000", "111253.300000", "111254.800000", "111256.300000", "111257.800000", "111259.300000", "111300.800000", "111302.300000", "111303.800000", "111305.300000", "111306.800000", "111308.300000", "111309.800000", "111311.300000", "111312.800000", "111314.300000", "111315.800000", "111317.300000", "111318.800000", "111320.300000", "111321.800000", "111323.300000", "111324.800000", "111326.300000", "111327.800000", "111329.300000", "111330.800000", "111332.300000", "111333.800000", "111335.300000", "111336.800000", "111338.300000", "111339.800000", "111341.300000", "111342.800000", "111344.300000", "111345.800000", "111347.300000", "111348.800000", "111350.300000", "111351.800000", "111353.300000", "111354.800000", "111356.300000", "111357.800000", "111359.300000", "111400.800000", "111402.300000", "111403.800000", "111405.300000", "111406.800000", "111408.300000", "111409.800000", "111411.300000", "111412.800000", "111414.300000", "111415.800000", "111417.300000", "111418.800000", "111420.300000", "111421.800000", "111423.300000", "111424.800000", "111426.300000", "111427.800000", "111429.300000", "111430.800000", "111432.300000", "111433.800000", "111435.300000", "111436.800000", "111438.300000", "111439.800000", "111441.300000", "111442.800000", "111444.300000", "111445.800000", "111447.300000", "111448.800000", "111450.300000", "111451.800000", "111453.300000", "111454.800000", "111456.300000", "111457.800000", "111459.300000", "111500.800000", "111502.300000", "111503.800000", "111505.300000", "111506.800000", "111508.300000", "111509.800000", "111511.300000", "111512.800000", "111514.300000", "111515.800000", "111517.300000", "111518.800000", "111520.300000", "111521.800000", "111523.300000", "111524.800000", "111526.300000", "111527.800000", "111529.300000", "111530.800000", "111532.300000", "111533.800000", "111535.300000", "111536.800000", "111538.300000", "111539.800000", "111541.300000", "111542.800000", "111544.300000", "111545.800000", "111547.300000", "111548.800000", "111550.300000", "111551.800000", "111553.300000", "111554.800000", "111556.300000", "111557.800000", "111559.300000", "111600.800000", "111602.300000", "111603.800000", "111605.300000", "111606.800000", "111608.300000", "111609.800000", "111611.300000", "111612.800000", "111614.300000", "111615.800000", "111617.300000", "111618.800000", "111620.300000", "111621.800000", "111623.300000", "111624.800000", "111626.300000", "111627.800000", "111629.300000", "111630.800000", "111632.300000", "111633.800000", "111635.300000", "111636.800000", "111638.300000", "111639.800000", "111641.300000", "111642.800000", "111644.300000", "111645.800000", "111647.300000", "111648.800000", "111650.300000", "111651.800000", "111653.300000", "111654.800000", "111656.300000", "111657.800000", "111659.300000", "111700.800000", "111702.300000", "111703.800000", "111705.300000", "111706.800000", "111708.300000", "111709.800000", "111711.300000", "111712.800000", "111714.300000", "111715.800000", "111717.300000", "111718.800000", "111720.300000", "111721.800000", "111723.300000", "111724.800000", "111726.300000", "111727.800000", "111729.300000", "111730.800000", "111732.300000", "111733.800000", "111735.300000", "111736.800000", "111738.300000", "111739.800000", "111741.300000", "111742.800000", "111744.300000", "111745.800000", "111747.300000", "111748.800000", "111750.300000", "111751.800000", "111753.300000", "111754.800000", "111756.300000", "111757.800000", "111759.300000", "111800.800000", "111802.300000", "111803.800000", "111805.300000", "111806.800000", "111808.300000", "111809.800000", "111811.300000", "111812.800000", "111814.300000", "111815.800000", "111817.300000", "111818.800000", "111820.300000", "111821.800000", "111823.300000", "111824.800000", "111826.300000", "111827.800000", "111829.300000", "111830.800000", "111832.300000", "111833.800000", "111835.300000", "111836.800000", "111838.300000", "111839.800000", "111841.300000", "111842.800000", "111844.300000", "111845.800000", "111847.300000", "111848.800000", "111850.300000", "111851.800000", "111853.300000", "111854.800000", "111856.300000", "111857.800000", "111859.300000", "111900.800000", "111902.300000", "111903.800000", "111905.300000", "111906.800000", "111908.300000", "111909.800000", "111911.300000", "111912.800000", "111914.300000", "111915.800000", "111917.300000", "111918.800000", "111920.300000", "111921.800000", "111923.300000", "111924.800000", "111926.300000", "111927.800000", "111929.300000", "111930.800000", "111932.300000", "111933.800000", "111935.300000", "111936.800000", "111938.300000", "111939.800000", "111941.300000", "111942.800000", "111944.300000", "111945.800000", "111947.300000", "111948.800000", "111950.300000", "111951.800000", "111953.300000", "111954.800000", "111956.300000", "111957.800000", "111959.300000", "112000.800000", "112002.300000", "112003.800000", "112005.300000", "112006.800000", "112008.300000", "112009.800000", "112011.300000", "112012.800000", "112014.300000", "112015.800000", "112017.300000", "112018.800000", "112020.300000", "112021.800000", "112023.300000", "112024.800000", "112026.300000", "112027.800000", "112029.300000", "112030.800000", "112032.300000", "112033.800000", "112035.300000", "112036.800000", "112038.300000", "112039.800000", "112041.300000", "112042.800000", "112044.300000", "112045.800000", "112047.300000", "112048.800000", "112050.300000", "112051.800000", "112053.300000", "112054.800000", "112056.300000", "112057.800000", "112059.300000", "112100.800000", "112102.300000", "112103.800000", "112105.300000", "112106.800000", "112108.300000", "112109.800000", "112111.300000", "112112.800000", "112114.300000", "112115.800000", "112117.300000", "112118.800000", "112120.300000", "112121.800000", "112123.300000", "112124.800000", "112126.300000", "112127.800000", "112129.300000", "112130.800000", "112132.300000", "112133.800000", "112135.300000", "112136.800000", "112138.300000", "112139.800000", "112141.300000", "112142.800000", "112144.300000", "112145.800000", "112147.300000", "112148.800000", "112150.300000", "112151.800000", "112153.300000", "112154.800000", "112156.300000", "112157.800000", "112159.300000", "112200.800000", "112202.300000", "112203.800000", "112205.300000", "112206.800000", "112208.300000", "112209.800000", "112211.300000", "112212.800000", "112214.300000", "112215.800000", "112217.300000", "112218.800000", "112220.300000", "112221.800000", "112223.300000", "112224.800000", "112226.300000", "112227.800000", "112229.300000", "112230.800000", "112232.300000", "112233.800000", "112235.300000", "112236.800000", "112238.300000", "112239.800000", "112241.300000", "112242.800000", "112244.300000", "112245.800000", "112247.300000", "112248.800000", "112250.300000", "112251.800000", "112253.300000", "112254.800000", "112256.300000", "112257.800000", "112259.300000", "112300.800000", "112302.300000", "112303.800000", "112305.300000", "112306.800000", "112308.300000", "112309.800000", "112311.300000", "112312.800000", "112314.300000", "112315.800000", "112317.300000", "112318.800000", "112320.300000", "112321.800000", "112323.300000", "112324.800000", "112326.300000", "112327.800000", "112329.300000", "112330.800000", "112332.300000", "112333.800000", "112335.300000", "112336.800000", "112338.300000", "112339.800000", "112341.300000", "112342.800000", "112344.300000", "112345.800000", "112347.300000", "112348.800000", "112350.300000", "112351.800000", "112353.300000", "112354.800000", "112356.300000", "112357.800000", "112359.300000", "112400.800000", "112402.300000", "112403.800000", "112405.300000", "112406.800000", "112408.300000", "112409.800000", "112411.300000", "112412.800000", "112414.300000", "112415.800000", "112417.300000", "112418.800000", "112420.300000", "112421.800000", "112423.300000", "112424.800000", "112426.300000", "112427.800000", "112429.300000", "112430.800000", "112432.300000", "112433.800000", "112435.300000", "112436.800000", "112438.300000", "112439.800000", "112441.300000", "112442.800000", "112444.300000", "112445.800000", "112447.300000", "112448.800000", "112450.300000", "112451.800000", "112453.300000", "112454.800000", "112456.300000", "112457.800000", "112459.300000", "112500.800000", "112502.300000", "112503.800000", "112505.300000", "112506.800000", "112508.300000", "112509.800000", "112511.300000", "112512.800000", "112514.300000", "112515.800000", "112517.300000", "112518.800000", "112520.300000", "112521.800000", "112523.300000", "112524.800000", "112526.300000", "112527.800000", "112529.300000", "112530.800000", "112532.300000", "112533.800000", "112535.300000", "112536.800000", "112538.300000", "112539.800000", "112541.300000", "112542.800000", "112544.300000", "112545.800000", "112547.300000", "112548.800000", "112550.300000", "112551.800000", "112553.300000", "112554.800000", "112556.300000", "112557.800000", "112559.300000", "112600.800000", "112602.300000", "112603.800000", "112605.300000", "112606.800000", "112608.300000", "112609.800000", "112611.300000", "112612.800000", "112614.300000", "112615.800000", "112617.300000", "112618.800000", "112620.300000", "112621.800000", "112623.300000", "112624.800000", "112626.300000", "112627.800000", "112629.300000", "112630.800000", "112632.300000", "112633.800000", "112635.300000", "112636.800000", "112638.300000", "112639.800000", "112641.300000", "112642.800000", "112644.300000", "112645.800000", "112647.300000", "112648.800000", "112650.300000", "112651.800000", "112653.300000", "112654.800000", "112656.300000", "112657.800000", "112659.300000", "112700.800000", "112702.300000", "112703.800000", "112705.300000", "112706.800000", "112708.300000", "112709.800000", "112711.300000", "112712.800000", "112714.300000", "112715.800000", "112717.300000", "112718.800000", "112720.300000", "112721.800000", "112723.300000", "112724.800000", "112726.300000", "112727.800000", "112729.300000", "112730.800000", "112732.300000", "112733.800000", "112735.300000", "112736.800000", "112738.300000", "112739.800000", "112741.300000", "112742.800000", "112744.300000", "112745.800000", "112747.300000", "112748.800000", "112750.300000", "112751.800000", "112753.300000", "112754.800000", "112756.300000", "112757.800000", "112759.300000", "112800.800000", "112802.300000", "112803.800000", "112805.300000", "112806.800000", "112808.300000", "112809.800000", "112811.300000", "112812.800000", "112814.300000", "112815.800000", "112817.300000", "112818.800000", "112820.300000", "112821.800000", "112823.300000", "112824.800000", "112826.300000", "112827.800000", "112829.300000", "112830.800000", "112832.300000", "112833.800000", "112835.300000", "112836.800000", "112838.300000", "112839.800000", "112841.300000", "112842.800000", "112844.300000", "112845.800000", "112847.300000", "112848.800000", "112850.300000", "112851.800000", "112853.300000", "112854.800000", "112856.300000", "112857.800000", "112859.300000", "112900.800000", "112902.300000", "112903.800000", "112905.300000", "112906.800000", "112908.300000", "112909.800000", "112911.300000", "112912.800000", "112914.300000", "112915.800000", "112917.300000", "112918.800000", "112920.300000", "112921.800000", "112923.300000", "112924.800000", "112926.300000", "112927.800000", "112929.300000", "112930.800000", "112932.300000", "112933.800000", "112935.300000", "112936.800000", "112938.300000", "112939.800000", "112941.300000", "112942.800000", "112944.300000", "112945.800000", "112947.300000", "112948.800000", "112950.300000", "112951.800000", "112953.300000", "112954.800000", "112956.300000", "112957.800000", "112959.300000", "113000.800000", "113002.300000", "113003.800000", "113005.300000", "113006.800000", "113008.300000", "113009.800000", "113011.300000", "113012.800000", "113014.300000", "113015.800000", "113017.300000", "113018.800000", "113020.300000", "113021.800000", "113023.300000", "113024.800000", "113026.300000", "113027.800000", "113029.300000", "113030.800000", "113032.300000", "113033.800000", "113035.300000", "113036.800000", "113038.300000", "113039.800000", "113041.300000", "113042.800000", "113044.300000", "113045.800000", "113047.300000", "113048.800000", "113050.300000", "113051.800000", "113053.300000", "113054.800000", "113056.300000", "113057.800000", "113059.300000", "113100.800000", "113102.300000", "113103.800000", "113105.300000", "113106.800000", "113108.300000", "113109.800000", "113111.300000", "113112.800000", "113114.300000", "113115.800000", "113117.300000", "113118.800000", "113120.300000", "113121.800000", "113123.300000", "113124.800000", "113126.300000", "113127.800000", "113129.300000", "113130.800000", "113132.300000", "113133.800000", "113135.300000", "113136.800000", "113138.300000", "113139.800000", "113141.300000", "113142.800000", "113144.300000", "113145.800000", "113147.300000", "113148.800000", "113150.300000", "113151.800000", "113153.300000", "113154.800000", "113156.300000", "113157.800000", "113159.300000", "113200.800000", "113202.300000", "113203.800000", "113205.300000", "113206.800000", "113208.300000", "113209.800000", "113211.300000", "113212.800000", "113214.300000", "113215.800000", "113217.300000", "113218.800000", "113220.300000", "113221.800000", "113223.300000", "113224.800000", "113226.300000", "113227.800000", "113229.300000", "113230.800000", "113232.300000", "113233.800000", "113235.300000", "113236.800000", "113238.300000", "113239.800000", "113241.300000", "113242.800000", "113244.300000", "113245.800000", "113247.300000", "113248.800000", "113250.300000", "113251.800000", "113253.300000", "113254.800000", "113256.300000", "113257.800000", "113259.300000", "113300.800000", "113302.300000", "113303.800000", "113305.300000", "113306.800000", "113308.300000", "113309.800000", "113311.300000", "113312.800000", "113314.300000", "113315.800000", "113317.300000", "113318.800000", "113320.300000", "113321.800000", "113323.300000", "113324.800000", "113326.300000", "113327.800000", "113329.300000", "113330.800000", "113332.300000", "113333.800000", "113335.300000", "113336.800000", "113338.300000", "113339.800000", "113341.300000", "113342.800000", "113344.300000", "113345.800000", "113347.300000", "113348.800000", "113350.300000", "113351.800000", "113353.300000", "113354.800000", "113356.300000", "113357.800000", "113359.300000", "113400.800000", "113402.300000", "113403.800000", "113405.300000", "113406.800000", "113408.300000", "113409.800000", "113411.300000", "113412.800000", "113414.300000", "113415.800000", "113417.300000", "113418.800000", "113420.300000", "113421.800000", "113423.300000", "113424.800000", "113426.300000", "113427.800000", "113429.300000", "113430.800000", "113432.300000", "113433.800000", "113435.300000", "113436.800000", "113438.300000", "113439.800000", "113441.300000", "113442.800000", "113444.300000", "113445.800000", "113447.300000", "113448.800000", "113450.300000", "113451.800000", "113453.300000", "113454.800000", "113456.300000", "113457.800000", "113459.300000", "113500.800000", "113502.300000", "113503.800000", "113505.300000", "113506.800000", "113508.300000", "113509.800000", "113511.300000", "113512.800000", "113514.300000", "113515.800000", "113517.300000", "113518.800000", "113520.300000", "113521.800000", "113523.300000", "113524.800000", "113526.300000", "113527.800000", "113529.300000", "113530.800000", "113532.300000", "113533.800000", "113535.300000", "113536.800000"],
