{
  "AcquisitionMatrixPE": 106,
  "AcquisitionNumber": 1,
  "AcquisitionTime": "19:10:56.622500",
  "BandwidthPerPixelPhaseEncode": 16.846,
  "BaseResolution": 106,
  "BodyPartExamined": "BRAIN",
  "CoilCombinationMethod": "Sum of Squares",
  "ConsistencyInfo": "N4_VE11C_LATEST_20160120",
  "ConversionSoftware": "dcm2niix",
  "ConversionSoftwareVersion": "v1.0.20220720",
  "DerivedVendorReportedEchoSpacing": 0.000560012,
  "DeviceSerialNumber": "166108",
  "DwellTime": 1.8e-06,
  "EchoTime": 0.0352,
  "EchoTrainLength": 106,
  "EffectiveEchoSpacing": 0.000560012,
  "FlipAngle": 60,
  "HeudiconvVersion": "1.3.0",
  "ImageComments": "Unaliased MB4/PE3/LB",
  "ImageOrientationPatientDICOM": [1, 0, 0, 0, 1, 0],
  "ImageOrientationText": "Tra",
  "ImageType": [
    "ORIGINAL",
    "PRIMARY",
    "M",
    "MB",
    "ND",
    "MOSAIC"
],
  "ImagingFrequency": 123.244,
  "InPlanePhaseEncodingDirectionDICOM": "COL",
  "InstitutionAddress": "Bedford Way 26,London,London,GB,WC1H 0AP",
  "InstitutionName": "University College",
  "InstitutionalDepartmentName": "Department",
  "MRAcquisitionType": "2D",
  "MagneticFieldStrength": 3,
  "Manufacturer": "Siemens",
  "ManufacturersModelName": "Prisma",
  "MatrixCoilMode": "SENSE",
  "Modality": "MR",
  "MultibandAccelerationFactor": 4,
  "NonlinearGradientCorrection": false,
  "PartialFourier": 1,
  "PatientPosition": "HFS",
  "PercentPhaseFOV": 100,
  "PercentSampling": 100,
  "PhaseEncodingDirection": "j-",
  "PhaseEncodingSteps": 106,
  "PhaseResolution": 1,
  "PixelBandwidth": 2620,
  "ProcedureStepDescription": "Egor^MovieProject2",
  "ProtocolName": "task-backtothefuture_run-1",
  "PulseSequenceDetails": "%CustomerSeq%\\cmrr_mbep2d_bold",
  "ReceiveCoilActiveElements": "HEA;HEP",
  "ReceiveCoilName": "Head_32",
  "ReconMatrixPE": 106,
  "RepetitionTime": 1.5,
  "SAR": 0.0749262,
  "ScanOptions": "FS\\EXT",
  "ScanningSequence": "EP",
  "SequenceName": "epfid2d1_106",
  "SequenceVariant": "SK\\SS",
  "SeriesDescription": "task-backtothefuture_run-1",
  "SeriesNumber": 6,
  "ShimSetting": [-1582, 608, 7456, 505, -111, 136, 86, 6],
  "SliceThickness": 2,
  "SliceTiming": [0, 1.0675, 0.6575, 0.245, 1.315, 0.905, 0.4925, 0.0825, 1.15, 0.74, 0.3275, 1.3975, 0.985, 0.575, 0.165, 1.2325, 0.8225, 0.41, 0, 1.0675, 0.6575, 0.245, 1.315, 0.905, 0.4925, 0.0825, 1.15, 0.74, 0.3275, 1.3975, 0.985, 0.575, 0.165, 1.2325, 0.8225, 0.41, 0, 1.0675, 0.6575, 0.245, 1.315, 0.905, 0.4925, 0.0825, 1.15, 0.74, 0.3275, 1.3975, 0.985, 0.575, 0.165, 1.2325, 0.8225, 0.41, 0, 1.0675, 0.6575, 0.245, 1.315, 0.905, 0.4925, 0.0825, 1.15, 0.74, 0.3275, 1.3975, 0.985, 0.575, 0.165, 1.2325, 0.8225, 0.41],
  "SoftwareVersions": "syngo MR E11",
  "SpacingBetweenSlices": 2,
  "StationName": "AWP166108",
  "TaskName": "backtothefuture",
  "TotalReadoutTime": 0.0588013,
  "TxRefAmp": 222.486,
  "WipMemBlock": "f3f6dab2-3ff1-41b5-8265-87101cdb3710||Sequence: R016 ve11c/master r/e634e98; Dec 19 2017 11:00:25 by eja",
  "dcmmeta_affine": [
    [-2.0, 0.0, 0.0, 106.0],
    [0.0, 2.0, 0.0, -92.55421447753906],
    [0.0, 0.0, 2.0, -50.51807403564453],
    [0.0, 0.0, 0.0, 1.0]
],
  "dcmmeta_reorient_transform": [
    [0.0, -1.0, 0.0, 105.0],
    [1.0, 0.0, 0.0, 0.0],
    [0.0, 0.0, 1.0, 0.0],
    [0.0, 0.0, 0.0, 1.0]
],
  "dcmmeta_shape": [106, 106, 72, 1360],
  "dcmmeta_slice_dim": 2,
  "dcmmeta_version": 0.6,
  "global": {
    "const": {
      "AcquisitionMatrix": [106, 0, 0, 106],
      "AngioFlag": "N",
      "BitsAllocated": 16,
      "BitsStored": 16,
      "BodyPartExamined": "BRAIN",
      "CardiacNumberOfImages": 1,
      "Columns": 954,
      "EchoNumbers": 1,
      "EchoTime": 35.2,
      "EchoTrainLength": 106,
      "FlipAngle": 60.0,
      "HighBit": 15,
      "ImageOrientationPatient": [1.0, 0.0, 0.0, 0.0, 1.0, 0.0],
      "ImagePositionPatient": [-954.0, -965.44578266144, -50.518074035645],
      "ImageType": [
        "ORIGINAL",
        "PRIMARY",
        "M",
        "MB",
        "ND",
        "MOSAIC"
],
      "ImagedNucleus": "1H",
      "ImagingFrequency": 123.24368,
      "InPlanePhaseEncodingDirection": "COL",
      "MRAcquisitionType": "2D",
      "MagneticFieldStrength": 3.0,
      "Manufacturer": "SIEMENS",
      "ManufacturerModelName": "Prisma",
      "Modality": "MR",
      "NominalInterval": 0,
      "NumberOfAverages": 1.0,
      "NumberOfPhaseEncodingSteps": 106,
      "PercentPhaseFieldOfView": 100.0,
      "PercentSampling": 100.0,
      "PerformedProcedureStepStartTime": "174704.061000",
      "PhotometricInterpretation": "MONOCHROME2",
      "PixelBandwidth": 2620.0,
      "PixelRepresentation": 0,
      "PixelSpacing": [2.0, 2.0],
      "ProtocolName": "task-backtothefuture_run-1",
      "RepetitionTime": 1500.0,
      "Rows": 954,
      "SAR": 0.07492619961654,
      "SamplesPerPixel": 1,
      "ScanOptions": [
        "FS",
        "EXT"
],
      "ScanningSequence": "EP",
      "SequenceName": "epfid2d1_106",
      "SequenceVariant": [
        "SK",
        "SS"
],
      "SeriesDescription": "task-backtothefuture_run-1",
      "SeriesNumber": 6,
      "SeriesTime": "191137.450000",
      "SliceLocation": -50.518074035645,
      "SliceThickness": 2.0,
      "SmallestImagePixelValue": 0,
      "SoftwareVersions": "syngo MR E11",
      "SpacingBetweenSlices": 2.0,
      "SpecificCharacterSet": "ISO_IR 100",
      "StudyID": "1",
      "StudyTime": "174703.990000",
      "TransmitCoilName": "Body",
      "VariableFlipAngleFlag": "N",
      "WindowCenterWidthExplanation": "Algo1",
      "dBdt": 0.0},
    "slices": {}
  },
  "time": {
    "samples": {
      "AcquisitionNumber": [1, 2, 3, 4, 5, 6, 7, 8, 9, 10, 11, 12, 13, 14, 15, 16, 17, 18, 19, 20, 21, 22, 23, 24, 25, 26, 27, 28, 29, 30, 31, 32, 33, 34, 35, 36, 37, 38, 39, 40, 41, 42, 43, 44, 45, 46, 47, 48, 49, 50, 51, 52, 53, 54, 55, 56, 57, 58, 59, 60, 61, 62, 63, 64, 65, 66, 67, 68, 69, 70, 71, 72, 73, 74, 75, 76, 77, 78, 79, 80, 81, 82, 83, 84, 85, 86, 87, 88, 89, 90, 91, 92, 93, 94, 95, 96, 97, 98, 99, 100, 101, 102, 103, 104, 105, 106, 107, 108, 109, 110, 111, 112, 113, 114, 115, 116, 117, 118, 119, 120, 121, 122, 123, 124, 125, 126, 127, 128, 129, 130, 131, 132, 133, 134, 135, 136, 137, 138, 139, 140, 141, 142, 143, 144, 145, 146, 147, 148, 149, 150, 151, 152, 153, 154, 155, 156, 157, 158, 159, 160, 161, 162, 163, 164, 165, 166, 167, 168, 169, 170, 171, 172, 173, 174, 175, 176, 177, 178, 179, 180, 181, 182, 183, 184, 185, 186, 187, 188, 189, 190, 191, 192, 193, 194, 195, 196, 197, 198, 199, 200, 201, 202, 203, 204, 205, 206, 207, 208, 209, 210, 211, 212, 213, 214, 215, 216, 217, 218, 219, 220, 221, 222, 223, 224, 225, 226, 227, 228, 229, 230, 231, 232, 233, 234, 235, 236, 237, 238, 239, 240, 241, 242, 243, 244, 245, 246, 247, 248, 249, 250, 251, 252, 253, 254, 255, 256, 257, 258, 259, 260, 261, 262, 263, 264, 265, 266, 267, 268, 269, 270, 271, 272, 273, 274, 275, 276, 277, 278, 279, 280, 281, 282, 283, 284, 285, 286, 287, 288, 289, 290, 291, 292, 293, 294, 295, 296, 297, 298, 299, 300, 301, 302, 303, 304, 305, 306, 307, 308, 309, 310, 311, 312, 313, 314, 315, 316, 317, 318, 319, 320, 321, 322, 323, 324, 325, 326, 327, 328, 329, 330, 331, 332, 333, 334, 335, 336, 337, 338, 339, 340, 341, 342, 343, 344, 345, 346, 347, 348, 349, 350, 351, 352, 353, 354, 355, 356, 357, 358, 359, 360, 361, 362, 363, 364, 365, 366, 367, 368, 369, 370, 371, 372, 373, 374, 375, 376, 377, 378, 379, 380, 381, 382, 383, 384, 385, 386, 387, 388, 389, 390, 391, 392, 393, 394, 395, 396, 397, 398, 399, 400, 401, 402, 403, 404, 405, 406, 407, 408, 409, 410, 411, 412, 413, 414, 415, 416, 417, 418, 419, 420, 421, 422, 423, 424, 425, 426, 427, 428, 429, 430, 431, 432, 433, 434, 435, 436, 437, 438, 439, 440, 441, 442, 443, 444, 445, 446, 447, 448, 449, 450, 451, 452, 453, 454, 455, 456, 457, 458, 459, 460, 461, 462, 463, 464, 465, 466, 467, 468, 469, 470, 471, 472, 473, 474, 475, 476, 477, 478, 479, 480, 481, 482, 483, 484, 485, 486, 487, 488, 489, 490, 491, 492, 493, 494, 495, 496, 497, 498, 499, 500, 501, 502, 503, 504, 505, 506, 507, 508, 509, 510, 511, 512, 513, 514, 515, 516, 517, 518, 519, 520, 521, 522, 523, 524, 525, 526, 527, 528, 529, 530, 531, 532, 533, 534, 535, 536, 537, 538, 539, 540, 541, 542, 543, 544, 545, 546, 547, 548, 549, 550, 551, 552, 553, 554, 555, 556, 557, 558, 559, 560, 561, 562, 563, 564, 565, 566, 567, 568, 569, 570, 571, 572, 573, 574, 575, 576, 577, 578, 579, 580, 581, 582, 583, 584, 585, 586, 587, 588, 589, 590, 591, 592, 593, 594, 595, 596, 597, 598, 599, 600, 601, 602, 603, 604, 605, 606, 607, 608, 609, 610, 611, 612, 613, 614, 615, 616, 617, 618, 619, 620, 621, 622, 623, 624, 625, 626, 627, 628, 629, 630, 631, 632, 633, 634, 635, 636, 637, 638, 639, 640, 641, 642, 643, 644, 645, 646, 647, 648, 649, 650, 651, 652, 653, 654, 655, 656, 657, 658, 659, 660, 661, 662, 663, 664, 665, 666, 667, 668, 669, 670, 671, 672, 673, 674, 675, 676, 677, 678, 679, 680, 681, 682, 683, 684, 685, 686, 687, 688, 689, 690, 691, 692, 693, 694, 695, 696, 697, 698, 699, 700, 701, 702, 703, 704, 705, 706, 707, 708, 709, 710, 711, 712, 713, 714, 715, 716, 717, 718, 719, 720, 721, 722, 723, 724, 725, 726, 727, 728, 729, 730, 731, 732, 733, 734, 735, 736, 737, 738, 739, 740, 741, 742, 743, 744, 745, 746, 747, 748, 749, 750, 751, 752, 753, 754, 755, 756, 757, 758, 759, 760, 761, 762, 763, 764, 765, 766, 767, 768, 769, 770, 771, 772, 773, 774, 775, 776, 777, 778, 779, 780, 781, 782, 783, 784, 785, 786, 787, 788, 789, 790, 791, 792, 793, 794, 795, 796, 797, 798, 799, 800, 801, 802, 803, 804, 805, 806, 807, 808, 809, 810, 811, 812, 813, 814, 815, 816, 817, 818, 819, 820, 821, 822, 823, 824, 825, 826, 827, 828, 829, 830, 831, 832, 833, 834, 835, 836, 837, 838, 839, 840, 841, 842, 843, 844, 845, 846, 847, 848, 849, 850, 851, 852, 853, 854, 855, 856, 857, 858, 859, 860, 861, 862, 863, 864, 865, 866, 867, 868, 869, 870, 871, 872, 873, 874, 875, 876, 877, 878, 879, 880, 881, 882, 883, 884, 885, 886, 887, 888, 889, 890, 891, 892, 893, 894, 895, 896, 897, 898, 899, 900, 901, 902, 903, 904, 905, 906, 907, 908, 909, 910, 911, 912, 913, 914, 915, 916, 917, 918, 919, 920, 921, 922, 923, 924, 925, 926, 927, 928, 929, 930, 931, 932, 933, 934, 935, 936, 937, 938, 939, 940, 941, 942, 943, 944, 945, 946, 947, 948, 949, 950, 951, 952, 953, 954, 955, 956, 957, 958, 959, 960, 961, 962, 963, 964, 965, 966, 967, 968, 969, 970, 971, 972, 973, 974, 975, 976, 977, 978, 979, 980, 981, 982, 983, 984, 985, 986, 987, 988, 989, 990, 991, 992, 993, 994, 995, 996, 997, 998, 999, 1000, 1001, 1002, 1003, 1004, 1005, 1006, 1007, 1008, 1009, 1010, 1011, 1012, 1013, 1014, 1015, 1016, 1017, 1018, 1019, 1020, 1021, 1022, 1023, 1024, 1025, 1026, 1027, 1028, 1029, 1030, 1031, 1032, 1033, 1034, 1035, 1036, 1037, 1038, 1039, 1040, 1041, 1042, 1043, 1044, 1045, 1046, 1047, 1048, 1049, 1050, 1051, 1052, 1053, 1054, 1055, 1056, 1057, 1058, 1059, 1060, 1061, 1062, 1063, 1064, 1065, 1066, 1067, 1068, 1069, 1070, 1071, 1072, 1073, 1074, 1075, 1076, 1077, 1078, 1079, 1080, 1081, 1082, 1083, 1084, 1085, 1086, 1087, 1088, 1089, 1090, 1091, 1092, 1093, 1094, 1095, 1096, 1097, 1098, 1099, 1100, 1101, 1102, 1103, 1104, 1105, 1106, 1107, 1108, 1109, 1110, 1111, 1112, 1113, 1114, 1115, 1116, 1117, 1118, 1119, 1120, 1121, 1122, 1123, 1124, 1125, 1126, 1127, 1128, 1129, 1130, 1131, 1132, 1133, 1134, 1135, 1136, 1137, 1138, 1139, 1140, 1141, 1142, 1143, 1144, 1145, 1146, 1147, 1148, 1149, 1150, 1151, 1152, 1153, 1154, 1155, 1156, 1157, 1158, 1159, 1160, 1161, 1162, 1163, 1164, 1165, 1166, 1167, 1168, 1169, 1170, 1171, 1172, 1173, 1174, 1175, 1176, 1177, 1178, 1179, 1180, 1181, 1182, 1183, 1184, 1185, 1186, 1187, 1188, 1189, 1190, 1191, 1192, 1193, 1194, 1195, 1196, 1197, 1198, 1199, 1200, 1201, 1202, 1203, 1204, 1205, 1206, 1207, 1208, 1209, 1210, 1211, 1212, 1213, 1214, 1215, 1216, 1217, 1218, 1219, 1220, 1221, 1222, 1223, 1224, 1225, 1226, 1227, 1228, 1229, 1230, 1231, 1232, 1233, 1234, 1235, 1236, 1237, 1238, 1239, 1240, 1241, 1242, 1243, 1244, 1245, 1246, 1247, 1248, 1249, 1250, 1251, 1252, 1253, 1254, 1255, 1256, 1257, 1258, 1259, 1260, 1261, 1262, 1263, 1264, 1265, 1266, 1267, 1268, 1269, 1270, 1271, 1272, 1273, 1274, 1275, 1276, 1277, 1278, 1279, 1280, 1281, 1282, 1283, 1284, 1285, 1286, 1287, 1288, 1289, 1290, 1291, 1292, 1293, 1294, 1295, 1296, 1297, 1298, 1299, 1300, 1301, 1302, 1303, 1304, 1305, 1306, 1307, 1308, 1309, 1310, 1311, 1312, 1313, 1314, 1315, 1316, 1317, 1318, 1319, 1320, 1321, 1322, 1323, 1324, 1325, 1326, 1327, 1328, 1329, 1330, 1331, 1332, 1333, 1334, 1335, 1336, 1337, 1338, 1339, 1340, 1341, 1342, 1343, 1344, 1345, 1346, 1347, 1348, 1349, 1350, 1351, 1352, 1353, 1354, 1355, 1356, 1357, 1358, 1359, 1360],
      "AcquisitionTime": ["191056.622500", "191058.122500", "191059.622500", "191101.122500", "191102.622500", "191104.122500", "191105.622500", "191107.122500", "191108.622500", "191110.122500", "191111.622500", "191113.122500", "191114.622500", "191116.122500", "191117.622500", "191119.122500", "191120.622500", "191122.122500", "191123.622500", "191125.122500", "191126.622500", "191128.122500", "191129.622500", "191131.122500", "191132.622500", "191134.122500", "191135.622500", "191137.122500", "191138.622500", "191140.122500", "191141.622500", "191143.122500", "191144.622500", "191146.122500", "191147.622500", "191149.122500", "191150.622500", "191152.122500", "191153.622500", "191155.122500", "191156.622500", "191158.122500", "191159.622500", "191201.122500", "191202.622500", "191204.122500", "191205.622500", "191207.122500", "191208.622500", "191210.122500", "191211.622500", "191213.122500", "191214.622500", "191216.122500", "191217.622500", "191219.122500", "191220.622500", "191222.122500", "191223.622500", "191225.122500", "191226.622500", "191228.122500", "191229.622500", "191231.122500", "191232.622500", "191234.122500", "191235.622500", "191237.122500", "191238.622500", "191240.122500", "191241.622500", "191243.122500", "191244.622500", "191246.122500", "191247.622500", "191249.122500", "191250.622500", "191252.122500", "191253.622500", "191255.122500", "191256.622500", "191258.122500", "191259.622500", "191301.122500", "191302.622500", "191304.122500", "191305.622500", "191307.122500", "191308.622500", "191310.122500", "191311.622500", "191313.122500", "191314.622500", "191316.122500", "191317.622500", "191319.122500", "191320.622500", "191322.122500", "191323.622500", "191325.122500", "191326.622500", "191328.122500", "191329.622500", "191331.122500", "191332.622500", "191334.122500", "191335.622500", "191337.122500", "191338.622500", "191340.122500", "191341.622500", "191343.122500", "191344.622500", "191346.122500", "191347.622500", "191349.122500", "191350.622500", "191352.122500", "191353.622500", "191355.122500", "191356.622500", "191358.122500", "191359.622500", "191401.122500", "191402.622500", "191404.122500", "191405.622500", "191407.122500", "191408.622500", "191410.122500", "191411.622500", "191413.122500", "191414.622500", "191416.122500", "191417.622500", "191419.122500", "191420.622500", "191422.122500", "191423.622500", "191425.122500", "191426.622500", "191428.122500", "191429.622500", "191431.122500", "191432.622500", "191434.122500", "191435.622500", "191437.122500", "191438.622500", "191440.122500", "191441.622500", "191443.122500", "191444.622500", "191446.122500", "191447.622500", "191449.122500", "191450.622500", "191452.122500", "191453.622500", "191455.122500", "191456.622500", "191458.122500", "191459.622500", "191501.122500", "191502.622500", "191504.122500", "191505.622500", "191507.122500", "191508.622500", "191510.122500", "191511.622500", "191513.122500", "191514.622500", "191516.122500", "191517.622500", "191519.122500", "191520.622500", "191522.122500", "191523.622500", "191525.122500", "191526.622500", "191528.122500", "191529.622500", "191531.122500", "191532.622500", "191534.122500", "191535.622500", "191537.122500", "191538.622500", "191540.122500", "191541.622500", "191543.122500", "191544.622500", "191546.122500", "191547.622500", "191549.122500", "191550.622500", "191552.122500", "191553.622500", "191555.122500", "191556.622500", "191558.122500", "191559.622500", "191601.122500", "191602.622500", "191604.122500", "191605.622500", "191607.122500", "191608.622500", "191610.122500", "191611.622500", "191613.122500", "191614.622500", "191616.122500", "191617.622500", "191619.122500", "191620.622500", "191622.122500", "191623.622500", "191625.122500", "191626.622500", "191628.122500", "191629.622500", "191631.122500", "191632.622500", "191634.122500", "191635.622500", "191637.122500", "191638.622500", "191640.122500", "191641.622500", "191643.122500", "191644.622500", "191646.122500", "191647.622500", "191649.122500", "191650.622500", "191652.122500", "191653.622500", "191655.122500", "191656.622500", "191658.122500", "191659.622500", "191701.122500", "191702.622500", "191704.122500", "191705.622500", "191707.122500", "191708.622500", "191710.122500", "191711.622500", "191713.122500", "191714.622500", "191716.122500", "191717.622500", "191719.122500", "191720.622500", "191722.122500", "191723.622500", "191725.122500", "191726.622500", "191728.122500", "191729.622500", "191731.122500", "191732.622500", "191734.122500", "191735.622500", "191737.122500", "191738.622500", "191740.122500", "191741.622500", "191743.122500", "191744.622500", "191746.122500", "191747.622500", "191749.122500", "191750.622500", "191752.122500", "191753.622500", "191755.122500", "191756.622500", "191758.122500", "191759.622500", "191801.122500", "191802.622500", "191804.122500", "191805.622500", "191807.122500", "191808.622500", "191810.122500", "191811.622500", "191813.122500", "191814.622500", "191816.122500", "191817.622500", "191819.122500", "191820.622500", "191822.122500", "191823.622500", "191825.122500", "191826.622500", "191828.122500", "191829.622500", "191831.122500", "191832.622500", "191834.122500", "191835.622500", "191837.122500", "191838.622500", "191840.122500", "191841.622500", "191843.122500", "191844.622500", "191846.122500", "191847.622500", "191849.122500", "191850.622500", "191852.122500", "191853.622500", "191855.122500", "191856.622500", "191858.122500", "191859.622500", "191901.122500", "191902.622500", "191904.122500", "191905.622500", "191907.122500", "191908.622500", "191910.122500", "191911.622500", "191913.122500", "191914.622500", "191916.122500", "191917.622500", "191919.122500", "191920.622500", "191922.122500", "191923.622500", "191925.122500", "191926.622500", "191928.122500", "191929.622500", "191931.122500", "191932.622500", "191934.122500", "191935.622500", "191937.122500", "191938.622500", "191940.122500", "191941.622500", "191943.122500", "191944.622500", "191946.122500", "191947.622500", "191949.122500", "191950.622500", "191952.122500", "191953.622500", "191955.122500", "191956.622500", "191958.122500", "191959.622500", "192001.122500", "192002.622500", "192004.122500", "192005.622500", "192007.122500", "192008.622500", "192010.122500", "192011.622500", "192013.122500", "192014.622500", "192016.122500", "192017.622500", "192019.122500", "192020.622500", "192022.122500", "192023.622500", "192025.122500", "192026.622500", "192028.122500", "192029.622500", "192031.122500", "192032.622500", "192034.122500", "192035.622500", "192037.122500", "192038.622500", "192040.122500", "192041.622500", "192043.122500", "192044.622500", "192046.122500", "192047.622500", "192049.122500", "192050.622500", "192052.122500", "192053.622500", "192055.122500", "192056.622500", "192058.122500", "192059.622500", "192101.122500", "192102.622500", "192104.122500", "192105.622500", "192107.122500", "192108.622500", "192110.122500", "192111.622500", "192113.122500", "192114.622500", "192116.122500", "192117.622500", "192119.122500", "192120.622500", "192122.122500", "192123.622500", "192125.122500", "192126.622500", "192128.122500", "192129.622500", "192131.122500", "192132.622500", "192134.122500", "192135.622500", "192137.122500", "192138.622500", "192140.122500", "192141.622500", "192143.122500", "192144.622500", "192146.122500", "192147.622500", "192149.122500", "192150.622500", "192152.122500", "192153.622500", "192155.122500", "192156.622500", "192158.122500", "192159.622500", "192201.122500", "192202.622500", "192204.122500", "192205.622500", "192207.122500", "192208.622500", "192210.122500", "192211.622500", "192213.122500", "192214.622500", "192216.122500", "192217.622500", "192219.122500", "192220.622500", "192222.122500", "192223.622500", "192225.122500", "192226.622500", "192228.122500", "192229.622500", "192231.122500", "192232.622500", "192234.122500", "192235.622500", "192237.122500", "192238.622500", "192240.122500", "192241.622500", "192243.122500", "192244.622500", "192246.122500", "192247.622500", "192249.122500", "192250.622500", "192252.122500", "192253.622500", "192255.122500", "192256.622500", "192258.122500", "192259.622500", "192301.122500", "192302.622500", "192304.122500", "192305.622500", "192307.122500", "192308.622500", "192310.122500", "192311.622500", "192313.122500", "192314.622500", "192316.122500", "192317.622500", "192319.122500", "192320.622500", "192322.122500", "192323.622500", "192325.122500", "192326.622500", "192328.122500", "192329.622500", "192331.122500", "192332.622500", "192334.122500", "192335.622500", "192337.122500", "192338.622500", "192340.122500", "192341.622500", "192343.122500", "192344.622500", "192346.122500", "192347.622500", "192349.122500", "192350.622500", "192352.122500", "192353.622500", "192355.122500", "192356.622500", "192358.122500", "192359.622500", "192401.122500", "192402.622500", "192404.122500", "192405.622500", "192407.122500", "192408.622500", "192410.122500", "192411.622500", "192413.122500", "192414.622500", "192416.122500", "192417.622500", "192419.122500", "192420.622500", "192422.122500", "192423.622500", "192425.122500", "192426.622500", "192428.122500", "192429.622500", "192431.122500", "192432.622500", "192434.122500", "192435.622500", "192437.122500", "192438.622500", "192440.122500", "192441.622500", "192443.122500", "192444.622500", "192446.122500", "192447.622500", "192449.122500", "192450.622500", "192452.122500", "192453.622500", "192455.122500", "192456.622500", "192458.122500", "192459.622500", "192501.122500", "192502.622500", "192504.122500", "192505.622500", "192507.122500", "192508.622500", "192510.122500", "192511.622500", "192513.122500", "192514.622500", "192516.122500", "192517.622500", "192519.122500", "192520.622500", "192522.122500", "192523.622500", "192525.122500", "192526.622500", "192528.122500", "192529.622500", "192531.122500", "192532.622500", "192534.122500", "192535.622500", "192537.122500", "192538.622500", "192540.122500", "192541.622500", "192543.122500", "192544.622500", "192546.122500", "192547.622500", "192549.122500", "192550.622500", "192552.122500", "192553.622500", "192555.122500", "192556.622500", "192558.122500", "192559.622500", "192601.122500", "192602.622500", "192604.122500", "192605.622500", "192607.122500", "192608.622500", "192610.122500", "192611.622500", "192613.122500", "192614.622500", "192616.122500", "192617.622500", "192619.122500", "192620.622500", "192622.122500", "192623.622500", "192625.122500", "192626.622500", "192628.122500", "192629.622500", "192631.122500", "192632.622500", "192634.122500", "192635.622500", "192637.122500", "192638.622500", "192640.122500", "192641.622500", "192643.122500", "192644.622500", "192646.122500", "192647.622500", "192649.122500", "192650.622500", "192652.122500", "192653.622500", "192655.122500", "192656.622500", "192658.122500", "192659.622500", "192701.122500", "192702.622500", "192704.122500", "192705.622500", "192707.122500", "192708.622500", "192710.122500", "192711.622500", "192713.122500", "192714.622500", "192716.122500", "192717.622500", "192719.122500", "192720.622500", "192722.122500", "192723.622500", "192725.122500", "192726.622500", "192728.122500", "192729.622500", "192731.122500", "192732.622500", "192734.122500", "192735.622500", "192737.122500", "192738.622500", "192740.122500", "192741.622500", "192743.122500", "192744.622500", "192746.122500", "192747.622500", "192749.122500", "192750.622500", "192752.122500", "192753.622500", "192755.122500", "192756.622500", "192758.122500", "192759.622500", "192801.122500", "192802.622500", "192804.122500", "192805.622500", "192807.122500", "192808.622500", "192810.122500", "192811.622500", "192813.122500", "192814.622500", "192816.122500", "192817.622500", "192819.122500", "192820.622500", "192822.122500", "192823.622500", "192825.122500", "192826.622500", "192828.122500", "192829.622500", "192831.122500", "192832.622500", "192834.122500", "192835.622500", "192837.122500", "192838.622500", "192840.122500", "192841.622500", "192843.122500", "192844.622500", "192846.122500", "192847.622500", "192849.122500", "192850.622500", "192852.122500", "192853.622500", "192855.122500", "192856.622500", "192858.122500", "192859.622500", "192901.122500", "192902.622500", "192904.122500", "192905.622500", "192907.122500", "192908.622500", "192910.122500", "192911.622500", "192913.122500", "192914.622500", "192916.122500", "192917.622500", "192919.122500", "192920.622500", "192922.122500", "192923.622500", "192925.122500", "192926.622500", "192928.122500", "192929.622500", "192931.122500", "192932.622500", "192934.122500", "192935.622500", "192937.122500", "192938.622500", "192940.122500", "192941.622500", "192943.122500", "192944.622500", "192946.122500", "192947.622500", "192949.122500", "192950.622500", "192952.122500", "192953.622500", "192955.122500", "192956.622500", "192958.122500", "192959.622500", "193001.122500", "193002.622500", "193004.122500", "193005.622500", "193007.122500", "193008.622500", "193010.122500", "193011.622500", "193013.122500", "193014.622500", "193016.122500", "193017.622500", "193019.122500", "193020.622500", "193022.122500", "193023.622500", "193025.122500", "193026.622500", "193028.122500", "193029.622500", "193031.122500", "193032.622500", "193034.122500", "193035.622500", "193037.122500", "193038.622500", "193040.122500", "193041.622500", "193043.122500", "193044.622500", "193046.122500", "193047.622500", "193049.122500", "193050.622500", "193052.122500", "193053.622500", "193055.122500", "193056.622500", "193058.122500", "193059.622500", "193101.122500", "193102.622500", "193104.122500", "193105.622500", "193107.122500", "193108.622500", "193110.122500", "193111.622500", "193113.122500", "193114.622500", "193116.122500", "193117.622500", "193119.122500", "193120.622500", "193122.122500", "193123.622500", "193125.122500", "193126.622500", "193128.122500", "193129.622500", "193131.122500", "193132.622500", "193134.122500", "193135.622500", "193137.122500", "193138.622500", "193140.122500", "193141.622500", "193143.122500", "193144.622500", "193146.122500", "193147.622500", "193149.122500", "193150.622500", "193152.122500", "193153.622500", "193155.122500", "193156.622500", "193158.122500", "193159.622500", "193201.122500", "193202.622500", "193204.122500", "193205.622500", "193207.122500", "193208.622500", "193210.122500", "193211.622500", "193213.122500", "193214.622500", "193216.122500", "193217.622500", "193219.122500", "193220.622500", "193222.122500", "193223.622500", "193225.122500", "193226.622500", "193228.122500", "193229.622500", "193231.122500", "193232.622500", "193234.122500", "193235.622500", "193237.122500", "193238.622500", "193240.122500", "193241.622500", "193243.122500", "193244.622500", "193246.122500", "193247.622500", "193249.122500", "193250.622500", "193252.122500", "193253.622500", "193255.122500", "193256.622500", "193258.122500", "193259.622500", "193301.122500", "193302.622500", "193304.122500", "193305.622500", "193307.122500", "193308.622500", "193310.122500", "193311.622500", "193313.122500", "193314.622500", "193316.122500", "193317.622500", "193319.122500", "193320.622500", "193322.122500", "193323.622500", "193325.122500", "193326.622500", "193328.122500", "193329.622500", "193331.122500", "193332.622500", "193334.122500", "193335.622500", "193337.122500", "193338.622500", "193340.122500", "193341.622500", "193343.122500", "193344.622500", "193346.122500", "193347.622500", "193349.122500", "193350.622500", "193352.122500", "193353.622500", "193355.122500", "193356.622500", "193358.122500", "193359.622500", "193401.122500", "193402.622500", "193404.122500", "193405.622500", "193407.122500", "193408.622500", "193410.122500", "193411.622500", "193413.122500", "193414.622500", "193416.122500", "193417.622500", "193419.122500", "193420.622500", "193422.122500", "193423.622500", "193425.122500", "193426.622500", "193428.122500", "193429.622500", "193431.122500", "193432.622500", "193434.122500", "193435.622500", "193437.122500", "193438.622500", "193440.122500", "193441.622500", "193443.122500", "193444.622500", "193446.122500", "193447.622500", "193449.122500", "193450.622500", "193452.122500", "193453.622500", "193455.122500", "193456.622500", "193458.122500", "193459.622500", "193501.122500", "193502.622500", "193504.122500", "193505.622500", "193507.122500", "193508.622500", "193510.122500", "193511.622500", "193513.122500", "193514.622500", "193516.122500", "193517.622500", "193519.122500", "193520.622500", "193522.122500", "193523.622500", "193525.122500", "193526.622500", "193528.122500", "193529.622500", "193531.122500", "193532.622500", "193534.122500", "193535.622500", "193537.122500", "193538.622500", "193540.122500", "193541.622500", "193543.122500", "193544.622500", "193546.122500", "193547.622500", "193549.122500", "193550.622500", "193552.122500", "193553.622500", "193555.122500", "193556.622500", "193558.122500", "193559.622500", "193601.122500", "193602.622500", "193604.122500", "193605.622500", "193607.122500", "193608.622500", "193610.122500", "193611.622500", "193613.122500", "193614.622500", "193616.122500", "193617.622500", "193619.122500", "193620.622500", "193622.122500", "1936