{
  "AcquisitionMatrixPE": 106,
  "AcquisitionNumber": 1,
  "AcquisitionTime": "11:01:18.722500",
  "BandwidthPerPixelPhaseEncode": 13.477,
  "BaseResolution": 106,
  "BodyPartExamined": "BRAIN",
  "CoilCombinationMethod": "Sum of Squares",
  "ConsistencyInfo": "N4_VE11C_LATEST_20160120",
  "ConversionSoftware": "dcm2niix",
  "ConversionSoftwareVersion": "v1.0.20220720",
  "DerivedVendorReportedEchoSpacing": 0.000700005,
  "DeviceSerialNumber": "166108",
  "DwellTime": 2.6e-06,
  "EchoTime": 0.03,
  "EchoTrainLength": 80,
  "EffectiveEchoSpacing": 0.000700005,
  "FlipAngle": 62,
  "HeudiconvVersion": "1.3.0",
  "ImageComments": "Unaliased MB4/PE3/LB",
  "ImageOrientationPatientDICOM": [1, 0, 0, 0, 0.999903, 0.0139622],
  "ImageOrientationText": "Tra>Cor(0.8)",
  "ImageType": [
    "ORIGINAL",
    "PRIMARY",
    "M",
    "MB",
    "ND",
    "MOSAIC"
],
  "ImagingFrequency": 123.244,
  "InPlanePhaseEncodingDirectionDICOM": "COL",
  "InstitutionAddress": "Bedford Way 26,London,London,GB,WC1H 0AP",
  "InstitutionName": "University College",
  "InstitutionalDepartmentName": "Department",
  "MRAcquisitionType": "2D",
  "MagneticFieldStrength": 3,
  "Manufacturer": "Siemens",
  "ManufacturersModelName": "Prisma",
  "MatrixCoilMode": "SENSE",
  "Modality": "MR",
  "MultibandAccelerationFactor": 4,
  "NonlinearGradientCorrection": false,
  "PartialFourier": 0.75,
  "PatientPosition": "HFS",
  "PercentPhaseFOV": 100,
  "PercentSampling": 100,
  "PhaseEncodingDirection": "j-",
  "PhaseEncodingSteps": 80,
  "PhaseResolution": 1,
  "PixelBandwidth": 1815,
  "ProcedureStepDescription": "Egor^MovieProject2",
  "ProtocolName": "func-bold_task-motor_run-02",
  "PulseSequenceDetails": "%CustomerSeq%\\cmrr_mbep2d_bold",
  "ReceiveCoilActiveElements": "HEA;HEP",
  "ReceiveCoilName": "Head_32",
  "ReconMatrixPE": 106,
  "RepetitionTime": 1,
  "SAR": 0.0412244,
  "ScanOptions": "PFP\\FS\\EXT",
  "ScanningSequence": "EP",
  "SequenceName": "epfid2d1_106",
  "SequenceVariant": "SK\\SS",
  "SeriesDescription": "func-bold_task-motor_run-02",
  "SeriesNumber": 4,
  "ShimSetting": [-1495, 610, 7510, 449, 104, 170, 97, -61],
  "SliceThickness": 2,
  "SliceTiming": [0, 0.535, 0.09, 0.625, 0.18, 0.7125, 0.2675, 0.8025, 0.3575, 0.8925, 0.445, 0, 0.535, 0.09, 0.625, 0.18, 0.7125, 0.2675, 0.8025, 0.3575, 0.8925, 0.445, 0, 0.535, 0.09, 0.625, 0.18, 0.7125, 0.2675, 0.8025, 0.3575, 0.8925, 0.445, 0, 0.535, 0.09, 0.625, 0.18, 0.7125, 0.2675, 0.8025, 0.3575, 0.8925, 0.445],
  "SoftwareVersions": "syngo MR E11",
  "SpacingBetweenSlices": 2,
  "StationName": "AWP166108",
  "TaskName": "somatotopy",
  "TotalReadoutTime": 0.0735005,
  "TxRefAmp": 242.639,
  "WipMemBlock": "5fb25523-9791-4956-99dd-22744f6498f1||Sequence: R016 ve11c/master r/e634e98; Dec 19 2017 11:00:25 by eja",
  "dcmmeta_affine": [
    [-2.0, 0.0, 0.0, 106.0],
    [0.0, 1.9998050928115845, 0.02792435884475708, -97.25068664550781],
    [0.0, -0.02792435884475708, 1.999804973602295, -0.5033614039421082],
    [0.0, 0.0, 0.0, 1.0]
],
  "dcmmeta_reorient_transform": [
    [0.0, -1.0, 0.0, 105.0],
    [1.0, 0.0, 0.0, 0.0],
    [0.0, 0.0, 1.0, 0.0],
    [0.0, 0.0, 0.0, 1.0]
],
  "dcmmeta_shape": [106, 106, 44, 469],
  "dcmmeta_slice_dim": 2,
  "dcmmeta_version": 0.6,
  "global": {
    "const": {
      "AcquisitionMatrix": [106, 0, 0, 106],
      "AngioFlag": "N",
      "BitsAllocated": 16,
      "BitsStored": 16,
      "BodyPartExamined": "BRAIN",
      "CardiacNumberOfImages": 1,
      "Columns": 742,
      "EchoNumbers": 1,
      "EchoTime": 30.0,
      "EchoTrainLength": 80,
      "FlipAngle": 62.0,
      "HighBit": 15,
      "ImageOrientationPatient": [1.0, 0.0, 0.0, 0.0, 0.99990252401694, 0.013962179792],
      "ImagePositionPatient": [-742.0, -748.66684814024, -12.315365529134],
      "ImageType": [
        "ORIGINAL",
        "PRIMARY",
        "M",
        "MB",
        "ND",
        "MOSAIC"
],
      "ImagedNucleus": "1H",
      "ImagingFrequency": 123.243618,
      "InPlanePhaseEncodingDirection": "COL",
      "MRAcquisitionType": "2D",
      "MagneticFieldStrength": 3.0,
      "Manufacturer": "SIEMENS",
      "ManufacturerModelName": "Prisma",
      "Modality": "MR",
      "NominalInterval": 0,
      "NumberOfAverages": 1.0,
      "NumberOfPhaseEncodingSteps": 80,
      "PercentPhaseFieldOfView": 100.0,
      "PercentSampling": 100.0,
      "PerformedProcedureStepStartTime": "103708.086000",
      "PhotometricInterpretation": "MONOCHROME2",
      "PixelBandwidth": 1815.0,
      "PixelRepresentation": 0,
      "PixelSpacing": [2.0, 2.0],
      "ProtocolName": "func-bold_task-motor_run-02",
      "RepetitionTime": 1000.0,
      "Rows": 742,
      "SAR": 0.04122445105492,
      "SamplesPerPixel": 1,
      "ScanOptions": [
        "PFP",
        "FS",
        "EXT"
],
      "ScanningSequence": "EP",
      "SequenceName": "epfid2d1_106",
      "SequenceVariant": [
        "SK",
        "SS"
],
      "SeriesDescription": "func-bold_task-motor_run-02",
      "SeriesNumber": 4,
      "SeriesTime": "110156.443000",
      "SliceLocation": -1.8611439387325,
      "SliceThickness": 2.0,
      "SmallestImagePixelValue": 0,
      "SoftwareVersions": "syngo MR E11",
      "SpacingBetweenSlices": 1.9999999366728,
      "SpecificCharacterSet": "ISO_IR 100",
      "StudyID": "1",
      "StudyTime": "103708.026000",
      "TransmitCoilName": "Body",
      "VariableFlipAngleFlag": "N",
      "WindowCenterWidthExplanation": "Algo1",
      "dBdt": 0.0},
    "slices": {}
  },
  "time": {
    "samples": {
      "AcquisitionNumber": [1, 2, 3, 4, 5, 6, 7, 8, 9, 10, 11, 12, 13, 14, 15, 16, 17, 18, 19, 20, 21, 22, 23, 24, 25, 26, 27, 28, 29, 30, 31, 32, 33, 34, 35, 36, 37, 38, 39, 40, 41, 42, 43, 44, 45, 46, 47, 48, 49, 50, 51, 52, 53, 54, 55, 56, 57, 58, 59, 60, 61, 62, 63, 64, 65, 66, 67, 68, 69, 70, 71, 72, 73, 74, 75, 76, 77, 78, 79, 80, 81, 82, 83, 84, 85, 86, 87, 88, 89, 90, 91, 92, 93, 94, 95, 96, 97, 98, 99, 100, 101, 102, 103, 104, 105, 106, 107, 108, 109, 110, 111, 112, 113, 114, 115, 116, 117, 118, 119, 120, 121, 122, 123, 124, 125, 126, 127, 128, 129, 130, 131, 132, 133, 134, 135, 136, 137, 138, 139, 140, 141, 142, 143, 144, 145, 146, 147, 148, 149, 150, 151, 152, 153, 154, 155, 156, 157, 158, 159, 160, 161, 162, 163, 164, 165, 166, 167, 168, 169, 170, 171, 172, 173, 174, 175, 176, 177, 178, 179, 180, 181, 182, 183, 184, 185, 186, 187, 188, 189, 190, 191, 192, 193, 194, 195, 196, 197, 198, 199, 200, 201, 202, 203, 204, 205, 206, 207, 208, 209, 210, 211, 212, 213, 214, 215, 216, 217, 218, 219, 220, 221, 222, 223, 224, 225, 226, 227, 228, 229, 230, 231, 232, 233, 234, 235, 236, 237, 238, 239, 240, 241, 242, 243, 244, 245, 246, 247, 248, 249, 250, 251, 252, 253, 254, 255, 256, 257, 258, 259, 260, 261, 262, 263, 264, 265, 266, 267, 268, 269, 270, 271, 272, 273, 274, 275, 276, 277, 278, 279, 280, 281, 282, 283, 284, 285, 286, 287, 288, 289, 290, 291, 292, 293, 294, 295, 296, 297, 298, 299, 300, 301, 302, 303, 304, 305, 306, 307, 308, 309, 310, 311, 312, 313, 314, 315, 316, 317, 318, 319, 320, 321, 322, 323, 324, 325, 326, 327, 328, 329, 330, 331, 332, 333, 334, 335, 336, 337, 338, 339, 340, 341, 342, 343, 344, 345, 346, 347, 348, 349, 350, 351, 352, 353, 354, 355, 356, 357, 358, 359, 360, 361, 362, 363, 364, 365, 366, 367, 368, 369, 370, 371, 372, 373, 374, 375, 376, 377, 378, 379, 380, 381, 382, 383, 384, 385, 386, 387, 388, 389, 390, 391, 392, 393, 394, 395, 396, 397, 398, 399, 400, 401, 402, 403, 404, 405, 406, 407, 408, 409, 410, 411, 412, 413, 414, 415, 416, 417, 418, 419, 420, 421, 422, 423, 424, 425, 426, 427, 428, 429, 430, 431, 432, 433, 434, 435, 436, 437, 438, 439, 440, 441, 442, 443, 444, 445, 446, 447, 448, 449, 450, 451, 452, 453, 454, 455, 456, 457, 458, 459, 460, 461, 462, 463, 464, 465, 466, 467, 468, 469],
      "AcquisitionTime": ["110118.722500", "110119.722500", "110120.722500", "110121.722500", "110122.722500", "110123.722500", "110124.722500", "110125.722500", "110126.722500", "110127.722500", "110128.722500", "110129.722500", "110130.722500", "110131.722500", "110132.722500", "110133.722500", "110134.722500", "110135.722500", "110136.722500", "110137.722500", "110138.722500", "110139.722500", "110140.722500", "110141.722500", "110142.722500", "110143.722500", "110144.722500", "110145.722500", "110146.722500", "110147.722500", "110148.722500", "110149.722500", "110150.722500", "110151.722500", "110152.722500", "110153.722500", "110154.722500", "110155.722500", "110156.722500", "110157.722500", "110158.722500", "110159.722500", "110200.722500", "110201.722500", "110202.722500", "110203.722500", "110204.722500", "110205.722500", "110206.722500", "110207.722500", "110208.722500", "110209.722500", "110210.722500", "110211.722500", "110212.722500", "110213.722500", "110214.722500", "110215.722500", "110216.722500", "110217.722500", "110218.722500", "110219.722500", "110220.722500", "110221.722500", "110222.722500", "110223.722500", "110224.722500", "110225.722500", "110226.722500", "110227.722500", "110228.722500", "110229.722500", "110230.722500", "110231.722500", "110232.722500", "110233.722500", "110234.722500", "110235.722500", "110236.722500", "110237.722500", "110238.722500", "110239.722500", "110240.722500", "110241.722500", "110242.722500", "110243.722500", "110244.722500", "110245.722500", "110246.722500", "110247.722500", "110248.722500", "110249.722500", "110250.722500", "110251.722500", "110252.722500", "110253.722500", "110254.722500", "110255.722500", "110256.722500", "110257.722500", "110258.722500", "110259.722500", "110300.722500", "110301.722500", "110302.722500", "110303.722500", "110304.722500", "110305.722500", "110306.722500", "110307.722500", "110308.722500", "110309.722500", "110310.722500", "110311.722500", "110312.722500", "110313.722500", "110314.722500", "110315.722500", "110316.722500", "110317.722500", "110318.722500", "110319.722500", "110320.722500", "110321.722500", "110322.722500", "110323.722500", "110324.722500", "110325.722500", "110326.722500", "110327.722500", "110328.722500", "110329.722500", "110330.722500", "110331.722500", "110332.722500", "110333.722500", "110334.722500", "110335.722500", "110336.722500", "110337.722500", "110338.722500", "110339.722500", "110340.722500", "110341.722500", "110342.722500", "110343.722500", "110344.722500", "110345.722500", "110346.722500", "110347.722500", "110348.722500", "110349.722500", "110350.722500", "110351.722500", "110352.722500", "110353.722500", "110354.722500", "110355.722500", "110356.722500", "110357.722500", "110358.722500", "110359.722500", "110400.722500", "110401.722500", "110402.722500", "110403.722500", "110404.722500", "110405.722500", "110406.722500", "110407.722500", "110408.722500", "110409.722500", "110410.722500", "110411.722500", "110412.722500", "110413.722500", "110414.722500", "110415.722500", "110416.722500", "110417.722500", "110418.722500", "110419.722500", "110420.722500", "110421.722500", "110422.722500", "110423.722500", "110424.722500", "110425.722500", "110426.722500", "110427.722500", "110428.722500", "110429.722500", "110430.722500", "110431.722500", "110432.722500", "110433.722500", "110434.722500", "110435.722500", "110436.722500", "110437.722500", "110438.722500", "110439.722500", "110440.722500", "110441.722500", "110442.722500", "110443.722500", "110444.722500", "110445.722500", "110446.722500", "110447.722500", "110448.722500", "110449.722500", "110450.722500", "110451.722500", "110452.722500", "110453.722500", "110454.722500", "110455.722500", "110456.722500", "110457.722500", "110458.722500", "110459.722500", "110500.722500", "110501.722500", "110502.722500", "110503.722500", "110504.722500", "110505.722500", "110506.722500", "110507.722500", "110508.722500", "110509.722500", "110510.722500", "110511.722500", "110512.722500", "110513.722500", "110514.722500", "110515.722500", "110516.722500", "110517.722500", "110518.722500", "110519.722500", "110520.722500", "110521.722500", "110522.722500", "110523.722500", "110524.722500", "110525.722500", "110526.722500", "110527.722500", "110528.722500", "110529.722500", "110530.722500", "110531.722500", "110532.722500", "110533.722500", "110534.722500", "110535.722500", "110536.722500", "110537.722500", "110538.722500", "110539.722500", "110540.722500", "110541.722500", "110542.722500", "110543.722500", "110544.722500", "110545.722500", "110546.722500", "110547.722500", "110548.722500", "110549.722500", "110550.722500", "110551.722500", "110552.722500", "110553.722500", "110554.722500", "110555.722500", "110556.722500", "110557.722500", "110558.722500", "110559.722500", "110600.722500", "110601.722500", "110602.722500", "110603.722500", "110604.722500", "110605.722500", "110606.722500", "110607.722500", "110608.722500", "110609.722500", "110610.722500", "110611.722500", "110612.722500", "110613.722500", "110614.722500", "110615.722500", "110616.722500", "110617.722500", "110618.722500", "110619.722500", "110620.722500", "110621.722500", "110622.722500", "110623.722500", "110624.722500", "110625.722500", "110626.722500", "110627.722500", "110628.722500", "110629.722500", "110630.722500", "110631.722500", "110632.722500", "110633.722500", "110634.722500", "110635.722500", "110636.722500", "110637.722500", "110638.722500", "110639.722500", "110640.722500", "110641.722500", "110642.722500", "110643.722500", "110644.722500", "110645.722500", "110646.722500", "110647.722500", "110648.722500", "110649.722500", "110650.722500", "110651.722500", "110652.722500", "110653.722500", "110654.722500", "110655.722500", "110656.722500", "110657.722500", "110658.722500", "110659.722500", "110700.722500", "110701.722500", "110702.722500", "110703.722500", "110704.722500", "110705.722500", "110706.722500", "110707.722500", "110708.722500", "110709.722500", "110710.722500", "110711.722500", "110712.722500", "110713.722500", "110714.722500", "110715.722500", "110716.722500", "110717.722500", "110718.722500", "110719.722500", "110720.722500", "110721.722500", "110722.722500", "110723.722500", "110724.722500", "110725.722500", "110726.722500", "110727.722500", "110728.722500", "110729.722500", "110730.722500", "110731.722500", "110732.722500", "110733.722500", "110734.722500", "110735.722500", "110736.722500", "110737.722500", "110738.722500", "110739.722500", "110740.722500", "110741.722500", "110742.722500", "110743.722500", "110744.722500", "110745.722500", "110746.722500", "110747.722500", "110748.722500", "110749.722500", "110750.722500", "110751.722500", "110752.722500", "110753.722500", "110754.722500", "110755.722500", "110756.722500", "110757.722500", "110758.722500", "110759.722500", "110800.722500", "110801.722500", "110802.722500", "110803.722500", "110804.722500", "110805.722500", "110806.722500", "110807.722500", "110808.722500", "110809.722500", "110810.722500", "110811.722500", "110812.722500", "110813.722500", "110814.722500", "110815.722500", "110816.722500", "110817.722500", "110818.722500", "110819.722500", "110820.722500", "110821.722500", "110822.722500", "110823.722500", "110824.722500", "110825.722500", "110826.722500", "110827.722500", "110828.722500", "110829.722500", "110830.722500", "110831.722500", "110832.722500", "110833.722500", "110834.722500", "110835.722500", "110836.722500", "110837.722500", "110838.722500", "110839.722500", "110840.722500", "110841.722500", "110842.722500", "110843.722500", "110844.722500", "110845.722500", "110846.722500", "110847.722500", "110848.722500", "110849.722500", "110850.722500", "110851.722500", "110852.722500", "110853.722500", "110854.722500", "110855.722500", "110856.722500", "110857.722500", "110858.722500", "110859.722500", "110900.722500", "110901.722500", "110902.722500", "110903.722500", "110904.722500", "110905.722500", "110906.722500"],
      "ContentTime": ["110156.446000", "110156.448000", "110156.451000", "110156.453000", "110156.456000", "110156.458000", "110156.461000", "110156.463000", "110156.466000", "110156.471000", "110156.473000", "110156.476000", "110156.478000", "110156.481000", "110156.483000", "110156.486000", "110156.488000", "110156.490000", "110156.493000", "110156.495000", "110156.498000", "110156.507000", "110156.510000", "110156.512000", "110156.514000", "110156.517000", "110156.519000", "110156.522000", "110156.524000", "110156.527000", "110156.529000", "110156.532000", "110156.534000", "110156.537000", "110156.539000", "110156.542000", "110156.544000", "110216.406000", "110216.409000", "110216.412000", "110216.414000", "110216.421000", "110216.424000", "110216.426000", "110216.428000", "110216.431000", "110216.433000", "110216.436000", "110216.438000", "110216.441000", "110216.443000", "110216.446000", "110216.458000", "110216.460000", "110216.463000", "110216.465000", "110216.468000", "110236.406000", "110236.409000", "110236.411000", "110236.414000", "110236.416000", "110236.419000", "110236.422000", "110236.424000", "110236.427000", "110236.429000", "110236.432000", "110236.434000", "110236.436000", "110236.439000", "110236.441000", "110236.444000", "110236.446000", "110236.449000", "110236.451000", "110236.454000", "110256.406000", "110256.409000", "110256.411000", "110256.414000", "110256.416000", "110256.419000", "110256.421000", "110256.423000", "110256.426000", "110256.428000", "110256.431000", "110256.433000", "110256.435000", "110256.438000", "110256.456000", "110256.458000", "110256.461000", "110256.463000", "110256.466000", "110256.468000", "110316.407000", "110316.410000", "110316.412000", "110316.415000", "110316.417000", "110316.420000", "110316.422000", "110316.424000", "110316.427000", "110316.429000", "110316.432000", "110316.434000", "110316.436000", "110316.439000", "110316.441000", "110316.444000", "110316.446000", "110316.449000", "110316.451000", "110316.453000", "110336.407000", "110336.410000", "110336.412000", "110336.415000", "110336.417000", "110336.420000", "110336.422000", "110336.451000", "110336.453000", "110336.456000", "110336.458000", "110336.461000", "110336.463000", "110336.498000", "110336.500000", "110336.502000", "110336.505000", "110336.507000", "110336.510000", "110336.512000", "110356.407000", "110356.410000", "110356.412000", "110356.415000", "110356.417000", "110356.420000", "110356.422000", "110356.424000", "110356.427000", "110356.429000", "110356.432000", "110356.434000", "110356.437000", "110356.439000", "110356.441000", "110356.444000", "110356.446000", "110356.449000", "110356.451000", "110356.454000", "110416.407000", "110416.410000", "110416.412000", "110416.415000", "110416.417000", "110416.420000", "110416.422000", "110416.425000", "110416.427000", "110416.429000", "110416.432000", "110416.434000", "110416.437000", "110416.439000", "110416.442000", "110416.444000", "110416.456000", "110416.458000", "110416.461000", "110416.463000", "110436.406000", "110436.409000", "110436.411000", "110436.414000", "110436.416000", "110436.419000", "110436.421000", "110436.424000", "110436.426000", "110436.429000", "110436.440000", "110436.442000", "110436.445000", "110436.447000", "110436.450000", "110436.452000", "110436.455000", "110436.457000", "110436.460000", "110436.462000", "110456.407000", "110456.409000", "110456.412000", "110456.414000", "110456.417000", "110456.419000", "110456.421000", "110456.424000", "110456.426000", "110456.429000", "110456.431000", "110456.434000", "110456.436000", "110456.438000", "110456.441000", "110456.443000", "110456.446000", "110456.448000", "110456.451000", "110456.453000", "110516.406000", "110516.409000", "110516.412000", "110516.414000", "110516.417000", "110516.419000", "110516.421000", "110516.424000", "110516.426000", "110516.429000", "110516.431000", "110516.433000", "110516.436000", "110516.439000", "110516.441000", "110516.443000", "110516.446000", "110516.448000", "110516.451000", "110516.453000", "110536.407000", "110536.410000", "110536.412000", "110536.415000", "110536.417000", "110536.427000", "110536.429000", "110536.432000", "110536.434000", "110536.437000", "110536.439000", "110536.442000", "110536.444000", "110536.447000", "110536.449000", "110536.451000", "110536.454000", "110536.456000", "110536.459000", "110536.461000", "110556.407000", "110556.410000", "110556.412000", "110556.415000", "110556.417000", "110556.420000", "110556.422000", "110556.424000", "110556.427000", "110556.429000", "110556.439000", "110556.441000", "110556.443000", "110556.446000", "110556.448000", "110556.451000", "110556.453000", "110556.455000", "110556.458000", "110556.460000", "110616.408000", "110616.410000", "110616.413000", "110616.415000", "110616.418000", "110616.420000", "110616.423000", "110616.425000", "110616.428000", "110616.430000", "110616.433000", "110616.435000", "110616.437000", "110616.440000", "110616.442000", "110616.445000", "110616.447000", "110616.449000", "110616.452000", "110616.454000", "110636.407000", "110636.410000", "110636.412000", "110636.415000", "110636.417000", "110636.427000", "110636.430000", "110636.432000", "110636.435000", "110636.437000", "110636.440000", "110636.442000", "110636.444000", "110636.447000", "110636.449000", "110636.452000", "110636.454000", "110636.457000", "110636.459000", "110636.461000", "110656.406000", "110656.409000", "110656.412000", "110656.414000", "110656.416000", "110656.419000", "110656.421000", "110656.424000", "110656.426000", "110656.428000", "110656.431000", "110656.433000", "110656.436000", "110656.438000", "110656.441000", "110656.443000", "110656.446000", "110656.448000", "110656.450000", "110656.453000", "110716.406000", "110716.409000", "110716.412000", "110716.414000", "110716.417000", "110716.419000", "110716.421000", "110716.441000", "110716.443000", "110716.445000", "110716.448000", "110716.450000", "110716.453000", "110716.455000", "110716.458000", "110716.460000", "110716.473000", "110716.475000", "110716.478000", "110716.480000", "110736.406000", "110736.409000", "110736.411000", "110736.414000", "110736.416000", "110736.419000", "110736.421000", "110736.423000", "110736.426000", "110736.428000", "110736.431000", "110736.433000", "110736.436000", "110736.438000", "110736.441000", "110736.443000", "110736.445000", "110736.448000", "110736.450000", "110736.453000", "110756.407000", "110756.410000", "110756.412000", "110756.415000", "110756.417000", "110756.420000", "110756.422000", "110756.424000", "110756.427000", "110756.429000", "110756.432000", "110756.434000", "110756.437000", "110756.439000", "110756.442000", "110756.444000", "110756.447000", "110756.449000", "110756.452000", "110756.454000", "110816.407000", "110816.410000", "110816.413000", "110816.415000", "110816.418000", "110816.420000", "110816.423000", "110816.425000", "110816.427000", "110816.430000", "110816.432000", "110816.435000", "110816.437000", "110816.440000", "110816.442000", "110816.445000", "110816.447000", "110816.449000", "110816.452000", "110816.454000", "110836.408000", "110836.410000", "110836.413000", "110836.415000", "110836.417000", "110836.425000", "110836.427000", "110836.430000", "110836.432000", "110836.435000", "110836.437000", "110836.440000", "110836.442000", "110836.444000", "110836.447000", "110836.449000", "110836.452000", "110836.454000", "110836.457000", "110836.459000", "110856.407000", "110856.410000", "110856.412000", "110856.415000", "110856.417000", "110856.420000", "110856.422000", "110856.425000", "110856.427000", "110856.429000", "110856.432000", "110856.434000", "110856.437000", "110856.439000", "110856.442000", "110856.444000", "110856.447000", "110856.449000", "110856.452000", "110856.454000", "110908.218000", "110908.221000", "110908.223000", "110908.226000", "110908.228000", "110908.231000", "110908.233000", "110908.236000", "110908.238000", "110908.241000", "110908.243000", "110908.246000"],
