{
  "AcquisitionMatrixPE": 106,
  "AcquisitionNumber": 1,
  "AcquisitionTime": "11:33:49.917500",
  "BandwidthPerPixelPhaseEncode": 16.846,
  "BaseResolution": 106,
  "BodyPartExamined": "BRAIN",
  "CoilCombinationMethod": "Sum of Squares",
  "ConsistencyInfo": "N4_VE11C_LATEST_20160120",
  "ConversionSoftware": "dcm2niix",
  "ConversionSoftwareVersion": "v1.0.20220720",
  "DerivedVendorReportedEchoSpacing": 0.000560012,
  "DeviceSerialNumber": "166108",
  "DwellTime": 1.8e-06,
  "EchoTime": 0.0352,
  "EchoTrainLength": 106,
  "EffectiveEchoSpacing": 0.000560012,
  "FlipAngle": 60,
  "HeudiconvVersion": "1.3.0",
  "ImageComments": "Unaliased MB4/PE3/LB",
  "ImageOrientationPatientDICOM": [1, 0, 0, 0, 0.97437, -0.224951],
  "ImageOrientationText": "Tra>Cor(-13.0)",
  "ImageType": [
    "ORIGINAL",
    "PRIMARY",
    "M",
    "MB",
    "ND",
    "MOSAIC"
],
  "ImagingFrequency": 123.244,
  "InPlanePhaseEncodingDirectionDICOM": "COL",
  "InstitutionAddress": "Bedford Way 26,London,London,GB,WC1H 0AP",
  "InstitutionName": "University College",
  "InstitutionalDepartmentName": "Department",
  "MRAcquisitionType": "2D",
  "MagneticFieldStrength": 3,
  "Manufacturer": "Siemens",
  "ManufacturersModelName": "Prisma",
  "MatrixCoilMode": "SENSE",
  "Modality": "MR",
  "MultibandAccelerationFactor": 4,
  "NonlinearGradientCorrection": false,
  "PartialFourier": 1,
  "PatientPosition": "HFS",
  "PercentPhaseFOV": 100,
  "PercentSampling": 100,
  "PhaseEncodingDirection": "j-",
  "PhaseEncodingSteps": 106,
  "PhaseResolution": 1,
  "PixelBandwidth": 2620,
  "ProcedureStepDescription": "Egor^MovieProject2",
  "ProtocolName": "func-bold_task-pRF_run-02",
  "PulseSequenceDetails": "%CustomerSeq%\\cmrr_mbep2d_bold",
  "ReceiveCoilActiveElements": "HEA;HEP",
  "ReceiveCoilName": "Head_32",
  "ReconMatrixPE": 106,
  "RepetitionTime": 1,
  "SAR": 0.0738437,
  "ScanOptions": "FS\\EXT",
  "ScanningSequence": "EP",
  "SequenceName": "epfid2d1_106",
  "SequenceVariant": "SK\\SS",
  "SeriesDescription": "func-bold_task-pRF_run-02",
  "SeriesNumber": 12,
  "ShimSetting": [-1493, 633, 7548, 498, 125, 227, 162, -45],
  "SliceThickness": 2,
  "SliceTiming": [0, 0.41, 0.8175, 0.245, 0.655, 0.0825, 0.49, 0.9, 0.3275, 0.735, 0.165, 0.5725, 0, 0.41, 0.8175, 0.245, 0.655, 0.0825, 0.49, 0.9, 0.3275, 0.735, 0.165, 0.5725, 0, 0.41, 0.8175, 0.245, 0.655, 0.0825, 0.49, 0.9, 0.3275, 0.735, 0.165, 0.5725, 0, 0.41, 0.8175, 0.245, 0.655, 0.0825, 0.49, 0.9, 0.3275, 0.735, 0.165, 0.5725],
  "SoftwareVersions": "syngo MR E11",
  "SpacingBetweenSlices": 2,
  "StationName": "AWP166108",
  "TaskName": "retinotopy",
  "TotalReadoutTime": 0.0588013,
  "TxRefAmp": 242.639,
  "WipMemBlock": "4f8adbec-b2e5-423b-bcf2-b8056f277ead||Sequence: R016 ve11c/master r/e634e98; Dec 19 2017 11:00:25 by eja",
  "dcmmeta_affine": [
    [-2.0, 0.0, 0.0, 106.0],
    [0.0, 1.9487401247024536, -0.44990211725234985, -82.12564086914062],
    [0.0, 0.44990211725234985, 1.9487401247024536, -34.64572525024414],
    [0.0, 0.0, 0.0, 1.0]
],
  "dcmmeta_reorient_transform": [
    [0.0, -1.0, 0.0, 105.0],
    [1.0, 0.0, 0.0, 0.0],
    [0.0, 0.0, 1.0, 0.0],
    [0.0, 0.0, 0.0, 1.0]
],
  "dcmmeta_shape": [106, 106, 48, 356],
  "dcmmeta_slice_dim": 2,
  "dcmmeta_version": 0.6,
  "global": {
    "const": {
      "AcquisitionMatrix": [106, 0, 0, 106],
      "AngioFlag": "N",
      "BitsAllocated": 16,
      "BitsStored": 16,
      "BodyPartExamined": "BRAIN",
      "CardiacNumberOfImages": 1,
      "Columns": 742,
      "EchoNumbers": 1,
      "EchoTime": 35.2,
      "EchoTrainLength": 106,
      "FlipAngle": 60.0,
      "HighBit": 15,
      "ImageOrientationPatient": [1.0, 0.0, 0.0, 0.0, 0.97437006476663, -0.2249510544245],
      "ImagePositionPatient": [-742.0, -742.19143128804, 155.6628679451],
      "ImageType": [
        "ORIGINAL",
        "PRIMARY",
        "M",
        "MB",
        "ND",
        "MOSAIC"
],
      "ImagedNucleus": "1H",
      "ImagingFrequency": 123.243607,
      "InPlanePhaseEncodingDirection": "COL",
      "MRAcquisitionType": "2D",
      "MagneticFieldStrength": 3.0,
      "Manufacturer": "SIEMENS",
      "ManufacturerModelName": "Prisma",
      "Modality": "MR",
      "NominalInterval": 0,
      "NumberOfAverages": 1.0,
      "NumberOfPhaseEncodingSteps": 106,
      "PercentPhaseFieldOfView": 100.0,
      "PercentSampling": 100.0,
      "PerformedProcedureStepStartTime": "103708.086000",
      "PhotometricInterpretation": "MONOCHROME2",
      "PixelBandwidth": 2620.0,
      "PixelRepresentation": 0,
      "PixelSpacing": [2.0, 2.0],
      "ProtocolName": "func-bold_task-pRF_run-02",
      "RepetitionTime": 1000.0,
      "Rows": 742,
      "SAR": 0.073843742296,
      "SamplesPerPixel": 1,
      "ScanOptions": [
        "FS",
        "EXT"
],
      "ScanningSequence": "EP",
      "SequenceName": "epfid2d1_106",
      "SequenceVariant": [
        "SK",
        "SS"
],
      "SeriesDescription": "func-bold_task-pRF_run-02",
      "SeriesNumber": 12,
      "SeriesTime": "113416.018000",
      "SliceLocation": -15.283506331634,
      "SliceThickness": 2.0,
      "SmallestImagePixelValue": 0,
      "SoftwareVersions": "syngo MR E11",
      "SpacingBetweenSlices": 2.0000000332056,
      "SpecificCharacterSet": "ISO_IR 100",
      "StudyID": "1",
      "StudyTime": "103708.026000",
      "TransmitCoilName": "Body",
      "VariableFlipAngleFlag": "N",
      "WindowCenterWidthExplanation": "Algo1",
      "dBdt": 0.0},
    "slices": {}
  },
  "time": {
    "samples": {
      "AcquisitionNumber": [1, 2, 3, 4, 5, 6, 7, 8, 9, 10, 11, 12, 13, 14, 15, 16, 17, 18, 19, 20, 21, 22, 23, 24, 25, 26, 27, 28, 29, 30, 31, 32, 33, 34, 35, 36, 37, 38, 39, 40, 41, 42, 43, 44, 45, 46, 47, 48, 49, 50, 51, 52, 53, 54, 55, 56, 57, 58, 59, 60, 61, 62, 63, 64, 65, 66, 67, 68, 69, 70, 71, 72, 73, 74, 75, 76, 77, 78, 79, 80, 81, 82, 83, 84, 85, 86, 87, 88, 89, 90, 91, 92, 93, 94, 95, 96, 97, 98, 99, 100, 101, 102, 103, 104, 105, 106, 107, 108, 109, 110, 111, 112, 113, 114, 115, 116, 117, 118, 119, 120, 121, 122, 123, 124, 125, 126, 127, 128, 129, 130, 131, 132, 133, 134, 135, 136, 137, 138, 139, 140, 141, 142, 143, 144, 145, 146, 147, 148, 149, 150, 151, 152, 153, 154, 155, 156, 157, 158, 159, 160, 161, 162, 163, 164, 165, 166, 167, 168, 169, 170, 171, 172, 173, 174, 175, 176, 177, 178, 179, 180, 181, 182, 183, 184, 185, 186, 187, 188, 189, 190, 191, 192, 193, 194, 195, 196, 197, 198, 199, 200, 201, 202, 203, 204, 205, 206, 207, 208, 209, 210, 211, 212, 213, 214, 215, 216, 217, 218, 219, 220, 221, 222, 223, 224, 225, 226, 227, 228, 229, 230, 231, 232, 233, 234, 235, 236, 237, 238, 239, 240, 241, 242, 243, 244, 245, 246, 247, 248, 249, 250, 251, 252, 253, 254, 255, 256, 257, 258, 259, 260, 261, 262, 263, 264, 265, 266, 267, 268, 269, 270, 271, 272, 273, 274, 275, 276, 277, 278, 279, 280, 281, 282, 283, 284, 285, 286, 287, 288, 289, 290, 291, 292, 293, 294, 295, 296, 297, 298, 299, 300, 301, 302, 303, 304, 305, 306, 307, 308, 309, 310, 311, 312, 313, 314, 315, 316, 317, 318, 319, 320, 321, 322, 323, 324, 325, 326, 327, 328, 329, 330, 331, 332, 333, 334, 335, 336, 337, 338, 339, 340, 341, 342, 343, 344, 345, 346, 347, 348, 349, 350, 351, 352, 353, 354, 355, 356],
      "AcquisitionTime": ["113349.917500", "113350.917500", "113351.917500", "113352.917500", "113353.917500", "113354.917500", "113355.917500", "113356.917500", "113357.917500", "113358.917500", "113359.917500", "113400.917500", "113401.917500", "113402.917500", "113403.917500", "113404.917500", "113405.917500", "113406.917500", "113407.917500", "113408.917500", "113409.917500", "113410.917500", "113411.917500", "113412.917500", "113413.917500", "113414.917500", "113415.917500", "113416.917500", "113417.917500", "113418.917500", "113419.917500", "113420.917500", "113421.917500", "113422.917500", "113423.917500", "113424.917500", "113425.917500", "113426.917500", "113427.917500", "113428.917500", "113429.917500", "113430.917500", "113431.917500", "113432.917500", "113433.917500", "113434.917500", "113435.917500", "113436.917500", "113437.917500", "113438.917500", "113439.917500", "113440.917500", "113441.917500", "113442.917500", "113443.917500", "113444.917500", "113445.917500", "113446.917500", "113447.917500", "113448.917500", "113449.917500", "113450.917500", "113451.917500", "113452.917500", "113453.917500", "113454.917500", "113455.917500", "113456.917500", "113457.917500", "113458.917500", "113459.917500", "113500.917500", "113501.917500", "113502.917500", "113503.917500", "113504.917500", "113505.917500", "113506.917500", "113507.917500", "113508.917500", "113509.917500", "113510.917500", "113511.917500", "113512.917500", "113513.917500", "113514.917500", "113515.917500", "113516.917500", "113517.917500", "113518.917500", "113519.917500", "113520.917500", "113521.917500", "113522.917500", "113523.917500", "113524.917500", "113525.917500", "113526.917500", "113527.917500", "113528.917500", "113529.917500", "113530.917500", "113531.917500", "113532.917500", "113533.917500", "113534.917500", "113535.917500", "113536.917500", "113537.917500", "113538.917500", "113539.917500", "113540.917500", "113541.917500", "113542.917500", "113543.917500", "113544.917500", "113545.917500", "113546.917500", "113547.917500", "113548.917500", "113549.917500", "113550.917500", "113551.917500", "113552.917500", "113553.917500", "113554.917500", "113555.917500", "113556.917500", "113557.917500", "113558.917500", "113559.917500", "113600.917500", "113601.917500", "113602.917500", "113603.917500", "113604.917500", "113605.917500", "113606.917500", "113607.917500", "113608.917500", "113609.917500", "113610.917500", "113611.917500", "113612.917500", "113613.917500", "113614.917500", "113615.917500", "113616.917500", "113617.917500", "113618.917500", "113619.917500", "113620.917500", "113621.917500", "113622.917500", "113623.917500", "113624.917500", "113625.917500", "113626.917500", "113627.917500", "113628.917500", "113629.917500", "113630.917500", "113631.917500", "113632.917500", "113633.917500", "113634.917500", "113635.917500", "113636.917500", "113637.917500", "113638.917500", "113639.917500", "113640.917500", "113641.917500", "113642.917500", "113643.917500", "113644.917500", "113645.917500", "113646.917500", "113647.917500", "113648.917500", "113649.917500", "113650.917500", "113651.917500", "113652.917500", "113653.917500", "113654.917500", "113655.917500", "113656.917500", "113657.917500", "113658.917500", "113659.917500", "113700.917500", "113701.917500", "113702.917500", "113703.917500", "113704.917500", "113705.917500", "113706.917500", "113707.917500", "113708.917500", "113709.917500", "113710.917500", "113711.917500", "113712.917500", "113713.917500", "113714.917500", "113715.917500", "113716.917500", "113717.917500", "113718.917500", "113719.917500", "113720.917500", "113721.917500", "113722.917500", "113723.917500", "113724.917500", "113725.917500", "113726.917500", "113727.917500", "113728.917500", "113729.917500", "113730.917500", "113731.917500", "113732.917500", "113733.917500", "113734.917500", "113735.917500", "113736.917500", "113737.917500", "113738.917500", "113739.917500", "113740.917500", "113741.917500", "113742.917500", "113743.917500", "113744.917500", "113745.917500", "113746.917500", "113747.917500", "113748.917500", "113749.917500", "113750.917500", "113751.917500", "113752.917500", "113753.917500", "113754.917500", "113755.917500", "113756.917500", "113757.917500", "113758.917500", "113759.917500", "113800.917500", "113801.917500", "113802.917500", "113803.917500", "113804.917500", "113805.917500", "113806.917500", "113807.917500", "113808.917500", "113809.917500", "113810.917500", "113811.917500", "113812.917500", "113813.917500", "113814.917500", "113815.917500", "113816.917500", "113817.917500", "113818.917500", "113819.917500", "113820.917500", "113821.917500", "113822.917500", "113823.917500", "113824.917500", "113825.917500", "113826.917500", "113827.917500", "113828.917500", "113829.917500", "113830.917500", "113831.917500", "113832.917500", "113833.917500", "113834.917500", "113835.917500", "113836.917500", "113837.917500", "113838.917500", "113839.917500", "113840.917500", "113841.917500", "113842.917500", "113843.917500", "113844.917500", "113845.917500", "113846.917500", "113847.917500", "113848.917500", "113849.917500", "113850.917500", "113851.917500", "113852.917500", "113853.917500", "113854.917500", "113855.917500", "113856.917500", "113857.917500", "113858.917500", "113859.917500", "113900.917500", "113901.917500", "113902.917500", "113903.917500", "113904.917500", "113905.917500", "113906.917500", "113907.917500", "113908.917500", "113909.917500", "113910.917500", "113911.917500", "113912.917500", "113913.917500", "113914.917500", "113915.917500", "113916.917500", "113917.917500", "113918.917500", "113919.917500", "113920.917500", "113921.917500", "113922.917500", "113923.917500", "113924.917500", "113925.917500", "113926.917500", "113927.917500", "113928.917500", "113929.917500", "113930.917500", "113931.917500", "113932.917500", "113933.917500", "113934.917500", "113935.917500", "113936.917500", "113937.917500", "113938.917500", "113939.917500", "113940.917500", "113941.917500", "113942.917500", "113943.917500", "113944.917500"],
      "ContentTime": ["113416.020000", "113416.023000", "113416.036000", "113416.038000", "113416.041000", "113416.047000", "113416.051000", "113416.054000", "113416.056000", "113416.059000", "113416.061000", "113416.068000", "113416.071000", "113416.073000", "113416.076000", "113416.079000", "113416.081000", "113416.084000", "113416.086000", "113416.088000", "113416.091000", "113416.093000", "113435.988000", "113435.991000", "113435.994000", "113435.996000", "113436.000000", "113436.002000", "113436.010000", "113436.019000", "113436.022000", "113436.025000", "113436.027000", "113436.029000", "113436.032000", "113436.034000", "113436.037000", "113436.039000", "113436.041000", "113436.044000", "113436.046000", "113436.049000", "113436.051000", "113436.054000", "113436.056000", "113455.988000", "113455.991000", "113455.994000", "113455.996000", "113456.000000", "113456.003000", "113456.005000", "113456.007000", "113456.010000", "113456.012000", "113456.015000", "113456.017000", "113456.020000", "113456.022000", "113456.025000", "113456.027000", "113456.030000", "113456.032000", "113456.034000", "113456.037000", "113515.988000", "113515.991000", "113515.993000", "113515.996000", "113515.998000", "113516.002000", "113516.004000", "113516.007000", "113516.009000", "113516.012000", "113516.014000", "113516.017000", "113516.019000", "113516.022000", "113516.035000", "113516.038000", "113516.040000", "113516.043000", "113516.045000", "113516.047000", "113535.989000", "113535.992000", "113535.995000", "113535.997000", "113536.000000", "113536.002000", "113536.005000", "113536.007000", "113536.010000", "113536.012000", "113536.015000", "113536.017000", "113536.020000", "113536.022000", "113536.025000", "113536.027000", "113536.030000", "113536.032000", "113536.034000", "113536.037000", "113555.989000", "113555.992000", "113555.995000", "113555.997000", "113556.001000", "113556.003000", "113556.006000", "113556.008000", "113556.011000", "113556.013000", "113556.015000", "113556.018000", "113556.020000", "113556.023000", "113556.025000", "113556.028000", "113556.030000", "113556.033000", "113556.035000", "113556.038000", "113615.988000", "113615.991000", "113615.994000", "113615.996000", "113616.000000", "113616.002000", "113616.005000", "113616.007000", "113616.010000", "113616.012000", "113616.015000", "113616.017000", "113616.020000", "113616.022000", "113616.025000", "113616.027000", "113616.030000", "113616.032000", "113616.034000", "113616.037000", "113635.988000", "113635.991000", "113635.993000", "113635.996000", "113635.998000", "113636.002000", "113636.004000", "113636.007000", "113636.009000", "113636.012000", "113636.014000", "113636.017000", "113636.019000", "113636.022000", "113636.024000", "113636.027000", "113636.029000", "113636.032000", "113636.034000", "113636.037000", "113655.988000", "113655.991000", "113655.994000", "113655.996000", "113656.000000", "113656.002000", "113656.005000", "113656.007000", "113656.010000", "113656.012000", "113656.015000", "113656.017000", "113656.020000", "113656.022000", "113656.025000", "113656.027000", "113656.030000", "113656.032000", "113656.035000", "113656.037000", "113715.989000", "113715.991000", "113715.994000", "113715.996000", "113716.000000", "113716.002000", "113716.005000", "113716.007000", "113716.010000", "113716.012000", "113716.015000", "113716.017000", "113716.020000", "113716.022000", "113716.025000", "113716.027000", "113716.030000", "113716.032000", "113716.035000", "113716.037000", "113735.989000", "113735.991000", "113735.994000", "113735.996000", "113736.001000", "113736.004000", "113736.006000", "113736.009000", "113736.011000", "113736.014000", "113736.016000", "113736.019000", "113736.021000", "113736.024000", "113736.026000", "113736.033000", "113736.036000", "113736.038000", "113736.041000", "113736.043000", "113755.989000", "113755.992000", "113755.995000", "113755.997000", "113756.000000", "113756.002000", "113756.005000", "113756.007000", "113756.010000", "113756.012000", "113756.015000", "113756.017000", "113756.020000", "113756.033000", "113756.035000", "113756.038000", "113756.040000", "113756.043000", "113756.045000", "113756.047000", "113815.989000", "113815.992000", "113815.995000", "113815.997000", "113816.001000", "113816.003000", "113816.006000", "113816.008000", "113816.011000", "113816.013000", "113816.016000", "113816.018000", "113816.021000", "113816.023000", "113816.026000", "113816.028000", "113816.042000", "113816.044000", "113816.047000", "113816.049000", "113835.988000", "113835.991000", "113835.994000", "113835.996000", "113836.000000", "113836.002000", "113836.005000", "113836.007000", "113836.010000", "113836.012000", "113836.015000", "113836.017000", "113836.020000", "113836.022000", "113836.025000", "113836.027000", "113836.030000", "113836.032000", "113836.035000", "113836.037000", "113855.988000", "113855.991000", "113855.994000", "113855.996000", "113856.000000", "113856.002000", "113856.005000", "113856.007000", "113856.010000", "113856.013000", "113856.015000", "113856.018000", "113856.020000", "113856.022000", "113856.025000", "113856.027000", "113856.030000", "113856.032000", "113856.035000", "113856.037000", "113915.988000", "113915.991000", "113915.994000", "113915.996000", "113916.000000", "113916.002000", "113916.005000", "113916.007000", "113916.010000", "113916.012000", "113916.015000", "113916.017000", "113916.020000", "113916.022000", "113916.025000", "113916.027000", "113916.030000", "113916.032000", "113916.035000", "113916.037000", "113935.988000", "113935.991000", "113935.994000", "113935.997000", "113936.000000", "113936.003000", "113936.005000", "113936.007000", "113936.010000", "113936.012000", "113936.015000", "113936.017000", "113936.020000", "113936.022000", "113936.025000", "113936.027000", "113936.030000", "113936.032000", "113936.035000", "113936.037000", "113946.767000", "113946.770000", "113946.773000", "113946.775000", "113946.778000", "113946.780000", "113946.783000", "113946.785000", "113946.788000", "113946.790000", "113946.793000"],
      "InstanceCreationTime": ["113416.020000", "113416.023000", "113416.036000", "113416.038000", "113416.041000", "113416.047000", "113416.051000", "113416.054000", "113416.056000", "113416.059000", "113416.061000", "113416.068000", "113416.071000", "113416.073000", "113416.076000", "113416.079000", "113416.081000", "113416.084000", "113416.086000", "113416.088000", "113416.091000", "113416.093000", "113435.988000", "113435.991000", "113435.994000", "113435.996000", "113436.000000", "113436.002000", "113436.010000", "113436.019000", "113436.022000", "113436.025000", "113436.027000", "113436.029000", "113436.032000", "113436.034000", "113436.037000", "113436.039000", "113436.041000", "113436.044000", "113436.046000", "113436.049000", "113436.051000", "113436.054000", "113436.056000", "113455.988000", "113455.991000", "113455.994000", "113455.996000", "113456.000000", "113456.003000", "113456.005000", "113456.007000", "113456.010000", "113456.012000", "113456.015000", "113456.017000", "113456.020000", "113456.022000", "113456.025000", "113456.027000", "113456.030000", "113456.032000", "113456.034000", "113456.037000", "113515.988000", "113515.991000", "113515.993000", "113515.996000", "113515.998000", "113516.002000", "113516.004000", "113516.007000", "113516.009000", "113516.012000", "113516.014000", "113516.017000", "113516.019000", "113516.022000", "113516.035000", "113516.038000", "113516.040000", "113516.043000", "113516.045000", "113516.047000", "113535.989000", "113535.992000", "113535.995000", "113535.997000", "113536.000000", "113536.002000", "113536.005000", "113536.007000", "113536.010000", "113536.012000", "113536.015000", "113536.017000", "113536.020000", "113536.022000", "113536.025000", "113536.027000", "113536.030000", "113536.032000", "113536.034000", "113536.037000", "113555.989000", "113555.992000", "113555.995000", "113555.997000", "113556.001000", "113556.003000", "113556.006000", "113556.008000", "113556.011000", "113556.013000", "113556.015000", "113556.018000", "113556.020000", "113556.023000", "113556.025000", "113556.028000", "113556.030000", "113556.033000", "113556.035000", "113556.038000", "113615.988000", "113615.991000", "113615.994000", "113615.996000", "113616.000000", "113616.002000", "113616.005000", "113616.007000", "113616.010000", "113616.012000", "113616.015000", "113616.017000", "113616.020000", "113616.022000", "113616.025000", "113616.027000", "113616.030000", "113616.032000", "113616.034000", "113616.037000", "113635.988000", "113635.991000", "113635.993000", "113635.996000", "113635.998000", "113636.002000", "113636.004000", "113636.007000", "113636.009000", "113636.012000", "113636.014000", "113636.017000", "113636.019000", "113636.022000", "113636.024000", "113636.027000", "113636.029000", "113636.032000", "113636.034000", "113636.037000", "113655.988000", "113655.991000", "113655.994000", "113655.996000", "113656.000000", "113656.002000", "113656.005000", "113656.007000", "113656.010000", "113656.012000", "113656.015000", "113656.017000", "113656.020000", "113656.022000", "113656.025000", "113656.027000", "113656.030000", "113656.032000", "113656.035000", "113656.037000", "113715.989000", "113715.991000", "113715.994000", "113715.996000", "113716.000000", "113716.002000", "113716.005000", "113716.007000", "113716.010000", "113716.012000", "113716.015000", "113716.017000", "113716.020000", "113716.022000", "113716.025000", "113716.027000", "113716.030000", "113716.032000", "113716.035000", "113716.037000", "113735.989000", "113735.991000", "113735.994000", "113735.996000", "113736.001000", "113736.004000", "113736.006000", "113736.009000", "113736.011000", "113736.014000", "113736.016000", "113736.019000", "113736.021000", "113736.024000", "113736.026000", "113736.033000", "113736.036000", "113736.038000", "113736.041000", "113736.043000", "113755.989000", "113755.992000", "113755.995000", "113755.997000", "113756.000000", "113756.002000", "113756.005000", "113756.007000", "113756.010000", "113756.012000", "113756.015000", "113756.017000", "113756.020000", "113756.033000", "113756.035000", "113756.038000", "113756.040000", "113756.043000", "113756.045000", "113756.047000", "113815.989000", "113815.992000", "113815.995000", "113815.997000", "113816.001000", "113816.003000", "113816.006000", "113816.008000", "113816.011000", "113816.013000", "113816.016000", "113816.018000", "113816.021000", "113816.023000", "113816.026000", "113816.028000", "113816.042000", "113816.044000", "113816.047000", "113816.049000", "113835.988000", "113835.991000", "113835.994000", "113835.996000", "113836.000000", "113836.002000", "113836.005000", "113836.007000", "113836.010000", "113836.012000", "113836.015000", "113836.017000", "113836.020000", "113836.022000", "113836.025000", "113836.027000", "113836.030000", "113836.032000", "113836.035000", "113836.037000", "113855.988000", "113855.991000", "113855.994000", "113855.996000", "113856.000000", "113856.002000", "113856.005000", "113856.007000", "113856.010000", "113856.013000", "113856.015000", "113856.018000", "113856.020000", "113856.022000", "113856.025000", "113856.027000", "113856.030000", "113856.032000", "113856.035000", "113856.037000", "113915.988000", "113915.991000", "113915.994000", "113915.996000", "113916.000000", "113916.002000", "113916.005000", "113916.007000", "113916.010000", "113916.012000", "113916.015000", "113916.017000", "113916.020000", "113916.022000", "113916.025000", "113916.027000", "113916.030000", "113916.032000", "113916.035000", "113916.037000", "113935.988000", "113935.991000", "113935.994000", "113935.997000", "113936.000000", "113936.003000", "113936.005000", "113936.007000", "113936.010000", "113936.012000", "113936.015000", "113936.017000", "113936.020000", "113936.022000", "113936.025000", "113936.027000", "113936.030000", "113936.032000", "113936.035000", "113936.037000", "113946.767000", "113946.770000", "113946.773000", "113946.775000", "113946.778000", "113946.780000", "113946.783000", "113946.785000", "113946.788000", "113946.790000", "113946.793000"],
      "InstanceNumber": [1, 2, 3, 4, 5, 6, 7, 8, 9, 10, 11, 12, 13, 14, 15, 16, 17, 18, 19, 20, 21, 22, 23, 24, 25, 26, 27, 28, 29, 30, 31, 32, 33, 34, 35, 36, 37, 38, 39, 40, 41, 42, 43, 44, 45, 46, 47, 48, 49, 50, 51, 52, 53, 54, 55, 56, 57, 58, 59, 60, 61, 62, 63, 64, 65, 66, 67, 68, 69, 70, 71, 72, 73, 74, 75, 76, 77, 78, 79, 80, 81, 82, 83, 84, 85, 86, 87, 88, 89, 90, 91, 92, 93, 94, 95, 96, 97, 98, 99, 100, 101, 102, 103, 104, 105, 106, 107, 108, 109, 110, 111, 112, 113, 114, 115, 116, 117, 118, 119, 120, 121, 122, 123, 124, 125, 126, 127, 128, 129, 130, 131, 132, 133, 134, 135, 136, 137, 138, 139, 140, 141, 142, 143, 144, 145, 146, 147, 148, 149, 150, 151, 152, 153, 154, 155, 156, 157, 158, 159, 160, 161, 162, 163, 164, 165, 166, 167, 168, 169, 170, 171, 172, 173, 174, 175, 176, 177, 178, 179, 180, 181, 182, 183, 184, 185, 186, 187, 188, 189, 190, 191, 192, 193, 194, 195, 196, 197, 198, 199, 200, 201, 202, 203, 204, 205, 206, 207, 208, 209, 210, 211, 212, 213, 214, 215, 216, 217, 218, 219, 220, 221, 222, 223, 224, 225, 226, 227, 228, 229, 230, 231, 232, 233, 234, 235, 236, 237, 238, 239, 240, 241, 242, 243, 244, 245, 246, 247, 248, 249, 250, 251, 252, 253, 254, 255, 256, 257, 258, 259, 260, 261, 262, 263, 264, 265, 266, 267, 268, 269, 270, 271, 272, 273, 274, 275, 276, 277, 278, 279, 280, 281, 282, 283, 284, 285, 286, 287, 288, 289, 290, 291, 292, 293, 294, 295, 296, 297, 298, 299, 300, 301, 302, 303, 304, 305, 306, 307, 308, 309, 310, 311, 312, 313, 314, 315, 316, 317, 318, 319, 320, 321, 322, 323, 324, 325, 326, 327, 328, 329, 330, 331, 332, 333, 334, 335, 336, 337, 338, 339, 340, 341, 342, 343, 344, 345, 346, 347, 348, 349, 350, 351, 352, 353, 354, 355, 356],
      "LargestImagePixelValue": [10140, 9580, 8998, 9088, 9021, 8751, 8899, 9026, 9434, 9706, 9526, 9114, 9128, 8926, 8972, 9212, 9015, 8821, 8718, 8925, 8784, 9023, 8656, 8673, 8891, 8911, 8748, 8805, 9042, 9139, 9242, 9126, 8973, 9015, 9059, 8998, 8805, 9044, 9137, 9238, 9258, 9422, 9205, 9292, 9046, 9254, 9129, 9492, 9488, 9279, 9131, 8743, 9015, 8901, 9288, 8980, 8880, 8970, 9097, 9034, 9206, 9243, 9208, 9024, 8732, 8778, 9063, 8995, 9025, 9008, 8857, 8856, 8835, 8902, 9013, 9093, 9193, 9231, 9173, 9074, 9076, 9104, 9161, 9236, 9200, 9158, 9004, 8947, 8864, 8905, 9092, 9189, 9086, 9207, 9077, 8840, 9045, 9058, 8939, 9237, 9223, 9025, 8913, 8852, 9006, 8944, 8983, 9013, 9064, 9201, 8977, 8892, 8726, 8703, 8596, 8530, 8629, 8660, 8818, 8710, 8663, 8841, 8926, 8897, 8787, 8908, 8938, 9236, 9056, 9044, 8978, 8959, 9161, 9160, 8964, 8852, 8848, 9126, 9139, 9337, 9171, 9168, 8866, 8851, 8852, 9004, 9198, 9257, 9034, 9013, 8905, 8852, 9081, 9145, 9287, 9285, 9241, 9192, 9126, 8891, 8772, 8960, 9133, 8953, 9165, 9136, 8956, 9022, 9509, 9220, 8957, 8817, 8914, 8874, 8665, 8810, 8774, 8740, 8718, 8760, 8807, 8875, 8686, 8753, 8738, 8806, 8946, 8798, 8894, 8866, 8907, 8918, 8904, 9006, 9246, 9289, 9490, 9395, 9233, 9021, 9069, 8773, 8886, 9000, 9064, 9010, 8925, 9007, 8784, 8819, 8913, 8777, 8792, 8924, 8847, 8882, 8982, 9193, 9034, 8990, 9090, 9161, 8703, 8801, 8835, 8968, 8749, 8738, 8864, 8733, 8784, 8930, 8927, 9079, 8952, 9126, 8791, 8755, 8787, 8746, 8830, 8601, 8948, 8716, 8709, 8724, 8791, 8773, 8736, 8767, 8732, 8848, 8787, 8883, 8668, 8823, 8748, 8973, 8942, 8969, 8944, 8833, 8808, 8884, 9127, 9255, 9471, 9425, 9301, 9367, 9498, 9725, 9582, 9526, 9108, 8979, 8746, 8947, 8990, 8882, 9043, 8824, 8796, 8734, 8783, 8947, 9058, 9070, 8954, 8828, 8644, 8594, 8733, 8848, 8720, 8734, 8566, 8755, 8579, 8572, 8741, 8708, 8644, 8708, 8933, 8632, 8607, 8672, 8782, 8776, 9122, 9156, 9051, 9130, 8885, 8865, 8912, 8854, 9042, 8895, 9009, 9251, 9003, 9210, 9095, 9199, 9404, 9160, 9057, 9027, 8986, 9108, 9204, 9178, 9424, 9365, 9363, 9309, 9260, 9201, 9016, 9156, 9054, 9016, 8742, 8890, 8861, 8909, 8943, 9078, 9146, 8926, 8822, 9140, 9167, 8887],
