{
  "AcquisitionMatrixPE": 106,
  "AcquisitionNumber": 1,
  "AcquisitionTime": "12:11:14.785000",
  "BandwidthPerPixelPhaseEncode": 13.477,
  "BaseResolution": 106,
  "BodyPartExamined": "BRAIN",
  "CoilCombinationMethod": "Sum of Squares",
  "ConsistencyInfo": "N4_VE11C_LATEST_20160120",
  "ConversionSoftware": "dcm2niix",
  "ConversionSoftwareVersion": "v1.0.20220720",
  "DerivedVendorReportedEchoSpacing": 0.000700005,
  "DeviceSerialNumber": "166108",
  "DwellTime": 2.6e-06,
  "EchoTime": 0.03,
  "EchoTrainLength": 80,
  "EffectiveEchoSpacing": 0.000700005,
  "FlipAngle": 62,
  "HeudiconvVersion": "1.3.0",
  "ImageComments": "Unaliased MB4/PE3/LB",
  "ImageOrientationPatientDICOM": [1, 0, 0, 0, 0.95424, -0.299041],
  "ImageOrientationText": "Tra>Cor(-17.4)",
  "ImageType": [
    "ORIGINAL",
    "PRIMARY",
    "M",
    "MB",
    "ND",
    "MOSAIC"
],
  "ImagingFrequency": 123.244,
  "InPlanePhaseEncodingDirectionDICOM": "COL",
  "InstitutionAddress": "Bedford Way 26,London,London,GB,WC1H 0AP",
  "InstitutionName": "University College",
  "InstitutionalDepartmentName": "Department",
  "MRAcquisitionType": "2D",
  "MagneticFieldStrength": 3,
  "Manufacturer": "Siemens",
  "ManufacturersModelName": "Prisma",
  "MatrixCoilMode": "SENSE",
  "Modality": "MR",
  "MultibandAccelerationFactor": 4,
  "NonlinearGradientCorrection": false,
  "PartialFourier": 0.75,
  "PatientPosition": "HFS",
  "PercentPhaseFOV": 100,
  "PercentSampling": 100,
  "PhaseEncodingDirection": "j-",
  "PhaseEncodingSteps": 80,
  "PhaseResolution": 1,
  "PixelBandwidth": 1815,
  "ProcedureStepDescription": "Egor^MovieProject2",
  "ProtocolName": "func-bold_task-tono_run-02",
  "PulseSequenceDetails": "%CustomerSeq%\\cmrr_mbep2d_bold",
  "ReceiveCoilActiveElements": "HEA;HEP",
  "ReceiveCoilName": "Head_32",
  "ReconMatrixPE": 106,
  "RepetitionTime": 1,
  "SAR": 0.0477411,
  "ScanOptions": "PFP\\FS\\EXT",
  "ScanningSequence": "EP",
  "SequenceName": "epfid2d1_106",
  "SequenceVariant": "SK\\SS",
  "SeriesDescription": "func-bold_task-tono_run-02",
  "SeriesNumber": 23,
  "ShimSetting": [-1495, 633, 7517, 507, 22, 179, 163, -58],
  "SliceThickness": 2,
  "SliceTiming": [0, 0.535, 0.09, 0.6225, 0.1775, 0.7125, 0.2675, 0.8025, 0.3575, 0.89, 0.445, 0, 0.535, 0.09, 0.6225, 0.1775, 0.7125, 0.2675, 0.8025, 0.3575, 0.89, 0.445, 0, 0.535, 0.09, 0.6225, 0.1775, 0.7125, 0.2675, 0.8025, 0.3575, 0.89, 0.445, 0, 0.535, 0.09, 0.6225, 0.1775, 0.7125, 0.2675, 0.8025, 0.3575, 0.89, 0.445],
  "SoftwareVersions": "syngo MR E11",
  "SpacingBetweenSlices": 2,
  "StationName": "AWP166108",
  "TaskName": "tonotopy",
  "TotalReadoutTime": 0.0735005,
  "TxRefAmp": 254.314,
  "WipMemBlock": "393bc831-177a-428d-bfda-740902ba2739||Sequence: R016 ve11c/master r/e634e98; Dec 19 2017 11:00:25 by eja",
  "dcmmeta_affine": [
    [-2.0, 0.0, 0.0, 106.0],
    [0.0, 1.9084806442260742, -0.5980815887451172, -76.60413360595703],
    [0.0, 0.5980815887451172, 1.9084806442260742, -48.95243835449219],
    [0.0, 0.0, 0.0, 1.0]
],
  "dcmmeta_reorient_transform": [
    [0.0, -1.0, 0.0, 105.0],
    [1.0, 0.0, 0.0, 0.0],
    [0.0, 0.0, 1.0, 0.0],
    [0.0, 0.0, 0.0, 1.0]
],
  "dcmmeta_shape": [106, 106, 44, 264],
  "dcmmeta_slice_dim": 2,
  "dcmmeta_version": 0.6,
  "global": {
    "const": {
      "AcquisitionMatrix": [106, 0, 0, 106],
      "AngioFlag": "N",
      "BitsAllocated": 16,
      "BitsStored": 16,
      "BodyPartExamined": "BRAIN",
      "CardiacNumberOfImages": 1,
      "Columns": 742,
      "EchoNumbers": 1,
      "EchoTime": 30.0,
      "EchoTrainLength": 80,
      "FlipAngle": 62.0,
      "HighBit": 15,
      "ImageOrientationPatient": [1.0, 0.0, 0.0, 0.0, 0.95424032651267, -0.2990407986496],
      "ImagePositionPatient": [-742.0, -730.68318025885, 204.03607876561],
      "ImageType": [
        "ORIGINAL",
        "PRIMARY",
        "M",
        "MB",
        "ND",
        "MOSAIC"
],
      "ImagedNucleus": "1H",
      "ImagingFrequency": 123.243612,
      "InPlanePhaseEncodingDirection": "COL",
      "MRAcquisitionType": "2D",
      "MagneticFieldStrength": 3.0,
      "Manufacturer": "SIEMENS",
      "ManufacturerModelName": "Prisma",
      "Modality": "MR",
      "NominalInterval": 0,
      "NumberOfAverages": 1.0,
      "NumberOfPhaseEncodingSteps": 80,
      "PercentPhaseFieldOfView": 100.0,
      "PercentSampling": 100.0,
      "PerformedProcedureStepStartTime": "103708.086000",
      "PhotometricInterpretation": "MONOCHROME2",
      "PixelBandwidth": 1815.0,
      "PixelRepresentation": 0,
      "PixelSpacing": [2.0, 2.0],
      "ProtocolName": "func-bold_task-tono_run-02",
      "RepetitionTime": 1000.0,
      "Rows": 742,
      "SAR": 0.04774106219356,
      "SamplesPerPixel": 1,
      "ScanOptions": [
        "PFP",
        "FS",
        "EXT"
],
      "ScanningSequence": "EP",
      "SequenceName": "epfid2d1_106",
      "SequenceVariant": [
        "SK",
        "SS"
],
      "SeriesDescription": "func-bold_task-tono_run-02",
      "SeriesNumber": 23,
      "SeriesTime": "121148.231000",
      "SliceLocation": -23.80462736278,
      "SliceThickness": 2.0,
      "SmallestImagePixelValue": 0,
      "SoftwareVersions": "syngo MR E11",
      "SpacingBetweenSlices": 1.9999999288707,
      "SpecificCharacterSet": "ISO_IR 100",
      "StudyID": "1",
      "StudyTime": "103708.026000",
      "TransmitCoilName": "Body",
      "VariableFlipAngleFlag": "N",
      "WindowCenterWidthExplanation": "Algo1",
      "dBdt": 0.0},
    "slices": {}
  },
  "time": {
    "samples": {
      "AcquisitionNumber": [1, 2, 3, 4, 5, 6, 7, 8, 9, 10, 11, 12, 13, 14, 15, 16, 17, 18, 19, 20, 21, 22, 23, 24, 25, 26, 27, 28, 29, 30, 31, 32, 33, 34, 35, 36, 37, 38, 39, 40, 41, 42, 43, 44, 45, 46, 47, 48, 49, 50, 51, 52, 53, 54, 55, 56, 57, 58, 59, 60, 61, 62, 63, 64, 65, 66, 67, 68, 69, 70, 71, 72, 73, 74, 75, 76, 77, 78, 79, 80, 81, 82, 83, 84, 85, 86, 87, 88, 89, 90, 91, 92, 93, 94, 95, 96, 97, 98, 99, 100, 101, 102, 103, 104, 105, 106, 107, 108, 109, 110, 111, 112, 113, 114, 115, 116, 117, 118, 119, 120, 121, 122, 123, 124, 125, 126, 127, 128, 129, 130, 131, 132, 133, 134, 135, 136, 137, 138, 139, 140, 141, 142, 143, 144, 145, 146, 147, 148, 149, 150, 151, 152, 153, 154, 155, 156, 157, 158, 159, 160, 161, 162, 163, 164, 165, 166, 167, 168, 169, 170, 171, 172, 173, 174, 175, 176, 177, 178, 179, 180, 181, 182, 183, 184, 185, 186, 187, 188, 189, 190, 191, 192, 193, 194, 195, 196, 197, 198, 199, 200, 201, 202, 203, 204, 205, 206, 207, 208, 209, 210, 211, 212, 213, 214, 215, 216, 217, 218, 219, 220, 221, 222, 223, 224, 225, 226, 227, 228, 229, 230, 231, 232, 233, 234, 235, 236, 237, 238, 239, 240, 241, 242, 243, 244, 245, 246, 247, 248, 249, 250, 251, 252, 253, 254, 255, 256, 257, 258, 259, 260, 261, 262, 263, 264],
      "AcquisitionTime": ["121114.785000", "121115.785000", "121116.785000", "121117.785000", "121118.785000", "121119.785000", "121120.785000", "121121.785000", "121122.785000", "121123.785000", "121124.785000", "121125.785000", "121126.785000", "121127.785000", "121128.785000", "121129.785000", "121130.785000", "121131.785000", "121132.785000", "121133.785000", "121134.785000", "121135.785000", "121136.785000", "121137.785000", "121138.785000", "121139.785000", "121140.785000", "121141.785000", "121142.785000", "121143.785000", "121144.785000", "121145.785000", "121146.785000", "121147.785000", "121148.785000", "121149.785000", "121150.785000", "121151.785000", "121152.785000", "121153.785000", "121154.785000", "121155.785000", "121156.785000", "121157.785000", "121158.785000", "121159.785000", "121200.785000", "121201.785000", "121202.785000", "121203.785000", "121204.785000", "121205.785000", "121206.785000", "121207.785000", "121208.785000", "121209.785000", "121210.785000", "121211.785000", "121212.785000", "121213.785000", "121214.785000", "121215.785000", "121216.785000", "121217.785000", "121218.785000", "121219.785000", "121220.785000", "121221.785000", "121222.785000", "121223.785000", "121224.785000", "121225.785000", "121226.785000", "121227.785000", "121228.785000", "121229.785000", "121230.785000", "121231.785000", "121232.785000", "121233.785000", "121234.785000", "121235.785000", "121236.785000", "121237.785000", "121238.785000", "121239.785000", "121240.785000", "121241.785000", "121242.785000", "121243.785000", "121244.785000", "121245.785000", "121246.785000", "121247.785000", "121248.785000", "121249.785000", "121250.785000", "121251.785000", "121252.785000", "121253.785000", "121254.785000", "121255.785000", "121256.785000", "121257.785000", "121258.785000", "121259.785000", "121300.785000", "121301.785000", "121302.785000", "121303.785000", "121304.785000", "121305.785000", "121306.785000", "121307.785000", "121308.785000", "121309.785000", "121310.785000", "121311.785000", "121312.785000", "121313.785000", "121314.785000", "121315.785000", "121316.785000", "121317.785000", "121318.785000", "121319.785000", "121320.785000", "121321.785000", "121322.785000", "121323.785000", "121324.785000", "121325.785000", "121326.785000", "121327.785000", "121328.785000", "121329.785000", "121330.785000", "121331.785000", "121332.785000", "121333.785000", "121334.785000", "121335.785000", "121336.785000", "121337.785000", "121338.785000", "121339.785000", "121340.785000", "121341.785000", "121342.785000", "121343.785000", "121344.785000", "121345.785000", "121346.785000", "121347.785000", "121348.785000", "121349.785000", "121350.785000", "121351.785000", "121352.785000", "121353.785000", "121354.785000", "121355.785000", "121356.785000", "121357.785000", "121358.785000", "121359.785000", "121400.785000", "121401.785000", "121402.785000", "121403.785000", "121404.785000", "121405.785000", "121406.785000", "121407.785000", "121408.785000", "121409.785000", "121410.785000", "121411.785000", "121412.785000", "121413.785000", "121414.785000", "121415.785000", "121416.785000", "121417.785000", "121418.785000", "121419.785000", "121420.785000", "121421.785000", "121422.785000", "121423.785000", "121424.785000", "121425.785000", "121426.785000", "121427.785000", "121428.785000", "121429.785000", "121430.785000", "121431.785000", "121432.785000", "121433.785000", "121434.785000", "121435.785000", "121436.785000", "121437.785000", "121438.785000", "121439.785000", "121440.785000", "121441.785000", "121442.785000", "121443.785000", "121444.785000", "121445.785000", "121446.785000", "121447.785000", "121448.785000", "121449.785000", "121450.785000", "121451.785000", "121452.785000", "121453.785000", "121454.785000", "121455.785000", "121456.785000", "121457.785000", "121458.785000", "121459.785000", "121500.785000", "121501.785000", "121502.785000", "121503.785000", "121504.785000", "121505.785000", "121506.785000", "121507.785000", "121508.785000", "121509.785000", "121510.785000", "121511.785000", "121512.785000", "121513.785000", "121514.785000", "121515.785000", "121516.785000", "121517.785000", "121518.785000", "121519.785000", "121520.785000", "121521.785000", "121522.785000", "121523.785000", "121524.785000", "121525.785000", "121526.785000", "121527.785000", "121528.785000", "121529.785000", "121530.785000", "121531.785000", "121532.785000", "121533.785000", "121534.785000", "121535.785000", "121536.785000", "121537.785000"],
      "ContentTime": ["121148.234000", "121148.237000", "121148.240000", "121148.242000", "121148.244000", "121148.247000", "121148.249000", "121148.252000", "121148.254000", "121148.257000", "121148.259000", "121148.262000", "121148.264000", "121148.267000", "121148.269000", "121148.272000", "121148.274000", "121148.277000", "121148.279000", "121148.282000", "121148.284000", "121148.287000", "121148.295000", "121148.297000", "121148.299000", "121148.302000", "121148.304000", "121148.307000", "121148.309000", "121148.312000", "121148.314000", "121148.317000", "121208.186000", "121208.189000", "121208.192000", "121208.194000", "121208.197000", "121208.199000", "121208.202000", "121208.204000", "121208.207000", "121208.209000", "121208.212000", "121208.214000", "121208.217000", "121208.219000", "121208.222000", "121208.224000", "121208.227000", "121208.229000", "121208.232000", "121208.234000", "121228.185000", "121228.188000", "121228.191000", "121228.193000", "121228.196000", "121228.198000", "121228.201000", "121228.203000", "121228.206000", "121228.208000", "121228.211000", "121228.213000", "121228.216000", "121228.218000", "121228.228000", "121228.230000", "121228.233000", "121228.235000", "121228.238000", "121228.240000", "121248.185000", "121248.198000", "121248.200000", "121248.203000", "121248.205000", "121248.208000", "121248.210000", "121248.213000", "121248.215000", "121248.218000", "121248.220000", "121248.223000", "121248.225000", "121248.228000", "121248.230000", "121248.233000", "121248.235000", "121248.238000", "121248.240000", "121248.242000", "121308.185000", "121308.188000", "121308.191000", "121308.193000", "121308.196000", "121308.198000", "121308.201000", "121308.203000", "121308.206000", "121308.208000", "121308.211000", "121308.213000", "121308.215000", "121308.218000", "121308.221000", "121308.223000", "121308.225000", "121308.228000", "121308.231000", "121308.233000", "121328.185000", "121328.188000", "121328.191000", "121328.193000", "121328.196000", "121328.198000", "121328.201000", "121328.203000", "121328.206000", "121328.208000", "121328.211000", "121328.213000", "121328.216000", "121328.218000", "121328.221000", "121328.223000", "121328.226000", "121328.228000", "121328.231000", "121328.233000", "121348.186000", "121348.189000", "121348.192000", "121348.194000", "121348.196000", "121348.199000", "121348.201000", "121348.204000", "121348.206000", "121348.209000", "121348.211000", "121348.214000", "121348.216000", "121348.219000", "121348.221000", "121348.224000", "121348.226000", "121348.229000", "121348.231000", "121348.234000", "121408.187000", "121408.189000", "121408.192000", "121408.194000", "121408.197000", "121408.199000", "121408.202000", "121408.204000", "121408.207000", "121408.209000", "121408.212000", "121408.222000", "121408.225000", "121408.227000", "121408.230000", "121408.232000", "121408.235000", "121408.237000", "121408.240000", "121408.242000", "121428.187000", "121428.189000", "121428.192000", "121428.194000", "121428.197000", "121428.200000", "121428.202000", "121428.205000", "121428.207000", "121428.210000", "121428.212000", "121428.215000", "121428.217000", "121428.220000", "121428.222000", "121428.224000", "121428.227000", "121428.229000", "121428.232000", "121428.234000", "121448.185000", "121448.188000", "121448.191000", "121448.193000", "121448.196000", "121448.199000", "121448.201000", "121448.203000", "121448.206000", "121448.209000", "121448.211000", "121448.214000", "121448.216000", "121448.219000", "121448.221000", "121448.224000", "121448.226000", "121448.229000", "121448.231000", "121448.234000", "121508.197000", "121508.199000", "121508.202000", "121508.204000", "121508.207000", "121508.210000", "121508.212000", "121508.214000", "121508.217000", "121508.219000", "121508.222000", "121508.224000", "121508.227000", "121508.229000", "121508.232000", "121508.234000", "121508.237000", "121508.239000", "121508.242000", "121508.244000", "121528.185000", "121528.188000", "121528.191000", "121528.193000", "121528.196000", "121528.198000", "121528.201000", "121528.203000", "121528.205000", "121528.208000", "121528.210000", "121528.213000", "121528.215000", "121528.218000", "121528.220000", "121528.223000", "121528.225000", "121528.228000", "121528.230000", "121528.233000", "121539.547000", "121539.550000", "121539.553000", "121539.555000", "121539.558000", "121539.561000", "121539.563000", "121539.566000", "121539.569000", "121539.571000", "121539.574000", "121539.577000"],
      "InstanceCreationTime": ["121148.234000", "121148.237000", "121148.240000", "121148.242000", "121148.244000", "121148.247000", "121148.249000", "121148.252000", "121148.254000", "121148.257000", "121148.259000", "121148.262000", "121148.264000", "121148.267000", "121148.269000", "121148.272000", "121148.274000", "121148.277000", "121148.279000", "121148.282000", "121148.284000", "121148.287000", "121148.295000", "121148.297000", "121148.299000", "121148.302000", "121148.304000", "121148.307000", "121148.309000", "121148.312000", "121148.314000", "121148.317000", "121208.186000", "121208.189000", "121208.192000", "121208.194000", "121208.197000", "121208.199000", "121208.202000", "121208.204000", "121208.207000", "121208.209000", "121208.212000", "121208.214000", "121208.217000", "121208.219000", "121208.222000", "121208.224000", "121208.227000", "121208.229000", "121208.232000", "121208.234000", "121228.185000", "121228.188000", "121228.191000", "121228.193000", "121228.196000", "121228.198000", "121228.201000", "121228.203000", "121228.206000", "121228.208000", "121228.211000", "121228.213000", "121228.216000", "121228.218000", "121228.228000", "121228.230000", "121228.233000", "121228.235000", "121228.238000", "121228.240000", "121248.185000", "121248.198000", "121248.200000", "121248.203000", "121248.205000", "121248.208000", "121248.210000", "121248.213000", "121248.215000", "121248.218000", "121248.220000", "121248.223000", "121248.225000", "121248.228000", "121248.230000", "121248.233000", "121248.235000", "121248.238000", "121248.240000", "121248.242000", "121308.185000", "121308.188000", "121308.191000", "121308.193000", "121308.196000", "121308.198000", "121308.201000", "121308.203000", "121308.206000", "121308.208000", "121308.211000", "121308.213000", "121308.215000", "121308.218000", "121308.221000", "121308.223000", "121308.225000", "121308.228000", "121308.231000", "121308.233000", "121328.185000", "121328.188000", "121328.191000", "121328.193000", "121328.196000", "121328.198000", "121328.201000", "121328.203000", "121328.206000", "121328.208000", "121328.211000", "121328.213000", "121328.216000", "121328.218000", "121328.221000", "121328.223000", "121328.226000", "121328.228000", "121328.231000", "121328.233000", "121348.186000", "121348.189000", "121348.192000", "121348.194000", "121348.196000", "121348.199000", "121348.201000", "121348.204000", "121348.206000", "121348.209000", "121348.211000", "121348.214000", "121348.216000", "121348.219000", "121348.221000", "121348.224000", "121348.226000", "121348.229000", "121348.231000", "121348.234000", "121408.187000", "121408.189000", "121408.192000", "121408.194000", "121408.197000", "121408.199000", "121408.202000", "121408.204000", "121408.207000", "121408.209000", "121408.212000", "121408.222000", "121408.225000", "121408.227000", "121408.230000", "121408.232000", "121408.235000", "121408.237000", "121408.240000", "121408.242000", "121428.187000", "121428.189000", "121428.192000", "121428.194000", "121428.197000", "121428.200000", "121428.202000", "121428.205000", "121428.207000", "121428.210000", "121428.212000", "121428.215000", "121428.217000", "121428.220000", "121428.222000", "121428.224000", "121428.227000", "121428.229000", "121428.232000", "121428.234000", "121448.185000", "121448.188000", "121448.191000", "121448.193000", "121448.196000", "121448.199000", "121448.201000", "121448.203000", "121448.206000", "121448.209000", "121448.211000", "121448.214000", "121448.216000", "121448.219000", "121448.221000", "121448.224000", "121448.226000", "121448.229000", "121448.231000", "121448.234000", "121508.197000", "121508.199000", "121508.202000", "121508.204000", "121508.207000", "121508.210000", "121508.212000", "121508.214000", "121508.217000", "121508.219000", "121508.222000", "121508.224000", "121508.227000", "121508.229000", "121508.232000", "121508.234000", "121508.237000", "121508.239000", "121508.242000", "121508.244000", "121528.185000", "121528.188000", "121528.191000", "121528.193000", "121528.196000", "121528.198000", "121528.201000", "121528.203000", "121528.205000", "121528.208000", "121528.210000", "121528.213000", "121528.215000", "121528.218000", "121528.220000", "121528.223000", "121528.225000", "121528.228000", "121528.230000", "121528.233000", "121539.547000", "121539.550000", "121539.553000", "121539.555000", "121539.558000", "121539.561000", "121539.563000", "121539.566000", "121539.569000", "121539.571000", "121539.574000", "121539.577000"],
      "InstanceNumber": [1, 2, 3, 4, 5, 6, 7, 8, 9, 10, 11, 12, 13, 14, 15, 16, 17, 18, 19, 20, 21, 22, 23, 24, 25, 26, 27, 28, 29, 30, 31, 32, 33, 34, 35, 36, 37, 38, 39, 40, 41, 42, 43, 44, 45, 46, 47, 48, 49, 50, 51, 52, 53, 54, 55, 56, 57, 58, 59, 60, 61, 62, 63, 64, 65, 66, 67, 68, 69, 70, 71, 72, 73, 74, 75, 76, 77, 78, 79, 80, 81, 82, 83, 84, 85, 86, 87, 88, 89, 90, 91, 92, 93, 94, 95, 96, 97, 98, 99, 100, 101, 102, 103, 104, 105, 106, 107, 108, 109, 110, 111, 112, 113, 114, 115, 116, 117, 118, 119, 120, 121, 122, 123, 124, 125, 126, 127, 128, 129, 130, 131, 132, 133, 134, 135, 136, 137, 138, 139, 140, 141, 142, 143, 144, 145, 146, 147, 148, 149, 150, 151, 152, 153, 154, 155, 156, 157, 158, 159, 160, 161, 162, 163, 164, 165, 166, 167, 168, 169, 170, 171, 172, 173, 174, 175, 176, 177, 178, 179, 180, 181, 182, 183, 184, 185, 186, 187, 188, 189, 190, 191, 192, 193, 194, 195, 196, 197, 198, 199, 200, 201, 202, 203, 204, 205, 206, 207, 208, 209, 210, 211, 212, 213, 214, 215, 216, 217, 218, 219, 220, 221, 222, 223, 224, 225, 226, 227, 228, 229, 230, 231, 232, 233, 234, 235, 236, 237, 238, 239, 240, 241, 242, 243, 244, 245, 246, 247, 248, 249, 250, 251, 252, 253, 254, 255, 256, 257, 258, 259, 260, 261, 262, 263, 264],
      "LargestImagePixelValue": [10967, 10416, 10328, 10262, 9814, 10023, 10234, 10186, 9845, 9864, 9988, 9947, 9893, 9930, 9779, 9674, 9567, 9823, 9740, 9892, 9780, 9925, 9758, 9823, 10015, 10015, 10060, 9856, 9854, 9918, 10014, 10121, 10210, 10180, 10332, 10271, 9958, 9976, 10003, 10225, 10271, 10449, 10458, 10120, 9921, 10059, 9951, 10132, 10268, 9969, 9836, 9890, 9943, 10090, 10188, 9952, 9845, 9731, 9845, 9908, 10018, 9837, 9831, 9839, 9966, 9939, 9991, 9927, 9708, 9738, 9924, 9956, 9925, 10053, 9931, 9809, 9755, 9923, 10003, 9921, 10052, 9934, 9826, 9826, 9886, 9874, 9988, 10081, 10172, 9696, 9772, 9703, 9755, 9764, 9782, 9818, 9866, 9732, 9702, 9705, 9785, 9870, 10004, 9766, 9699, 9765, 9683, 9754, 9944, 9872, 9774, 9704, 9578, 9725, 9733, 9847, 9831, 9850, 9719, 9686, 9672, 9808, 9993, 10108, 9857, 9816, 9762, 9774, 9942, 9964, 10088, 10070, 9760, 9703, 9806, 9743, 9871, 9905, 10003, 9928, 10002, 9835, 9843, 9711, 9625, 9829, 10010, 9914, 9998, 9948, 9687, 9714, 9648, 9673, 9730, 9653, 9668, 9669, 9720, 9560, 9661, 9670, 9760, 9735, 9844, 9835, 9616, 9564, 9648, 9755, 9904, 9667, 9684, 9582, 9527, 9546, 9851, 9806, 9822, 9736, 9602, 9615, 9759, 9695, 9600, 9492, 9624, 9472, 9556, 9587, 9577, 9572, 9755, 9815, 9650, 9712, 9747, 10065, 9821, 9780, 9670, 9604, 9665, 9645, 9813, 9750, 9737, 9878, 9869, 9809, 9979, 9828, 9962, 9993, 9945, 9879, 9694, 9583, 9490, 9585, 9570, 9664, 9764, 9771, 9666, 9633, 9645, 9459, 9350, 9527, 9574, 9629, 9780, 9757, 9669, 9398, 9535, 9592, 9715, 9558, 9527, 9658, 9620, 9745, 9673, 9613, 9714, 9694, 9774, 10059, 9570, 9467, 9459, 9577, 9530, 9603, 9594, 9639, 9424, 9647, 9743, 9778, 9727, 9757],
      "TriggerTime": [8102.5, 9102.5, 10102.5, 11102.5, 12102.5, 13102.5, 14102.5, 15102.5, 16102.5, 17102.5, 18102.5, 19102.5, 20102.5, 21102.5, 22102.5, 23102.5, 24102.5, 25102.5, 26102.5, 27102.5, 28102.5, 29102.5, 30102.5, 31102.5, 32102.5, 33102.5, 34102.5, 35102.5, 36102.5, 37102.5, 38102.5, 39102.5, 40102.5, 41102.5, 42102.5, 43102.5, 44102.5, 45102.5, 46102.5, 47102.5, 48102.5, 49102.5, 50102.5, 51102.5, 52102.5, 53102.5, 54102.5, 55102.5, 56102.5, 57102.5, 58102.5, 59102.5, 60102.5, 61102.5, 62102.5, 63102.5, 64102.5, 65102.5, 66102.5, 67102.5, 68102.5, 69102.5, 70102.5, 71102.5, 72102.5, 73102.5, 74102.5, 75102.5, 76102.5, 77102.5, 78102.5, 79102.5, 80102.5, 81102.5, 82102.5, 83102.5, 84102.5, 85102.5, 86102.5, 87102.5, 88102.5, 89102.5, 90102.5, 91102.5, 92102.5, 93102.5, 94102.5, 95102.5, 96102.5, 97102.5, 98102.5, 99102.5, 100102.5, 101102.5, 102102.5, 103102.5, 104102.5, 105102.5, 106102.5, 107102.5, 108102.5, 109102.5, 110102.5, 111102.5, 112102.5, 113102.5, 114102.5, 115102.5, 116102.5, 117102.5, 118102.5, 119102.5, 120102.5, 121102.5, 122102.5, 123102.5, 124102.5, 125102.5, 126102.5, 127102.5, 128102.5, 129102.5, 130102.5, 131102.5, 132102.5, 133102.5, 134102.5, 135102.5, 136102.5, 137102.5, 138102.5, 139102.5, 140102.5, 141102.5, 142102.5, 143102.5, 144102.5, 145102.5, 146102.5, 147102.5, 148102.5, 149102.5, 150102.5, 151102.5, 152102.5, 153102.5, 154102.5, 155102.5, 156102.5, 157102.5, 158102.5, 159102.5, 160102.5, 161102.5, 162102.5, 163102.5, 164102.5, 165102.5, 166102.5, 167102.5, 168102.5, 169102.5, 170102.5, 171102.5, 172102.5, 173102.5, 174102.5, 175102.5, 176102.5, 177102.5, 178102.5, 179102.5, 180102.5, 181102.5, 182102.5, 183102.5, 184102.5, 185102.5, 186102.5, 187102.5, 188102.5, 189102.5, 190102.5, 191102.5, 192102.5, 193102.5, 194102.5, 195102.5, 196102.5, 197102.5, 198102.5, 199102.5, 200102.5, 201102.5, 202102.5, 203102.5, 204102.5, 205102.5, 206102.5, 207102.5, 208102.5, 209102.5, 210102.5, 211102.5, 212102.5, 213102.5, 214102.5, 215102.5, 216102.5, 217102.5, 218102.5, 219102.5, 220102.5, 221102.5, 222102.5, 223102.5, 224102.5, 225102.5, 226102.5, 227102.5, 228102.5, 229102.5, 230102.5, 231102.5, 232102.5, 233102.5, 234102.5, 235102.5, 236102.5, 237102.5, 238102.5, 239102.5, 240102.5, 241102.5, 242102.5, 243102.5, 244102.5, 245102.5, 246102.5, 247102.5, 248102.5, 249102.5, 250102.5, 251102.5, 252102.5, 253102.5, 254102.5, 255102.5, 256102.5, 257102.5, 258102.5, 259102.5, 260102.5, 261102.5, 262102.5, 263102.5, 264102.5, 265102.5, 266102.5, 267102.5, 268102.5, 269102.5, 270102.5, 271102.5],
      "WindowCenter": [4411.0, 4384.0, 4383.0, 4371.0, 4359.0, 4359.0, 4373.0, 4384.0, 4373.0, 4375.0, 4371.0, 4372.0, 4371.0, 4371.0, 4373.0, 4362.0, 4361.0, 4370.0, 4360.0, 4357.0, 4369.0, 4369.0, 4359.0, 4370.0, 4370.0, 4375.0, 4374.0, 4385.0, 4387.0, 4389.0, 4389.0, 4402.0, 4399.0, 4411.0, 4403.0, 4402.0, 4403.0, 4405.0, 4404.0, 4413.0, 4413.0, 4413.0, 4415.0, 4413.0, 4403.0, 4390.0, 4400.0, 4401.0, 4400.0, 4389.0, 4388.0, 4389.0, 4387.0, 4398.0, 4396.0, 4389.0, 4385.0, 4374.0, 4374.0, 4374.0, 4384.0, 4384.0, 4386.0, 4385.0, 4375.0, 4373.0, 4375.0, 4374.0, 4374.0, 4376.0, 4385.0, 4386.0, 4386.0, 4385.0, 4387.0, 4388.0, 4377.0, 4388.0, 4388.0, 4388.0, 4385.0, 4386.0, 4388.0, 4388.0, 4387.0, 4398.0, 4389.0, 4398.0, 4398.0, 4391.0, 4389.0, 4389.0, 4388.0, 4389.0, 4387.0, 4385.0, 4387.0, 4376.0, 4373.0, 4375.0, 4382.0, 4385.0, 4384.0, 4374.0, 4373.0, 4372.0, 4361.0, 4371.0, 4382.0, 4384.0, 4374.0, 4374.0, 4373.0, 4373.0, 4376.0, 4386.0, 4385.0, 4387.0, 4375.0, 4387.0, 4376.0, 4388.0, 4385.0, 4398.0, 4391.0, 4387.0, 4388.0, 4389.0, 4388.0, 4387.0, 4397.0, 4388.0, 4389.0, 4388.0, 4401.0, 4387.0, 4389.0, 4389.0, 4388.0, 4400.0, 4388.0, 4389.0, 4400.0, 4377.0, 4376.0, 4386.0, 4387.0, 4385.0, 4388.0, 4387.0, 4387.0, 4375.0, 4375.0, 4372.0, 4371.0, 4371.0, 4371.0, 4372.0, 4373.0, 4375.0, 4373.0, 4372.0, 4371.0, 4360.0, 4371.0, 4372.0, 4375.0, 4375.0, 4376.0, 4374.0, 4385.0, 4375.0, 4373.0, 4374.0, 4374.0, 4378.0, 4386.0, 4384.0, 4385.0, 4373.0, 4374.0, 4374.0, 4373.0, 4373.0, 4371.0, 4360.0, 4358.0, 4356.0, 4356.0, 4356.0, 4355.0, 4355.0, 4359.0, 4368.0, 4361.0, 4370.0, 4371.0, 4373.0, 4385.0, 4372.0, 4372.0, 4373.0, 4376.0, 4388.0, 4400.0, 4387.0, 4388.0, 4399.0, 4400.0, 4399.0, 4389.0, 4387.0, 4389.0, 4397.0, 4398.0, 4400.0, 4389.0, 4389.0, 4386.0, 4386.0, 4374.0, 4372.0, 4383.0, 4383.0, 4373.0, 4372.0, 4387.0, 4373.0, 4364.0, 4373.0, 4372.0, 4374.0, 4371.0, 4371.0, 4359.0, 4361.0, 4371.0, 4374.0, 4374.0, 4373.0, 4372.0, 4361.0, 4358.0, 4369.0, 4368.0, 4371.0, 4373.0, 4373.0, 4386.0, 4385.0, 4370.0, 4370.0, 4374.0, 4386.0, 4386.0, 4386.0, 4385.0, 4386.0, 4364.0, 4372.0, 4375.0, 4386.0, 4373.0, 4373.0],
