{
  "AcquisitionMatrixPE": 106,
  "AcquisitionNumber": 1,
  "AcquisitionTime": "12:06:0.680000",
  "BandwidthPerPixelPhaseEncode": 13.477,
  "BaseResolution": 106,
  "BodyPartExamined": "BRAIN",
  "CoilCombinationMethod": "Sum of Squares",
  "ConsistencyInfo": "N4_VE11C_LATEST_20160120",
  "ConversionSoftware": "dcm2niix",
  "ConversionSoftwareVersion": "v1.0.20220720",
  "DerivedVendorReportedEchoSpacing": 0.000700005,
  "DeviceSerialNumber": "166108",
  "DwellTime": 2.6e-06,
  "EchoTime": 0.03,
  "EchoTrainLength": 80,
  "EffectiveEchoSpacing": 0.000700005,
  "FlipAngle": 62,
  "HeudiconvVersion": "1.3.0",
  "ImageComments": "Unaliased MB4/PE3/LB",
  "ImageOrientationPatientDICOM": [1, 0, 0, 0, 0.95424, -0.299041],
  "ImageOrientationText": "Tra>Cor(-17.4)",
  "ImageType": [
    "ORIGINAL",
    "PRIMARY",
    "M",
    "MB",
    "ND",
    "MOSAIC"
],
  "ImagingFrequency": 123.244,
  "InPlanePhaseEncodingDirectionDICOM": "COL",
  "InstitutionAddress": "Bedford Way 26,London,London,GB,WC1H 0AP",
  "InstitutionName": "University College",
  "InstitutionalDepartmentName": "Department",
  "MRAcquisitionType": "2D",
  "MagneticFieldStrength": 3,
  "Manufacturer": "Siemens",
  "ManufacturersModelName": "Prisma",
  "MatrixCoilMode": "SENSE",
  "Modality": "MR",
  "MultibandAccelerationFactor": 4,
  "NonlinearGradientCorrection": false,
  "PartialFourier": 0.75,
  "PatientPosition": "HFS",
  "PercentPhaseFOV": 100,
  "PercentSampling": 100,
  "PhaseEncodingDirection": "j-",
  "PhaseEncodingSteps": 80,
  "PhaseResolution": 1,
  "PixelBandwidth": 1815,
  "ProcedureStepDescription": "Egor^MovieProject2",
  "ProtocolName": "func-bold_task-tono_run-01",
  "PulseSequenceDetails": "%CustomerSeq%\\cmrr_mbep2d_bold",
  "ReceiveCoilActiveElements": "HEA;HEP",
  "ReceiveCoilName": "Head_32",
  "ReconMatrixPE": 106,
  "RepetitionTime": 1,
  "SAR": 0.0477411,
  "ScanOptions": "PFP\\FS\\EXT",
  "ScanningSequence": "EP",
  "SequenceName": "epfid2d1_106",
  "SequenceVariant": "SK\\SS",
  "SeriesDescription": "func-bold_task-tono_run-01",
  "SeriesNumber": 21,
  "ShimSetting": [-1495, 633, 7517, 507, 22, 179, 163, -58],
  "SliceThickness": 2,
  "SliceTiming": [0, 0.535, 0.09, 0.6225, 0.1775, 0.7125, 0.2675, 0.8025, 0.355, 0.89, 0.445, 0, 0.535, 0.09, 0.6225, 0.1775, 0.7125, 0.2675, 0.8025, 0.355, 0.89, 0.445, 0, 0.535, 0.09, 0.6225, 0.1775, 0.7125, 0.2675, 0.8025, 0.355, 0.89, 0.445, 0, 0.535, 0.09, 0.6225, 0.1775, 0.7125, 0.2675, 0.8025, 0.355, 0.89, 0.445],
  "SoftwareVersions": "syngo MR E11",
  "SpacingBetweenSlices": 2,
  "StationName": "AWP166108",
  "TaskName": "tonotopy",
  "TotalReadoutTime": 0.0735005,
  "TxRefAmp": 254.314,
  "WipMemBlock": "b60fdd4d-b003-4617-9bb0-012a497b1fd9||Sequence: R016 ve11c/master r/e634e98; Dec 19 2017 11:00:25 by eja",
  "dcmmeta_affine": [
    [-2.0, 0.0, 0.0, 106.0],
    [0.0, 1.9084806442260742, -0.5980815887451172, -76.60413360595703],
    [0.0, 0.5980815887451172, 1.9084806442260742, -48.95243835449219],
    [0.0, 0.0, 0.0, 1.0]
],
  "dcmmeta_reorient_transform": [
    [0.0, -1.0, 0.0, 105.0],
    [1.0, 0.0, 0.0, 0.0],
    [0.0, 0.0, 1.0, 0.0],
    [0.0, 0.0, 0.0, 1.0]
],
  "dcmmeta_shape": [106, 106, 44, 264],
  "dcmmeta_slice_dim": 2,
  "dcmmeta_version": 0.6,
  "global": {
    "const": {
      "AcquisitionMatrix": [106, 0, 0, 106],
      "AngioFlag": "N",
      "BitsAllocated": 16,
      "BitsStored": 16,
      "BodyPartExamined": "BRAIN",
      "CardiacNumberOfImages": 1,
      "Columns": 742,
      "EchoNumbers": 1,
      "EchoTime": 30.0,
      "EchoTrainLength": 80,
      "FlipAngle": 62.0,
      "HighBit": 15,
      "ImageOrientationPatient": [1.0, 0.0, 0.0, 0.0, 0.95424032651267, -0.2990407986496],
      "ImagePositionPatient": [-742.0, -730.68318025885, 204.03607876561],
      "ImageType": [
        "ORIGINAL",
        "PRIMARY",
        "M",
        "MB",
        "ND",
        "MOSAIC"
],
      "ImagedNucleus": "1H",
      "ImagingFrequency": 123.243611,
      "InPlanePhaseEncodingDirection": "COL",
      "MRAcquisitionType": "2D",
      "MagneticFieldStrength": 3.0,
      "Manufacturer": "SIEMENS",
      "ManufacturerModelName": "Prisma",
      "Modality": "MR",
      "NominalInterval": 0,
      "NumberOfAverages": 1.0,
      "NumberOfPhaseEncodingSteps": 80,
      "PercentPhaseFieldOfView": 100.0,
      "PercentSampling": 100.0,
      "PerformedProcedureStepStartTime": "103708.086000",
      "PhotometricInterpretation": "MONOCHROME2",
      "PixelBandwidth": 1815.0,
      "PixelRepresentation": 0,
      "PixelSpacing": [2.0, 2.0],
      "ProtocolName": "func-bold_task-tono_run-01",
      "RepetitionTime": 1000.0,
      "Rows": 742,
      "SAR": 0.04774106219356,
      "SamplesPerPixel": 1,
      "ScanOptions": [
        "PFP",
        "FS",
        "EXT"
],
      "ScanningSequence": "EP",
      "SequenceName": "epfid2d1_106",
      "SequenceVariant": [
        "SK",
        "SS"
],
      "SeriesDescription": "func-bold_task-tono_run-01",
      "SeriesNumber": 21,
      "SeriesTime": "120636.438000",
      "SliceLocation": -23.80462736278,
      "SliceThickness": 2.0,
      "SmallestImagePixelValue": 0,
      "SoftwareVersions": "syngo MR E11",
      "SpacingBetweenSlices": 1.9999999288707,
      "SpecificCharacterSet": "ISO_IR 100",
      "StudyID": "1",
      "StudyTime": "103708.026000",
      "TransmitCoilName": "Body",
      "VariableFlipAngleFlag": "N",
      "WindowCenterWidthExplanation": "Algo1",
      "dBdt": 0.0},
    "slices": {}
  },
  "time": {
    "samples": {
      "AcquisitionNumber": [1, 2, 3, 4, 5, 6, 7, 8, 9, 10, 11, 12, 13, 14, 15, 16, 17, 18, 19, 20, 21, 22, 23, 24, 25, 26, 27, 28, 29, 30, 31, 32, 33, 34, 35, 36, 37, 38, 39, 40, 41, 42, 43, 44, 45, 46, 47, 48, 49, 50, 51, 52, 53, 54, 55, 56, 57, 58, 59, 60, 61, 62, 63, 64, 65, 66, 67, 68, 69, 70, 71, 72, 73, 74, 75, 76, 77, 78, 79, 80, 81, 82, 83, 84, 85, 86, 87, 88, 89, 90, 91, 92, 93, 94, 95, 96, 97, 98, 99, 100, 101, 102, 103, 104, 105, 106, 107, 108, 109, 110, 111, 112, 113, 114, 115, 116, 117, 118, 119, 120, 121, 122, 123, 124, 125, 126, 127, 128, 129, 130, 131, 132, 133, 134, 135, 136, 137, 138, 139, 140, 141, 142, 143, 144, 145, 146, 147, 148, 149, 150, 151, 152, 153, 154, 155, 156, 157, 158, 159, 160, 161, 162, 163, 164, 165, 166, 167, 168, 169, 170, 171, 172, 173, 174, 175, 176, 177, 178, 179, 180, 181, 182, 183, 184, 185, 186, 187, 188, 189, 190, 191, 192, 193, 194, 195, 196, 197, 198, 199, 200, 201, 202, 203, 204, 205, 206, 207, 208, 209, 210, 211, 212, 213, 214, 215, 216, 217, 218, 219, 220, 221, 222, 223, 224, 225, 226, 227, 228, 229, 230, 231, 232, 233, 234, 235, 236, 237, 238, 239, 240, 241, 242, 243, 244, 245, 246, 247, 248, 249, 250, 251, 252, 253, 254, 255, 256, 257, 258, 259, 260, 261, 262, 263, 264],
      "AcquisitionTime": ["120600.680000", "120601.680000", "120602.680000", "120603.680000", "120604.680000", "120605.680000", "120606.680000", "120607.680000", "120608.680000", "120609.680000", "120610.680000", "120611.680000", "120612.680000", "120613.680000", "120614.680000", "120615.680000", "120616.680000", "120617.680000", "120618.680000", "120619.680000", "120620.680000", "120621.680000", "120622.680000", "120623.680000", "120624.680000", "120625.680000", "120626.680000", "120627.680000", "120628.680000", "120629.680000", "120630.680000", "120631.680000", "120632.680000", "120633.680000", "120634.680000", "120635.680000", "120636.680000", "120637.680000", "120638.680000", "120639.680000", "120640.680000", "120641.680000", "120642.680000", "120643.680000", "120644.680000", "120645.680000", "120646.680000", "120647.680000", "120648.680000", "120649.680000", "120650.680000", "120651.680000", "120652.680000", "120653.680000", "120654.680000", "120655.680000", "120656.680000", "120657.680000", "120658.680000", "120659.680000", "120700.680000", "120701.680000", "120702.680000", "120703.680000", "120704.680000", "120705.680000", "120706.680000", "120707.680000", "120708.680000", "120709.680000", "120710.680000", "120711.680000", "120712.680000", "120713.680000", "120714.680000", "120715.680000", "120716.680000", "120717.680000", "120718.680000", "120719.680000", "120720.680000", "120721.680000", "120722.680000", "120723.680000", "120724.680000", "120725.680000", "120726.680000", "120727.680000", "120728.680000", "120729.680000", "120730.680000", "120731.680000", "120732.680000", "120733.680000", "120734.680000", "120735.680000", "120736.680000", "120737.680000", "120738.680000", "120739.680000", "120740.680000", "120741.680000", "120742.680000", "120743.680000", "120744.680000", "120745.680000", "120746.680000", "120747.680000", "120748.680000", "120749.680000", "120750.680000", "120751.680000", "120752.680000", "120753.680000", "120754.680000", "120755.680000", "120756.680000", "120757.680000", "120758.680000", "120759.680000", "120800.680000", "120801.680000", "120802.680000", "120803.680000", "120804.680000", "120805.680000", "120806.680000", "120807.680000", "120808.680000", "120809.680000", "120810.680000", "120811.680000", "120812.680000", "120813.680000", "120814.680000", "120815.680000", "120816.680000", "120817.680000", "120818.680000", "120819.680000", "120820.680000", "120821.680000", "120822.680000", "120823.680000", "120824.680000", "120825.680000", "120826.680000", "120827.680000", "120828.680000", "120829.680000", "120830.680000", "120831.680000", "120832.680000", "120833.680000", "120834.680000", "120835.680000", "120836.680000", "120837.680000", "120838.680000", "120839.680000", "120840.680000", "120841.680000", "120842.680000", "120843.680000", "120844.680000", "120845.680000", "120846.680000", "120847.680000", "120848.680000", "120849.680000", "120850.680000", "120851.680000", "120852.680000", "120853.680000", "120854.680000", "120855.680000", "120856.680000", "120857.680000", "120858.680000", "120859.680000", "120900.680000", "120901.680000", "120902.680000", "120903.680000", "120904.680000", "120905.680000", "120906.680000", "120907.680000", "120908.680000", "120909.680000", "120910.680000", "120911.680000", "120912.680000", "120913.680000", "120914.680000", "120915.680000", "120916.680000", "120917.680000", "120918.680000", "120919.680000", "120920.680000", "120921.680000", "120922.680000", "120923.680000", "120924.680000", "120925.680000", "120926.680000", "120927.680000", "120928.680000", "120929.680000", "120930.680000", "120931.680000", "120932.680000", "120933.680000", "120934.680000", "120935.680000", "120936.680000", "120937.680000", "120938.680000", "120939.680000", "120940.680000", "120941.680000", "120942.680000", "120943.680000", "120944.680000", "120945.680000", "120946.680000", "120947.680000", "120948.680000", "120949.680000", "120950.680000", "120951.680000", "120952.680000", "120953.680000", "120954.680000", "120955.680000", "120956.680000", "120957.680000", "120958.680000", "120959.680000", "121000.680000", "121001.680000", "121002.680000", "121003.680000", "121004.680000", "121005.680000", "121006.680000", "121007.680000", "121008.680000", "121009.680000", "121010.680000", "121011.680000", "121012.680000", "121013.680000", "121014.680000", "121015.680000", "121016.680000", "121017.680000", "121018.680000", "121019.680000", "121020.680000", "121021.680000", "121022.680000", "121023.680000"],
      "ContentTime": ["120636.441000", "120636.444000", "120636.446000", "120636.449000", "120636.451000", "120636.454000", "120636.456000", "120636.459000", "120636.461000", "120636.464000", "120636.466000", "120636.469000", "120636.471000", "120636.474000", "120636.485000", "120636.488000", "120636.490000", "120636.492000", "120636.495000", "120636.497000", "120636.500000", "120636.502000", "120636.511000", "120636.513000", "120636.516000", "120636.518000", "120636.521000", "120636.523000", "120636.526000", "120636.528000", "120636.531000", "120636.544000", "120636.546000", "120636.549000", "120656.408000", "120656.410000", "120656.413000", "120656.415000", "120656.418000", "120656.420000", "120656.422000", "120656.425000", "120656.427000", "120656.430000", "120656.432000", "120656.435000", "120656.437000", "120656.440000", "120656.442000", "120656.445000", "120656.447000", "120656.450000", "120656.452000", "120656.460000", "120716.406000", "120716.409000", "120716.411000", "120716.414000", "120716.416000", "120716.419000", "120716.421000", "120716.424000", "120716.426000", "120716.429000", "120716.431000", "120716.434000", "120716.436000", "120716.438000", "120716.441000", "120716.443000", "120716.446000", "120716.448000", "120716.451000", "120716.453000", "120736.406000", "120736.409000", "120736.412000", "120736.414000", "120736.417000", "120736.419000", "120736.421000", "120736.424000", "120736.426000", "120736.435000", "120736.438000", "120736.440000", "120736.443000", "120736.445000", "120736.448000", "120736.460000", "120736.462000", "120736.465000", "120736.467000", "120736.470000", "120756.407000", "120756.410000", "120756.412000", "120756.415000", "120756.418000", "120756.420000", "120756.423000", "120756.426000", "120756.428000", "120756.431000", "120756.433000", "120756.436000", "120756.438000", "120756.440000", "120756.443000", "120756.445000", "120756.448000", "120756.450000", "120756.453000", "120756.455000", "120816.407000", "120816.410000", "120816.413000", "120816.415000", "120816.418000", "120816.420000", "120816.422000", "120816.425000", "120816.427000", "120816.430000", "120816.432000", "120816.435000", "120816.444000", "120816.447000", "120816.449000", "120816.452000", "120816.454000", "120816.456000", "120816.459000", "120816.462000", "120836.407000", "120836.410000", "120836.413000", "120836.415000", "120836.418000", "120836.420000", "120836.422000", "120836.425000", "120836.427000", "120836.430000", "120836.432000", "120836.435000", "120836.437000", "120836.439000", "120836.442000", "120836.444000", "120836.447000", "120836.449000", "120836.452000", "120836.454000", "120856.407000", "120856.416000", "120856.418000", "120856.421000", "120856.423000", "120856.426000", "120856.428000", "120856.431000", "120856.433000", "120856.436000", "120856.438000", "120856.441000", "120856.443000", "120856.445000", "120856.448000", "120856.450000", "120856.453000", "120856.455000", "120856.458000", "120856.460000", "120916.407000", "120916.424000", "120916.426000", "120916.429000", "120916.439000", "120916.442000", "120916.444000", "120916.447000", "120916.449000", "120916.452000", "120916.454000", "120916.457000", "120916.459000", "120916.462000", "120916.464000", "120916.467000", "120916.469000", "120916.472000", "120916.474000", "120916.477000", "120936.406000", "120936.409000", "120936.411000", "120936.414000", "120936.417000", "120936.419000", "120936.422000", "120936.424000", "120936.427000", "120936.429000", "120936.431000", "120936.434000", "120936.436000", "120936.439000", "120936.441000", "120936.444000", "120936.446000", "120936.449000", "120936.451000", "120936.454000", "120956.406000", "120956.409000", "120956.412000", "120956.414000", "120956.417000", "120956.419000", "120956.422000", "120956.424000", "120956.427000", "120956.429000", "120956.431000", "120956.434000", "120956.436000", "120956.439000", "120956.441000", "120956.444000", "120956.446000", "120956.448000", "120956.451000", "120956.453000", "121016.407000", "121016.410000", "121016.413000", "121016.415000", "121016.424000", "121016.427000", "121016.429000", "121016.432000", "121016.434000", "121016.437000", "121016.439000", "121016.442000", "121016.444000", "121016.446000", "121016.449000", "121016.451000", "121016.454000", "121016.456000", "121016.459000", "121016.461000", "121025.728000", "121025.731000", "121025.734000", "121025.737000", "121025.739000", "121025.742000", "121025.744000", "121025.747000", "121025.772000", "121025.775000"],
      "InstanceCreationTime": ["120636.441000", "120636.444000", "120636.446000", "120636.449000", "120636.451000", "120636.454000", "120636.456000", "120636.459000", "120636.461000", "120636.464000", "120636.466000", "120636.469000", "120636.471000", "120636.474000", "120636.485000", "120636.488000", "120636.490000", "120636.492000", "120636.495000", "120636.497000", "120636.500000", "120636.502000", "120636.511000", "120636.513000", "120636.516000", "120636.518000", "120636.521000", "120636.523000", "120636.526000", "120636.528000", "120636.531000", "120636.544000", "120636.546000", "120636.549000", "120656.408000", "120656.410000", "120656.413000", "120656.415000", "120656.418000", "120656.420000", "120656.422000", "120656.425000", "120656.427000", "120656.430000", "120656.432000", "120656.435000", "120656.437000", "120656.440000", "120656.442000", "120656.445000", "120656.447000", "120656.450000", "120656.452000", "120656.460000", "120716.406000", "120716.409000", "120716.411000", "120716.414000", "120716.416000", "120716.419000", "120716.421000", "120716.424000", "120716.426000", "120716.429000", "120716.431000", "120716.434000", "120716.436000", "120716.438000", "120716.441000", "120716.443000", "120716.446000", "120716.448000", "120716.451000", "120716.453000", "120736.406000", "120736.409000", "120736.412000", "120736.414000", "120736.417000", "120736.419000", "120736.421000", "120736.424000", "120736.426000", "120736.435000", "120736.438000", "120736.440000", "120736.443000", "120736.445000", "120736.448000", "120736.460000", "120736.462000", "120736.465000", "120736.467000", "120736.470000", "120756.407000", "120756.410000", "120756.412000", "120756.415000", "120756.418000", "120756.420000", "120756.423000", "120756.426000", "120756.428000", "120756.431000", "120756.433000", "120756.436000", "120756.438000", "120756.440000", "120756.443000", "120756.445000", "120756.448000", "120756.450000", "120756.453000", "120756.455000", "120816.407000", "120816.410000", "120816.413000", "120816.415000", "120816.418000", "120816.420000", "120816.422000", "120816.425000", "120816.427000", "120816.430000", "120816.432000", "120816.435000", "120816.444000", "120816.447000", "120816.449000", "120816.452000", "120816.454000", "120816.456000", "120816.459000", "120816.462000", "120836.407000", "120836.410000", "120836.413000", "120836.415000", "120836.418000", "120836.420000", "120836.422000", "120836.425000", "120836.427000", "120836.430000", "120836.432000", "120836.435000", "120836.437000", "120836.439000", "120836.442000", "120836.444000", "120836.447000", "120836.449000", "120836.452000", "120836.454000", "120856.407000", "120856.416000", "120856.418000", "120856.421000", "120856.423000", "120856.426000", "120856.428000", "120856.431000", "120856.433000", "120856.436000", "120856.438000", "120856.441000", "120856.443000", "120856.445000", "120856.448000", "120856.450000", "120856.453000", "120856.455000", "120856.458000", "120856.460000", "120916.407000", "120916.424000", "120916.426000", "120916.429000", "120916.439000", "120916.442000", "120916.444000", "120916.447000", "120916.449000", "120916.452000", "120916.454000", "120916.457000", "120916.459000", "120916.462000", "120916.464000", "120916.467000", "120916.469000", "120916.472000", "120916.474000", "120916.477000", "120936.406000", "120936.409000", "120936.411000", "120936.414000", "120936.417000", "120936.419000", "120936.422000", "120936.424000", "120936.427000", "120936.429000", "120936.431000", "120936.434000", "120936.436000", "120936.439000", "120936.441000", "120936.444000", "120936.446000", "120936.449000", "120936.451000", "120936.454000", "120956.406000", "120956.409000", "120956.412000", "120956.414000", "120956.417000", "120956.419000", "120956.422000", "120956.424000", "120956.427000", "120956.429000", "120956.431000", "120956.434000", "120956.436000", "120956.439000", "120956.441000", "120956.444000", "120956.446000", "120956.448000", "120956.451000", "120956.453000", "121016.407000", "121016.410000", "121016.413000", "121016.415000", "121016.424000", "121016.427000", "121016.429000", "121016.432000", "121016.434000", "121016.437000", "121016.439000", "121016.442000", "121016.444000", "121016.446000", "121016.449000", "121016.451000", "121016.454000", "121016.456000", "121016.459000", "121016.461000", "121025.728000", "121025.731000", "121025.734000", "121025.737000", "121025.739000", "121025.742000", "121025.744000", "121025.747000", "121025.772000", "121025.775000"],
      "InstanceNumber": [1, 2, 3, 4, 5, 6, 7, 8, 9, 10, 11, 12, 13, 14, 15, 16, 17, 18, 19, 20, 21, 22, 23, 24, 25, 26, 27, 28, 29, 30, 31, 32, 33, 34, 35, 36, 37, 38, 39, 40, 41, 42, 43, 44, 45, 46, 47, 48, 49, 50, 51, 52, 53, 54, 55, 56, 57, 58, 59, 60, 61, 62, 63, 64, 65, 66, 67, 68, 69, 70, 71, 72, 73, 74, 75, 76, 77, 78, 79, 80, 81, 82, 83, 84, 85, 86, 87, 88, 89, 90, 91, 92, 93, 94, 95, 96, 97, 98, 99, 100, 101, 102, 103, 104, 105, 106, 107, 108, 109, 110, 111, 112, 113, 114, 115, 116, 117, 118, 119, 120, 121, 122, 123, 124, 125, 126, 127, 128, 129, 130, 131, 132, 133, 134, 135, 136, 137, 138, 139, 140, 141, 142, 143, 144, 145, 146, 147, 148, 149, 150, 151, 152, 153, 154, 155, 156, 157, 158, 159, 160, 161, 162, 163, 164, 165, 166, 167, 168, 169, 170, 171, 172, 173, 174, 175, 176, 177, 178, 179, 180, 181, 182, 183, 184, 185, 186, 187, 188, 189, 190, 191, 192, 193, 194, 195, 196, 197, 198, 199, 200, 201, 202, 203, 204, 205, 206, 207, 208, 209, 210, 211, 212, 213, 214, 215, 216, 217, 218, 219, 220, 221, 222, 223, 224, 225, 226, 227, 228, 229, 230, 231, 232, 233, 234, 235, 236, 237, 238, 239, 240, 241, 242, 243, 244, 245, 246, 247, 248, 249, 250, 251, 252, 253, 254, 255, 256, 257, 258, 259, 260, 261, 262, 263, 264],
      "LargestImagePixelValue": [9989, 9807, 9852, 9695, 9650, 9698, 9670, 9839, 9923, 9925, 9775, 9923, 9844, 9783, 9831, 9926, 9860, 9698, 9790, 9710, 9868, 9840, 10069, 10090, 10048, 10113, 9972, 9763, 9830, 9874, 9883, 9940, 9963, 9975, 10091, 9969, 10064, 9726, 9674, 9670, 9740, 9789, 9696, 9656, 9702, 9499, 9614, 9611, 9771, 9617, 9627, 9527, 9593, 9685, 9880, 9833, 9669, 9697, 9767, 9590, 9742, 9800, 9909, 9674, 9685, 9658, 9785, 9714, 9776, 10011, 9806, 9832, 9912, 9780, 9730, 9797, 10029, 9875, 9927, 9935, 9964, 9912, 9676, 9736, 9648, 9808, 9860, 9810, 9756, 9600, 9554, 9616, 9701, 9752, 9866, 9759, 9761, 9711, 9703, 9794, 9821, 9717, 9726, 9555, 9537, 9481, 9699, 9684, 9738, 9653, 9633, 9517, 9627, 9643, 9703, 9771, 9752, 9640, 9639, 9691, 9877, 9810, 9755, 9668, 9602, 9448, 9629, 9715, 9644, 9654, 9559, 9531, 9598, 9668, 9716, 9775, 9647, 9468, 9500, 9784, 9786, 9738, 9645, 9710, 9482, 9479, 9574, 9685, 9633, 9642, 9534, 9559, 9481, 9445, 9545, 9722, 9683, 9703, 9692, 9579, 9451, 9558, 9775, 9732, 9667, 9551, 9555, 9461, 9372, 9574, 9586, 9617, 9597, 9524, 9501, 9436, 9450, 9492, 9563, 9652, 9605, 9632, 9542, 9448, 9463, 9497, 9468, 9584, 9575, 9681, 9635, 9600, 9673, 9516, 9394, 9557, 9617, 9648, 9619, 9569, 9547, 9498, 9466, 9549, 9525, 9698, 9652, 9621, 9446, 9511, 9411, 9410, 9468, 9540, 9611, 9652, 9534, 9465, 9522, 9315, 9461, 9500, 9562, 9577, 9552, 9522, 9641, 9330, 9544, 9508, 9582, 9680, 9652, 9840, 9654, 9600, 9492, 9476, 9478, 9697, 9791, 9891, 9692, 9750, 9653, 9511, 9431, 9632, 9772, 9620, 9534, 9521, 9646, 9400, 9332, 9589, 9628, 9586, 9411, 9584, 9607, 9578, 9498, 9437],
      "TriggerTime": [8100.0, 9100.0, 10100.0, 11100.0, 12100.0, 13100.0, 14100.0, 15100.0, 16100.0, 17100.0, 18100.0, 19100.0, 20100.0, 21100.0, 22100.0, 23100.0, 24100.0, 25100.0, 26100.0, 27100.0, 28100.0, 29100.0, 30100.0, 31100.0, 32100.0, 33100.0, 34100.0, 35100.0, 36100.0, 37100.0, 38100.0, 39100.0, 40100.0, 41100.0, 42100.0, 43100.0, 44100.0, 45100.0, 46100.0, 47100.0, 48100.0, 49100.0, 50100.0, 51100.0, 52100.0, 53100.0, 54100.0, 55100.0, 56100.0, 57100.0, 58100.0, 59100.0, 60100.0, 61100.0, 62100.0, 63100.0, 64100.0, 65100.0, 66100.0, 67100.0, 68100.0, 69100.0, 70100.0, 71100.0, 72100.0, 73100.0, 74100.0, 75100.0, 76100.0, 77100.0, 78100.0, 79100.0, 80100.0, 81100.0, 82100.0, 83100.0, 84100.0, 85100.0, 86100.0, 87100.0, 88100.0, 89100.0, 90100.0, 91100.0, 92100.0, 93100.0, 94100.0, 95100.0, 96100.0, 97100.0, 98100.0, 99100.0, 100100.0, 101100.0, 102100.0, 103100.0, 104100.0, 105100.0, 106100.0, 107100.0, 108100.0, 109100.0, 110100.0, 111100.0, 112100.0, 113100.0, 114100.0, 115100.0, 116100.0, 117100.0, 118100.0, 119100.0, 120100.0, 121100.0, 122100.0, 123100.0, 124100.0, 125100.0, 126100.0, 127100.0, 128100.0, 129100.0, 130100.0, 131100.0, 132100.0, 133100.0, 134100.0, 135100.0, 136100.0, 137100.0, 138100.0, 139100.0, 140100.0, 141100.0, 142100.0, 143100.0, 144100.0, 145100.0, 146100.0, 147100.0, 148100.0, 149100.0, 150100.0, 151100.0, 152100.0, 153100.0, 154100.0, 155100.0, 156100.0, 157100.0, 158100.0, 159100.0, 160100.0, 161100.0, 162100.0, 163100.0, 164100.0, 165100.0, 166100.0, 167100.0, 168100.0, 169100.0, 170100.0, 171100.0, 172100.0, 173100.0, 174100.0, 175100.0, 176100.0, 177100.0, 178100.0, 179100.0, 180100.0, 181100.0, 182100.0, 183100.0, 184100.0, 185100.0, 186100.0, 187100.0, 188100.0, 189100.0, 190100.0, 191100.0, 192100.0, 193100.0, 194100.0, 195100.0, 196100.0, 197100.0, 198100.0, 199100.0, 200100.0, 201100.0, 202100.0, 203100.0, 204100.0, 205100.0, 206100.0, 207100.0, 208100.0, 209100.0, 210100.0, 211100.0, 212100.0, 213100.0, 214100.0, 215100.0, 216100.0, 217100.0, 218100.0, 219100.0, 220100.0, 221100.0, 222100.0, 223100.0, 224100.0, 225100.0, 226100.0, 227100.0, 228100.0, 229100.0, 230100.0, 231100.0, 232100.0, 233100.0, 234100.0, 235100.0, 236100.0, 237100.0, 238100.0, 239100.0, 240100.0, 241100.0, 242100.0, 243100.0, 244100.0, 245100.0, 246100.0, 247100.0, 248100.0, 249100.0, 250100.0, 251100.0, 252100.0, 253100.0, 254100.0, 255100.0, 256100.0, 257100.0, 258100.0, 259100.0, 260100.0, 261100.0, 262100.0, 263100.0, 264100.0, 265100.0, 266100.0, 267100.0, 268100.0, 269100.0, 270100.0, 271100.0],
      "WindowCenter": [4369.0, 4353.0, 4342.0, 4343.0, 4342.0, 4343.0, 4343.0, 4357.0, 4359.0, 4357.0, 4357.0, 4371.0, 4373.0, 4374.0, 4384.0, 4385.0, 4384.0, 4376.0, 4386.0, 4375.0, 4385.0, 4386.0, 4385.0, 4399.0, 4388.0, 4400.0, 4403.0, 4400.0, 4388.0, 4402.0, 4400.0, 4403.0, 4403.0, 4416.0, 4413.0, 4403.0, 4405.0, 4390.0, 4389.0, 4388.0, 4376.0, 4384.0, 4373.0, 4361.0, 4360.0, 4357.0, 4357.0, 4358.0, 4356.0, 4358.0, 4360.0, 4358.0, 4359.0, 4360.0, 4372.0, 4383.0, 4372.0, 4374.0, 4383.0, 4373.0, 4375.0, 4385.0, 4386.0, 4389.0, 4389.0, 4390.0, 4387.0, 4389.0, 4400.0, 4403.0, 4399.0, 4400.0, 4400.0, 4401.0, 4390.0, 4400.0, 4399.0, 4401.0, 4414.0, 4402.0, 4400.0, 4416.0, 4391.0, 4392.0, 4401.0, 4402.0, 4401.0, 4403.0, 4388.0, 4388.0, 4375.0, 4388.0, 4388.0, 4375.0, 4387.0, 4389.0, 4387.0, 4390.0, 4387.0, 4389.0, 4388.0, 4378.0, 4376.0, 4375.0, 4375.0, 4375.0, 4374.0, 4377.0, 4385.0, 4375.0, 4387.0, 4385.0, 4375.0, 4375.0, 4377.0, 4388.0, 4389.0, 4376.0, 4377.0, 4387.0, 4387.0, 4389.0, 4390.0, 4389.0, 4390.0, 4387.0, 4386.0, 4388.0, 4376.0, 4374.0, 4378.0, 4375.0, 4375.0, 4376.0, 4388.0, 4389.0, 4389.0, 4388.0, 4387.0, 4387.0, 4387.0, 4388.0, 4387.0, 4388.0, 4376.0, 4378.0, 4386.0, 4378.0, 4377.0, 4387.0, 4387.0, 4378.0, 4375.0, 4375.0, 4375.0, 4375.0, 4387.0, 4391.0, 4391.0, 4391.0, 4377.0, 4376.0, 4385.0, 4375.0, 4378.0, 4387.0, 4391.0, 4388.0, 4377.0, 4387.0, 4388.0, 4388.0, 4387.0, 4376.0, 4374.0, 4374.0, 4376.0, 4376.0, 4374.0, 4375.0, 4377.0, 4386.0, 4387.0, 4388.0, 4394.0, 4390.0, 4390.0, 4386.0, 4387.0, 4389.0, 4387.0, 4390.0, 4390.0, 4388.0, 4381.0, 4389.0, 4390.0, 4390.0, 4389.0, 4388.0, 4388.0, 4388.0, 4387.0, 4389.0, 4387.0, 4388.0, 4389.0, 4387.0, 4387.0, 4389.0, 4376.0, 4376.0, 4387.0, 4386.0, 4376.0, 4377.0, 4374.0, 4387.0, 4386.0, 4376.0, 4386.0, 4386.0, 4386.0, 4386.0, 4387.0, 4387.0, 4389.0, 4378.0, 4389.0, 4393.0, 4388.0, 4389.0, 4388.0, 4399.0, 4390.0, 4388.0, 4390.0, 4387.0, 4388.0, 4390.0, 4402.0, 4403.0, 4392.0, 4391.0, 4390.0, 4388.0, 4378.0, 4388.0, 4390.0, 4388.0, 4386.0, 4375.0, 4376.0, 4366.0, 4375.0, 4377.0, 4380.0, 4376.0, 4376.0, 4376.0, 4388.0, 4376.0, 4376.0, 4377.0],
      "WindowWidth": [9840.0, 9808.0, 9792.0, 9791.0, 9791.0, 9794.0, 9794.0, 9817.0, 9826.0, 9819.0, 9818.0, 9843.0, 9850.0, 9854.0, 9872.0, 9873.0, 9873.0, 9863.0, 9877.0, 9862.0, 9874.0, 9877.0, 9874.0, 9898.0, 9884.0, 9903.0, 9912.0, 9907.0, 9886.0, 9911.0, 9909.0, 9912.0, 9915.0, 9937.0, 9929.0, 9915.0, 9917.0, 9895.0, 9889.0, 9885.0, 9865.0, 9871.0, 9852.0, 9833.0, 9830.0, 9822.0, 9821.0, 9821.0, 9819.0, 9825.0, 9829.0, 9824.0, 9827.0, 9832.0, 9849.0, 9868.0, 9853.0, 9858.0, 9869.0, 9855.0, 9859.0, 9875.0, 9878.0, 9885.0, 9887.0, 9889.0, 9883.0, 9887.0, 9902.0, 9909.0, 9901.0, 9903.0, 9903.0, 9907.0, 9891.0, 9903.0, 9902.0, 9909.0, 9929.0, 9910.0, 9908.0, 9938.0, 9897.0, 9898.0, 9910.0, 9910.0, 9907.0, 9911.0, 9887.0, 9883.0, 9863.0, 9882.0, 9880.0, 9862.0, 9882.0, 9887.0, 9883.0, 9888.0, 9883.0, 9887.0, 9884.0, 9868.0, 9866.0, 9864.0, 9861.0, 9861.0, 9859.0, 9866.0, 9876.0, 9860.0, 9881.0, 9876.0, 9862.0, 9862.0, 9867.0, 9884.0, 9886.0, 9865.0, 9867.0, 9881.0, 9881.0, 9885.0, 9889.0, 9887.0, 9887.0, 9881.0, 9878.0, 9883.0, 9864.0, 9857.0, 9868.0, 9863.0, 9862.0, 9865.0, 9884.0, 9886.0, 9887.0, 9882.0, 9880.0, 9879.0, 9882.0, 9881.0, 9882.0, 9885.0, 9863.0, 9869.0, 9878.0, 9869.0, 9866.0, 9880.0, 9880.0, 9869.0, 9863.0, 9862.0, 9863.0, 9864.0, 9881.0, 9893.0, 9896.0, 9891.0, 9866.0, 9863.0, 9874.0, 9863.0, 9869.0, 9882.0, 9893.0, 9884.0, 9869.0, 9882.0, 9883.0, 9883.0, 9880.0, 9864.0, 9857.0, 9859.0, 9862.0, 9864.0, 9861.0, 9863.0, 9865.0, 9880.0, 9882.0, 9884.0, 9902.0, 9893.0, 9888.0, 9880.0, 9881.0, 9888.0, 9884.0, 9891.0, 9894.0, 9887.0, 9880.0, 9889.0, 9891.0, 9891.0, 9888.0, 9887.0, 9885.0, 9883.0, 9882.0, 9885.0, 9882.0, 9883.0, 9886.0, 9882.0, 9881.0, 9885.0, 9865.0, 9867.0, 9881.0, 9877.0, 9865.0, 9867.0, 9859.0, 9879.0, 9879.0, 9866.0, 9879.0, 9881.0, 9880.0, 9879.0, 9881.0, 9883.0, 9887.0, 9873.0, 9889.0, 9896.0, 9885.0, 9886.0, 9886.0, 9901.0, 9889.0, 9885.0, 9890.0, 9884.0, 9885.0, 9893.0, 9913.0, 9914.0, 9897.0, 9896.0, 9892.0, 9886.0, 9870.0, 9885.0, 9888.0, 9883.0, 9879.0, 9862.0, 9863.0, 9849.0, 9860.0, 9867.0, 9872.0, 9861.0, 9860.0, 9863.0, 9882.0, 9863.0, 9864.0, 9868.0]
