{
  "AcquisitionMatrixPE": 106,
  "AcquisitionNumber": 1,
  "AcquisitionTime": "11:10:9.765000",
  "BandwidthPerPixelPhaseEncode": 13.477,
  "BaseResolution": 106,
  "BodyPartExamined": "BRAIN",
  "CoilCombinationMethod": "Sum of Squares",
  "ConsistencyInfo": "N4_VE11C_LATEST_20160120",
  "ConversionSoftware": "dcm2niix",
  "ConversionSoftwareVersion": "v1.0.20220720",
  "DerivedVendorReportedEchoSpacing": 0.000700005,
  "DeviceSerialNumber": "166108",
  "DwellTime": 2.6e-06,
  "EchoTime": 0.03,
  "EchoTrainLength": 80,
  "EffectiveEchoSpacing": 0.000700005,
  "FlipAngle": 62,
  "HeudiconvVersion": "1.3.0",
  "ImageComments": "Unaliased MB4/PE3/LB",
  "ImageOrientationPatientDICOM": [1, 0, 0, 0, 0.999903, 0.0139622],
  "ImageOrientationText": "Tra>Cor(0.8)",
  "ImageType": [
    "ORIGINAL",
    "PRIMARY",
    "M",
    "MB",
    "ND",
    "MOSAIC"
],
  "ImagingFrequency": 123.244,
  "InPlanePhaseEncodingDirectionDICOM": "COL",
  "InstitutionAddress": "Bedford Way 26,London,London,GB,WC1H 0AP",
  "InstitutionName": "University College",
  "InstitutionalDepartmentName": "Department",
  "MRAcquisitionType": "2D",
  "MagneticFieldStrength": 3,
  "Manufacturer": "Siemens",
  "ManufacturersModelName": "Prisma",
  "MatrixCoilMode": "SENSE",
  "Modality": "MR",
  "MultibandAccelerationFactor": 4,
  "NonlinearGradientCorrection": false,
  "PartialFourier": 0.75,
  "PatientPosition": "HFS",
  "PercentPhaseFOV": 100,
  "PercentSampling": 100,
  "PhaseEncodingDirection": "j-",
  "PhaseEncodingSteps": 80,
  "PhaseResolution": 1,
  "PixelBandwidth": 1815,
  "ProcedureStepDescription": "Egor^MovieProject2",
  "ProtocolName": "func-bold_task-motor_run-01",
  "PulseSequenceDetails": "%CustomerSeq%\\cmrr_mbep2d_bold",
  "ReceiveCoilActiveElements": "HEA;HEP",
  "ReceiveCoilName": "Head_32",
  "ReconMatrixPE": 106,
  "RepetitionTime": 1,
  "SAR": 0.0412237,
  "ScanOptions": "PFP\\FS\\EXT",
  "ScanningSequence": "EP",
  "SequenceName": "epfid2d1_106",
  "SequenceVariant": "SK\\SS",
  "SeriesDescription": "func-bold_task-motor_run-01",
  "SeriesNumber": 6,
  "ShimSetting": [-1495, 610, 7510, 449, 104, 170, 97, -61],
  "SliceThickness": 2,
  "SliceTiming": [0, 0.535, 0.09, 0.625, 0.18, 0.7125, 0.2675, 0.8025, 0.3575, 0.8925, 0.445, 0, 0.535, 0.09, 0.625, 0.18, 0.7125, 0.2675, 0.8025, 0.3575, 0.8925, 0.445, 0, 0.535, 0.09, 0.625, 0.18, 0.7125, 0.2675, 0.8025, 0.3575, 0.8925, 0.445, 0, 0.535, 0.09, 0.625, 0.18, 0.7125, 0.2675, 0.8025, 0.3575, 0.8925, 0.445],
  "SoftwareVersions": "syngo MR E11",
  "SpacingBetweenSlices": 2,
  "StationName": "AWP166108",
  "TaskName": "somatotopy",
  "TotalReadoutTime": 0.0735005,
  "TxRefAmp": 242.639,
  "WipMemBlock": "ac43b91a-bba6-49ab-a8b1-b0dc5c6a013f||Sequence: R016 ve11c/master r/e634e98; Dec 19 2017 11:00:25 by eja",
  "dcmmeta_affine": [
    [-2.0, 0.0, 0.0, 106.0],
    [0.0, 1.9998050928115845, 0.02792435884475708, -97.25068664550781],
    [0.0, -0.02792435884475708, 1.999804973602295, -0.5033614039421082],
    [0.0, 0.0, 0.0, 1.0]
],
  "dcmmeta_reorient_transform": [
    [0.0, -1.0, 0.0, 105.0],
    [1.0, 0.0, 0.0, 0.0],
    [0.0, 0.0, 1.0, 0.0],
    [0.0, 0.0, 0.0, 1.0]
],
  "dcmmeta_shape": [106, 106, 44, 467],
  "dcmmeta_slice_dim": 2,
  "dcmmeta_version": 0.6,
  "global": {
    "const": {
      "AcquisitionMatrix": [106, 0, 0, 106],
      "AngioFlag": "N",
      "BitsAllocated": 16,
      "BitsStored": 16,
      "BodyPartExamined": "BRAIN",
      "CardiacNumberOfImages": 1,
      "Columns": 742,
      "EchoNumbers": 1,
      "EchoTime": 30.0,
      "EchoTrainLength": 80,
      "FlipAngle": 62.0,
      "HighBit": 15,
      "ImageOrientationPatient": [1.0, 0.0, 0.0, 0.0, 0.99990252401694, 0.013962179792],
      "ImagePositionPatient": [-742.0, -748.66684814024, -12.315365529134],
      "ImageType": [
        "ORIGINAL",
        "PRIMARY",
        "M",
        "MB",
        "ND",
        "MOSAIC"
],
      "ImagedNucleus": "1H",
      "ImagingFrequency": 123.243617,
      "InPlanePhaseEncodingDirection": "COL",
      "MRAcquisitionType": "2D",
      "MagneticFieldStrength": 3.0,
      "Manufacturer": "SIEMENS",
      "ManufacturerModelName": "Prisma",
      "Modality": "MR",
      "NominalInterval": 0,
      "NumberOfAverages": 1.0,
      "NumberOfPhaseEncodingSteps": 80,
      "PercentPhaseFieldOfView": 100.0,
      "PercentSampling": 100.0,
      "PerformedProcedureStepStartTime": "103708.086000",
      "PhotometricInterpretation": "MONOCHROME2",
      "PixelBandwidth": 1815.0,
      "PixelRepresentation": 0,
      "PixelSpacing": [2.0, 2.0],
      "ProtocolName": "func-bold_task-motor_run-01",
      "RepetitionTime": 1000.0,
      "Rows": 742,
      "SAR": 0.04122367821292,
      "SamplesPerPixel": 1,
      "ScanOptions": [
        "PFP",
        "FS",
        "EXT"
],
      "ScanningSequence": "EP",
      "SequenceName": "epfid2d1_106",
      "SequenceVariant": [
        "SK",
        "SS"
],
      "SeriesDescription": "func-bold_task-motor_run-01",
      "SeriesNumber": 6,
      "SeriesTime": "111036.023000",
      "SliceLocation": -1.8611439387325,
      "SliceThickness": 2.0,
      "SmallestImagePixelValue": 0,
      "SoftwareVersions": "syngo MR E11",
      "SpacingBetweenSlices": 1.9999999366728,
      "SpecificCharacterSet": "ISO_IR 100",
      "StudyID": "1",
      "StudyTime": "103708.026000",
      "TransmitCoilName": "Body",
      "VariableFlipAngleFlag": "N",
      "WindowCenterWidthExplanation": "Algo1",
      "dBdt": 0.0},
    "slices": {}
  },
  "time": {
    "samples": {
      "AcquisitionNumber": [1, 2, 3, 4, 5, 6, 7, 8, 9, 10, 11, 12, 13, 14, 15, 16, 17, 18, 19, 20, 21, 22, 23, 24, 25, 26, 27, 28, 29, 30, 31, 32, 33, 34, 35, 36, 37, 38, 39, 40, 41, 42, 43, 44, 45, 46, 47, 48, 49, 50, 51, 52, 53, 54, 55, 56, 57, 58, 59, 60, 61, 62, 63, 64, 65, 66, 67, 68, 69, 70, 71, 72, 73, 74, 75, 76, 77, 78, 79, 80, 81, 82, 83, 84, 85, 86, 87, 88, 89, 90, 91, 92, 93, 94, 95, 96, 97, 98, 99, 100, 101, 102, 103, 104, 105, 106, 107, 108, 109, 110, 111, 112, 113, 114, 115, 116, 117, 118, 119, 120, 121, 122, 123, 124, 125, 126, 127, 128, 129, 130, 131, 132, 133, 134, 135, 136, 137, 138, 139, 140, 141, 142, 143, 144, 145, 146, 147, 148, 149, 150, 151, 152, 153, 154, 155, 156, 157, 158, 159, 160, 161, 162, 163, 164, 165, 166, 167, 168, 169, 170, 171, 172, 173, 174, 175, 176, 177, 178, 179, 180, 181, 182, 183, 184, 185, 186, 187, 188, 189, 190, 191, 192, 193, 194, 195, 196, 197, 198, 199, 200, 201, 202, 203, 204, 205, 206, 207, 208, 209, 210, 211, 212, 213, 214, 215, 216, 217, 218, 219, 220, 221, 222, 223, 224, 225, 226, 227, 228, 229, 230, 231, 232, 233, 234, 235, 236, 237, 238, 239, 240, 241, 242, 243, 244, 245, 246, 247, 248, 249, 250, 251, 252, 253, 254, 255, 256, 257, 258, 259, 260, 261, 262, 263, 264, 265, 266, 267, 268, 269, 270, 271, 272, 273, 274, 275, 276, 277, 278, 279, 280, 281, 282, 283, 284, 285, 286, 287, 288, 289, 290, 291, 292, 293, 294, 295, 296, 297, 298, 299, 300, 301, 302, 303, 304, 305, 306, 307, 308, 309, 310, 311, 312, 313, 314, 315, 316, 317, 318, 319, 320, 321, 322, 323, 324, 325, 326, 327, 328, 329, 330, 331, 332, 333, 334, 335, 336, 337, 338, 339, 340, 341, 342, 343, 344, 345, 346, 347, 348, 349, 350, 351, 352, 353, 354, 355, 356, 357, 358, 359, 360, 361, 362, 363, 364, 365, 366, 367, 368, 369, 370, 371, 372, 373, 374, 375, 376, 377, 378, 379, 380, 381, 382, 383, 384, 385, 386, 387, 388, 389, 390, 391, 392, 393, 394, 395, 396, 397, 398, 399, 400, 401, 402, 403, 404, 405, 406, 407, 408, 409, 410, 411, 412, 413, 414, 415, 416, 417, 418, 419, 420, 421, 422, 423, 424, 425, 426, 427, 428, 429, 430, 431, 432, 433, 434, 435, 436, 437, 438, 439, 440, 441, 442, 443, 444, 445, 446, 447, 448, 449, 450, 451, 452, 453, 454, 455, 456, 457, 458, 459, 460, 461, 462, 463, 464, 465, 466, 467],
      "AcquisitionTime": ["111009.765000", "111010.765000", "111011.765000", "111012.765000", "111013.765000", "111014.765000", "111015.765000", "111016.765000", "111017.765000", "111018.765000", "111019.765000", "111020.765000", "111021.765000", "111022.765000", "111023.765000", "111024.765000", "111025.765000", "111026.765000", "111027.765000", "111028.765000", "111029.765000", "111030.765000", "111031.765000", "111032.765000", "111033.765000", "111034.765000", "111035.765000", "111036.765000", "111037.765000", "111038.765000", "111039.765000", "111040.765000", "111041.765000", "111042.765000", "111043.765000", "111044.765000", "111045.765000", "111046.765000", "111047.765000", "111048.765000", "111049.765000", "111050.765000", "111051.765000", "111052.765000", "111053.765000", "111054.765000", "111055.765000", "111056.765000", "111057.765000", "111058.765000", "111059.765000", "111100.765000", "111101.765000", "111102.765000", "111103.765000", "111104.765000", "111105.765000", "111106.765000", "111107.765000", "111108.765000", "111109.765000", "111110.765000", "111111.765000", "111112.765000", "111113.765000", "111114.765000", "111115.765000", "111116.765000", "111117.765000", "111118.765000", "111119.765000", "111120.765000", "111121.765000", "111122.765000", "111123.765000", "111124.765000", "111125.765000", "111126.765000", "111127.765000", "111128.765000", "111129.765000", "111130.765000", "111131.765000", "111132.765000", "111133.765000", "111134.765000", "111135.765000", "111136.765000", "111137.765000", "111138.765000", "111139.765000", "111140.765000", "111141.765000", "111142.765000", "111143.765000", "111144.765000", "111145.765000", "111146.765000", "111147.765000", "111148.765000", "111149.765000", "111150.765000", "111151.765000", "111152.765000", "111153.765000", "111154.765000", "111155.765000", "111156.765000", "111157.765000", "111158.765000", "111159.765000", "111200.765000", "111201.765000", "111202.765000", "111203.765000", "111204.765000", "111205.765000", "111206.765000", "111207.765000", "111208.765000", "111209.765000", "111210.765000", "111211.765000", "111212.765000", "111213.765000", "111214.765000", "111215.765000", "111216.765000", "111217.765000", "111218.765000", "111219.765000", "111220.765000", "111221.765000", "111222.765000", "111223.765000", "111224.765000", "111225.765000", "111226.765000", "111227.765000", "111228.765000", "111229.765000", "111230.765000", "111231.765000", "111232.765000", "111233.765000", "111234.765000", "111235.765000", "111236.765000", "111237.765000", "111238.765000", "111239.765000", "111240.765000", "111241.765000", "111242.765000", "111243.765000", "111244.765000", "111245.765000", "111246.765000", "111247.765000", "111248.765000", "111249.765000", "111250.765000", "111251.765000", "111252.765000", "111253.765000", "111254.765000", "111255.765000", "111256.765000", "111257.765000", "111258.765000", "111259.765000", "111300.765000", "111301.765000", "111302.765000", "111303.765000", "111304.765000", "111305.765000", "111306.765000", "111307.765000", "111308.765000", "111309.765000", "111310.765000", "111311.765000", "111312.765000", "111313.765000", "111314.765000", "111315.765000", "111316.765000", "111317.765000", "111318.765000", "111319.765000", "111320.765000", "111321.765000", "111322.765000", "111323.765000", "111324.765000", "111325.765000", "111326.765000", "111327.765000", "111328.765000", "111329.765000", "111330.765000", "111331.765000", "111332.765000", "111333.765000", "111334.765000", "111335.765000", "111336.765000", "111337.765000", "111338.765000", "111339.765000", "111340.765000", "111341.765000", "111342.765000", "111343.765000", "111344.765000", "111345.765000", "111346.765000", "111347.765000", "111348.765000", "111349.765000", "111350.765000", "111351.765000", "111352.765000", "111353.765000", "111354.765000", "111355.765000", "111356.765000", "111357.765000", "111358.765000", "111359.765000", "111400.765000", "111401.765000", "111402.765000", "111403.765000", "111404.765000", "111405.765000", "111406.765000", "111407.765000", "111408.765000", "111409.765000", "111410.765000", "111411.765000", "111412.765000", "111413.765000", "111414.765000", "111415.765000", "111416.765000", "111417.765000", "111418.765000", "111419.765000", "111420.765000", "111421.765000", "111422.765000", "111423.765000", "111424.765000", "111425.765000", "111426.765000", "111427.765000", "111428.765000", "111429.765000", "111430.765000", "111431.765000", "111432.765000", "111433.765000", "111434.765000", "111435.765000", "111436.765000", "111437.765000", "111438.765000", "111439.765000", "111440.765000", "111441.765000", "111442.765000", "111443.765000", "111444.765000", "111445.765000", "111446.765000", "111447.765000", "111448.765000", "111449.765000", "111450.765000", "111451.765000", "111452.765000", "111453.765000", "111454.765000", "111455.765000", "111456.765000", "111457.765000", "111458.765000", "111459.765000", "111500.765000", "111501.765000", "111502.765000", "111503.765000", "111504.765000", "111505.765000", "111506.765000", "111507.765000", "111508.765000", "111509.765000", "111510.765000", "111511.765000", "111512.765000", "111513.765000", "111514.765000", "111515.765000", "111516.765000", "111517.765000", "111518.765000", "111519.765000", "111520.765000", "111521.765000", "111522.765000", "111523.765000", "111524.765000", "111525.765000", "111526.765000", "111527.765000", "111528.765000", "111529.765000", "111530.765000", "111531.765000", "111532.765000", "111533.765000", "111534.765000", "111535.765000", "111536.765000", "111537.765000", "111538.765000", "111539.765000", "111540.765000", "111541.765000", "111542.765000", "111543.765000", "111544.765000", "111545.765000", "111546.765000", "111547.765000", "111548.765000", "111549.765000", "111550.765000", "111551.765000", "111552.765000", "111553.765000", "111554.765000", "111555.765000", "111556.765000", "111557.765000", "111558.765000", "111559.765000", "111600.765000", "111601.765000", "111602.765000", "111603.765000", "111604.765000", "111605.765000", "111606.765000", "111607.765000", "111608.765000", "111609.765000", "111610.765000", "111611.765000", "111612.765000", "111613.765000", "111614.765000", "111615.765000", "111616.765000", "111617.765000", "111618.765000", "111619.765000", "111620.765000", "111621.765000", "111622.765000", "111623.765000", "111624.765000", "111625.765000", "111626.765000", "111627.765000", "111628.765000", "111629.765000", "111630.765000", "111631.765000", "111632.765000", "111633.765000", "111634.765000", "111635.765000", "111636.765000", "111637.765000", "111638.765000", "111639.765000", "111640.765000", "111641.765000", "111642.765000", "111643.765000", "111644.765000", "111645.765000", "111646.765000", "111647.765000", "111648.765000", "111649.765000", "111650.765000", "111651.765000", "111652.765000", "111653.765000", "111654.765000", "111655.765000", "111656.765000", "111657.765000", "111658.765000", "111659.765000", "111700.765000", "111701.765000", "111702.765000", "111703.765000", "111704.765000", "111705.765000", "111706.765000", "111707.765000", "111708.765000", "111709.765000", "111710.765000", "111711.765000", "111712.765000", "111713.765000", "111714.765000", "111715.765000", "111716.765000", "111717.765000", "111718.765000", "111719.765000", "111720.765000", "111721.765000", "111722.765000", "111723.765000", "111724.765000", "111725.765000", "111726.765000", "111727.765000", "111728.765000", "111729.765000", "111730.765000", "111731.765000", "111732.765000", "111733.765000", "111734.765000", "111735.765000", "111736.765000", "111737.765000", "111738.765000", "111739.765000", "111740.765000", "111741.765000", "111742.765000", "111743.765000", "111744.765000", "111745.765000", "111746.765000", "111747.765000", "111748.765000", "111749.765000", "111750.765000", "111751.765000", "111752.765000", "111753.765000", "111754.765000", "111755.765000"],
      "ContentTime": ["111036.026000", "111036.028000", "111036.031000", "111036.033000", "111036.036000", "111036.038000", "111036.041000", "111036.043000", "111036.045000", "111036.048000", "111036.057000", "111036.060000", "111036.062000", "111036.064000", "111036.072000", "111036.075000", "111036.077000", "111036.080000", "111036.082000", "111036.084000", "111036.087000", "111036.089000", "111036.092000", "111036.094000", "111036.096000", "111055.988000", "111055.991000", "111055.993000", "111055.996000", "111055.998000", "111056.002000", "111056.004000", "111056.007000", "111056.009000", "111056.012000", "111056.014000", "111056.016000", "111056.019000", "111056.021000", "111056.024000", "111056.026000", "111056.028000", "111056.031000", "111056.033000", "111056.036000", "111115.989000", "111115.991000", "111115.994000", "111115.996000", "111116.000000", "111116.002000", "111116.005000", "111116.016000", "111116.019000", "111116.021000", "111116.024000", "111116.026000", "111116.028000", "111116.031000", "111116.033000", "111116.036000", "111116.038000", "111116.040000", "111116.043000", "111116.045000", "111135.988000", "111135.991000", "111135.994000", "111135.996000", "111135.998000", "111136.002000", "111136.004000", "111136.007000", "111136.009000", "111136.012000", "111136.014000", "111136.016000", "111136.019000", "111136.021000", "111136.024000", "111136.026000", "111136.046000", "111136.048000", "111136.051000", "111136.053000", "111155.988000", "111155.991000", "111155.994000", "111155.996000", "111155.998000", "111156.002000", "111156.004000", "111156.007000", "111156.009000", "111156.012000", "111156.014000", "111156.016000", "111156.019000", "111156.021000", "111156.024000", "111156.026000", "111156.029000", "111156.031000", "111156.034000", "111156.036000", "111215.988000", "111215.991000", "111215.993000", "111215.996000", "111215.998000", "111216.002000", "111216.004000", "111216.007000", "111216.009000", "111216.012000", "111216.014000", "111216.016000", "111216.019000", "111216.021000", "111216.024000", "111216.026000", "111216.028000", "111216.031000", "111216.033000", "111216.036000", "111235.989000", "111235.992000", "111235.994000", "111236.007000", "111236.009000", "111236.012000", "111236.014000", "111236.017000", "111236.019000", "111236.022000", "111236.024000", "111236.027000", "111236.029000", "111236.032000", "111236.034000", "111236.036000", "111236.039000", "111236.041000", "111236.044000", "111236.046000", "111255.989000", "111255.992000", "111255.995000", "111255.997000", "111256.001000", "111256.003000", "111256.006000", "111256.008000", "111256.011000", "111256.013000", "111256.015000", "111256.018000", "111256.020000", "111256.023000", "111256.025000", "111256.027000", "111256.030000", "111256.032000", "111256.035000", "111256.037000", "111315.988000", "111315.991000", "111315.993000", "111315.996000", "111316.009000", "111316.012000", "111316.014000", "111316.016000", "111316.019000", "111316.021000", "111316.024000", "111316.026000", "111316.029000", "111316.031000", "111316.033000", "111316.036000", "111316.038000", "111316.041000", "111316.043000", "111316.046000", "111335.988000", "111335.991000", "111335.993000", "111335.996000", "111335.998000", "111336.005000", "111336.008000", "111336.010000", "111336.012000", "111336.015000", "111336.017000", "111336.020000", "111336.022000", "111336.025000", "111336.027000", "111336.030000", "111336.032000", "111336.034000", "111336.037000", "111336.039000", "111355.988000", "111355.991000", "111355.993000", "111355.996000", "111355.998000", "111356.002000", "111356.004000", "111356.007000", "111356.009000", "111356.011000", "111356.014000", "111356.017000", "111356.019000", "111356.021000", "111356.024000", "111356.026000", "111356.029000", "111356.031000", "111356.033000", "111356.036000", "111415.988000", "111415.991000", "111415.994000", "111415.996000", "111416.000000", "111416.002000", "111416.005000", "111416.007000", "111416.010000", "111416.012000", "111416.014000", "111416.017000", "111416.019000", "111416.022000", "111416.024000", "111416.027000", "111416.029000", "111416.032000", "111416.034000", "111416.036000", "111435.988000", "111435.991000", "111435.993000", "111435.996000", "111436.012000", "111436.015000", "111436.017000", "111436.019000", "111436.022000", "111436.025000", "111436.027000", "111436.029000", "111436.032000", "111436.034000", "111436.037000", "111436.039000", "111436.042000", "111436.044000", "111436.047000", "111436.049000", "111455.990000", "111455.992000", "111455.995000", "111455.997000", "111456.001000", "111456.003000", "111456.005000", "111456.008000", "111456.010000", "111456.013000", "111456.015000", "111456.018000", "111456.020000", "111456.022000", "111456.025000", "111456.027000", "111456.030000", "111456.032000", "111456.035000", "111456.037000", "111515.988000", "111515.991000", "111515.994000", "111515.996000", "111515.998000", "111516.002000", "111516.004000", "111516.007000", "111516.009000", "111516.012000", "111516.014000", "111516.017000", "111516.019000", "111516.021000", "111516.024000", "111516.026000", "111516.029000", "111516.031000", "111516.034000", "111516.036000", "111535.988000", "111535.991000", "111535.994000", "111535.996000", "111536.000000", "111536.002000", "111536.015000", "111536.017000", "111536.020000", "111536.022000", "111536.024000", "111536.027000", "111536.031000", "111536.034000", "111536.036000", "111536.039000", "111536.041000", "111536.044000", "111536.046000", "111536.049000", "111555.988000", "111555.991000", "111555.994000", "111555.996000", "111556.000000", "111556.002000", "111556.005000", "111556.007000", "111556.009000", "111556.012000", "111556.014000", "111556.017000", "111556.019000", "111556.022000", "111556.024000", "111556.027000", "111556.029000", "111556.031000", "111556.034000", "111556.036000", "111615.988000", "111615.991000", "111615.993000", "111615.996000", "111615.998000", "111616.002000", "111616.004000", "111616.006000", "111616.009000", "111616.011000", "111616.014000", "111616.016000", "111616.019000", "111616.021000", "111616.024000", "111616.026000", "111616.028000", "111616.031000", "111616.033000", "111616.036000", "111635.988000", "111635.991000", "111635.993000", "111635.996000", "111635.998000", "111636.002000", "111636.004000", "111636.007000", "111636.009000", "111636.012000", "111636.014000", "111636.016000", "111636.019000", "111636.021000", "111636.024000", "111636.026000", "111636.029000", "111636.031000", "111636.034000", "111636.036000", "111655.988000", "111655.991000", "111655.994000", "111655.996000", "111656.000000", "111656.002000", "111656.004000", "111656.007000", "111656.009000", "111656.012000", "111656.014000", "111656.017000", "111656.019000", "111656.022000", "111656.024000", "111656.027000", "111656.029000", "111656.031000", "111656.034000", "111656.036000", "111715.989000", "111715.992000", "111715.995000", "111715.997000", "111716.000000", "111716.003000", "111716.005000", "111716.008000", "111716.010000", "111716.013000", "111716.015000", "111716.018000", "111716.020000", "111716.022000", "111716.025000", "111716.027000", "111716.030000", "111716.033000", "111716.036000", "111716.038000", "111735.988000", "111735.991000", "111735.993000", "111735.996000", "111735.998000", "111736.002000", "111736.004000", "111736.007000", "111736.009000", "111736.012000", "111736.014000", "111736.016000", "111736.019000", "111736.021000", "111736.024000", "111736.026000", "111736.029000", "111736.031000", "111736.034000", "111736.036000", "111755.989000", "111755.991000", "111755.994000", "111755.996000", "111756.000000", "111756.009000", "111756.012000", "111756.014000", "111756.016000", "111756.019000", "111756.021000", "111756.024000", "111756.026000", "111756.028000", "111756.031000", "111756.033000", "111756.036000", "111756.038000", "111756.041000", "111756.043000", "111757.278000", "111757.282000"],
