{
  "AcquisitionMatrixPE": 106,
  "AcquisitionNumber": 1,
  "AcquisitionTime": "11:58:40.790000",
  "BandwidthPerPixelPhaseEncode": 16.846,
  "BaseResolution": 106,
  "BodyPartExamined": "BRAIN",
  "CoilCombinationMethod": "Sum of Squares",
  "ConsistencyInfo": "N4_VE11C_LATEST_20160120",
  "ConversionSoftware": "dcm2niix",
  "ConversionSoftwareVersion": "v1.0.20220720",
  "DerivedVendorReportedEchoSpacing": 0.000560012,
  "DeviceSerialNumber": "166108",
  "DwellTime": 1.8e-06,
  "EchoTime": 0.0352,
  "EchoTrainLength": 106,
  "EffectiveEchoSpacing": 0.000560012,
  "FlipAngle": 60,
  "HeudiconvVersion": "1.3.0",
  "ImageComments": "Unaliased MB4/PE3/LB",
  "ImageOrientationPatientDICOM": [1, 0, 0, 0, 1, 0],
  "ImageOrientationText": "Tra",
  "ImageType": [
    "ORIGINAL",
    "PRIMARY",
    "M",
    "MB",
    "ND",
    "MOSAIC"
],
  "ImagingFrequency": 123.244,
  "InPlanePhaseEncodingDirectionDICOM": "COL",
  "InstitutionAddress": "Bedford Way 26,London,London,GB,WC1H 0AP",
  "InstitutionName": "University College",
  "InstitutionalDepartmentName": "Department",
  "MRAcquisitionType": "2D",
  "MagneticFieldStrength": 3,
  "Manufacturer": "Siemens",
  "ManufacturersModelName": "Prisma",
  "MatrixCoilMode": "SENSE",
  "Modality": "MR",
  "MultibandAccelerationFactor": 4,
  "NonlinearGradientCorrection": false,
  "PartialFourier": 1,
  "PatientPosition": "HFS",
  "PercentPhaseFOV": 100,
  "PercentSampling": 100,
  "PhaseEncodingDirection": "j-",
  "PhaseEncodingSteps": 106,
  "PhaseResolution": 1,
  "PixelBandwidth": 2620,
  "ProcedureStepDescription": "Egor^MovieProject2",
  "ProtocolName": "task-backtothefuture_run-1",
  "PulseSequenceDetails": "%CustomerSeq%\\cmrr_mbep2d_bold",
  "ReceiveCoilActiveElements": "HEA;HEP",
  "ReceiveCoilName": "Head_32",
  "ReconMatrixPE": 106,
  "RepetitionTime": 1.5,
  "SAR": 0.0675823,
  "ScanOptions": "FS\\EXT",
  "ScanningSequence": "EP",
  "SequenceName": "epfid2d1_106",
  "SequenceVariant": "SK\\SS",
  "SeriesDescription": "task-backtothefuture_run-1",
  "SeriesNumber": 5,
  "ShimSetting": [-1586, 607, 7440, 471, -35, 15, 29, 23],
  "SliceThickness": 2,
  "SliceTiming": [0, 1.0675, 0.6575, 0.2475, 1.315, 0.905, 0.4925, 0.0825, 1.15, 0.74, 0.3275, 1.3975, 0.9875, 0.575, 0.165, 1.2325, 0.8225, 0.41, 0, 1.0675, 0.6575, 0.2475, 1.315, 0.905, 0.4925, 0.0825, 1.15, 0.74, 0.3275, 1.3975, 0.9875, 0.575, 0.165, 1.2325, 0.8225, 0.41, 0, 1.0675, 0.6575, 0.2475, 1.315, 0.905, 0.4925, 0.0825, 1.15, 0.74, 0.3275, 1.3975, 0.9875, 0.575, 0.165, 1.2325, 0.8225, 0.41, 0, 1.0675, 0.6575, 0.2475, 1.315, 0.905, 0.4925, 0.0825, 1.15, 0.74, 0.3275, 1.3975, 0.9875, 0.575, 0.165, 1.2325, 0.8225, 0.41],
  "SoftwareVersions": "syngo MR E11",
  "SpacingBetweenSlices": 2,
  "StationName": "AWP166108",
  "TaskName": "backtothefuture",
  "TotalReadoutTime": 0.0588013,
  "TxRefAmp": 230.609,
  "WipMemBlock": "294df179-2014-4724-8147-e729f48cf186||Sequence: R016 ve11c/master r/e634e98; Dec 19 2017 11:00:25 by eja",
  "dcmmeta_affine": [
    [-2.0, 0.0, 0.0, 106.0],
    [0.0, 2.0, 0.0, -90.14457702636719],
    [0.0, 0.0, 2.0, -43.89156723022461],
    [0.0, 0.0, 0.0, 1.0]
],
  "dcmmeta_reorient_transform": [
    [0.0, -1.0, 0.0, 105.0],
    [1.0, 0.0, 0.0, 0.0],
    [0.0, 0.0, 1.0, 0.0],
    [0.0, 0.0, 0.0, 1.0]
],
  "dcmmeta_shape": [106, 106, 72, 1360],
  "dcmmeta_slice_dim": 2,
  "dcmmeta_version": 0.6,
  "global": {
    "const": {
      "AcquisitionMatrix": [106, 0, 0, 106],
      "AngioFlag": "N",
      "BitsAllocated": 16,
      "BitsStored": 16,
      "BodyPartExamined": "BRAIN",
      "CardiacNumberOfImages": 1,
      "Columns": 954,
      "EchoNumbers": 1,
      "EchoTime": 35.2,
      "EchoTrainLength": 106,
      "FlipAngle": 60.0,
      "HighBit": 15,
      "ImageOrientationPatient": [1.0, 0.0, 0.0, 0.0, 1.0, 0.0],
      "ImagePositionPatient": [-954.0, -967.85542201996, -43.891567230225],
      "ImageType": [
        "ORIGINAL",
        "PRIMARY",
        "M",
        "MB",
        "ND",
        "MOSAIC"
],
      "ImagedNucleus": "1H",
      "ImagingFrequency": 123.243672,
      "InPlanePhaseEncodingDirection": "COL",
      "MRAcquisitionType": "2D",
      "MagneticFieldStrength": 3.0,
      "Manufacturer": "SIEMENS",
      "ManufacturerModelName": "Prisma",
      "Modality": "MR",
      "NominalInterval": 0,
      "NumberOfAverages": 1.0,
      "NumberOfPhaseEncodingSteps": 106,
      "PercentPhaseFieldOfView": 100.0,
      "PercentSampling": 100.0,
      "PerformedProcedureStepStartTime": "112557.448000",
      "PhotometricInterpretation": "MONOCHROME2",
      "PixelBandwidth": 2620.0,
      "PixelRepresentation": 0,
      "PixelSpacing": [2.0, 2.0],
      "ProtocolName": "task-backtothefuture_run-1",
      "RepetitionTime": 1500.0,
      "Rows": 954,
      "SAR": 0.06758231968315,
      "SamplesPerPixel": 1,
      "ScanOptions": [
        "FS",
        "EXT"
],
      "ScanningSequence": "EP",
      "SequenceName": "epfid2d1_106",
      "SequenceVariant": [
        "SK",
        "SS"
],
      "SeriesDescription": "task-backtothefuture_run-1",
      "SeriesNumber": 5,
      "SeriesTime": "115929.423000",
      "SliceLocation": -43.891567230225,
      "SliceThickness": 2.0,
      "SmallestImagePixelValue": 0,
      "SoftwareVersions": "syngo MR E11",
      "SpacingBetweenSlices": 2.0000000537281,
      "SpecificCharacterSet": "ISO_IR 100",
      "StudyID": "1",
      "StudyTime": "112557.383000",
      "TransmitCoilName": "Body",
      "VariableFlipAngleFlag": "N",
      "WindowCenterWidthExplanation": "Algo1",
      "dBdt": 0.0},
    "slices": {}
  },
  "time": {
    "samples": {
      "AcquisitionNumber": [1, 2, 3, 4, 5, 6, 7, 8, 9, 10, 11, 12, 13, 14, 15, 16, 17, 18, 19, 20, 21, 22, 23, 24, 25, 26, 27, 28, 29, 30, 31, 32, 33, 34, 35, 36, 37, 38, 39, 40, 41, 42, 43, 44, 45, 46, 47, 48, 49, 50, 51, 52, 53, 54, 55, 56, 57, 58, 59, 60, 61, 62, 63, 64, 65, 66, 67, 68, 69, 70, 71, 72, 73, 74, 75, 76, 77, 78, 79, 80, 81, 82, 83, 84, 85, 86, 87, 88, 89, 90, 91, 92, 93, 94, 95, 96, 97, 98, 99, 100, 101, 102, 103, 104, 105, 106, 107, 108, 109, 110, 111, 112, 113, 114, 115, 116, 117, 118, 119, 120, 121, 122, 123, 124, 125, 126, 127, 128, 129, 130, 131, 132, 133, 134, 135, 136, 137, 138, 139, 140, 141, 142, 143, 144, 145, 146, 147, 148, 149, 150, 151, 152, 153, 154, 155, 156, 157, 158, 159, 160, 161, 162, 163, 164, 165, 166, 167, 168, 169, 170, 171, 172, 173, 174, 175, 176, 177, 178, 179, 180, 181, 182, 183, 184, 185, 186, 187, 188, 189, 190, 191, 192, 193, 194, 195, 196, 197, 198, 199, 200, 201, 202, 203, 204, 205, 206, 207, 208, 209, 210, 211, 212, 213, 214, 215, 216, 217, 218, 219, 220, 221, 222, 223, 224, 225, 226, 227, 228, 229, 230, 231, 232, 233, 234, 235, 236, 237, 238, 239, 240, 241, 242, 243, 244, 245, 246, 247, 248, 249, 250, 251, 252, 253, 254, 255, 256, 257, 258, 259, 260, 261, 262, 263, 264, 265, 266, 267, 268, 269, 270, 271, 272, 273, 274, 275, 276, 277, 278, 279, 280, 281, 282, 283, 284, 285, 286, 287, 288, 289, 290, 291, 292, 293, 294, 295, 296, 297, 298, 299, 300, 301, 302, 303, 304, 305, 306, 307, 308, 309, 310, 311, 312, 313, 314, 315, 316, 317, 318, 319, 320, 321, 322, 323, 324, 325, 326, 327, 328, 329, 330, 331, 332, 333, 334, 335, 336, 337, 338, 339, 340, 341, 342, 343, 344, 345, 346, 347, 348, 349, 350, 351, 352, 353, 354, 355, 356, 357, 358, 359, 360, 361, 362, 363, 364, 365, 366, 367, 368, 369, 370, 371, 372, 373, 374, 375, 376, 377, 378, 379, 380, 381, 382, 383, 384, 385, 386, 387, 388, 389, 390, 391, 392, 393, 394, 395, 396, 397, 398, 399, 400, 401, 402, 403, 404, 405, 406, 407, 408, 409, 410, 411, 412, 413, 414, 415, 416, 417, 418, 419, 420, 421, 422, 423, 424, 425, 426, 427, 428, 429, 430, 431, 432, 433, 434, 435, 436, 437, 438, 439, 440, 441, 442, 443, 444, 445, 446, 447, 448, 449, 450, 451, 452, 453, 454, 455, 456, 457, 458, 459, 460, 461, 462, 463, 464, 465, 466, 467, 468, 469, 470, 471, 472, 473, 474, 475, 476, 477, 478, 479, 480, 481, 482, 483, 484, 485, 486, 487, 488, 489, 490, 491, 492, 493, 494, 495, 496, 497, 498, 499, 500, 501, 502, 503, 504, 505, 506, 507, 508, 509, 510, 511, 512, 513, 514, 515, 516, 517, 518, 519, 520, 521, 522, 523, 524, 525, 526, 527, 528, 529, 530, 531, 532, 533, 534, 535, 536, 537, 538, 539, 540, 541, 542, 543, 544, 545, 546, 547, 548, 549, 550, 551, 552, 553, 554, 555, 556, 557, 558, 559, 560, 561, 562, 563, 564, 565, 566, 567, 568, 569, 570, 571, 572, 573, 574, 575, 576, 577, 578, 579, 580, 581, 582, 583, 584, 585, 586, 587, 588, 589, 590, 591, 592, 593, 594, 595, 596, 597, 598, 599, 600, 601, 602, 603, 604, 605, 606, 607, 608, 609, 610, 611, 612, 613, 614, 615, 616, 617, 618, 619, 620, 621, 622, 623, 624, 625, 626, 627, 628, 629, 630, 631, 632, 633, 634, 635, 636, 637, 638, 639, 640, 641, 642, 643, 644, 645, 646, 647, 648, 649, 650, 651, 652, 653, 654, 655, 656, 657, 658, 659, 660, 661, 662, 663, 664, 665, 666, 667, 668, 669, 670, 671, 672, 673, 674, 675, 676, 677, 678, 679, 680, 681, 682, 683, 684, 685, 686, 687, 688, 689, 690, 691, 692, 693, 694, 695, 696, 697, 698, 699, 700, 701, 702, 703, 704, 705, 706, 707, 708, 709, 710, 711, 712, 713, 714, 715, 716, 717, 718, 719, 720, 721, 722, 723, 724, 725, 726, 727, 728, 729, 730, 731, 732, 733, 734, 735, 736, 737, 738, 739, 740, 741, 742, 743, 744, 745, 746, 747, 748, 749, 750, 751, 752, 753, 754, 755, 756, 757, 758, 759, 760, 761, 762, 763, 764, 765, 766, 767, 768, 769, 770, 771, 772, 773, 774, 775, 776, 777, 778, 779, 780, 781, 782, 783, 784, 785, 786, 787, 788, 789, 790, 791, 792, 793, 794, 795, 796, 797, 798, 799, 800, 801, 802, 803, 804, 805, 806, 807, 808, 809, 810, 811, 812, 813, 814, 815, 816, 817, 818, 819, 820, 821, 822, 823, 824, 825, 826, 827, 828, 829, 830, 831, 832, 833, 834, 835, 836, 837, 838, 839, 840, 841, 842, 843, 844, 845, 846, 847, 848, 849, 850, 851, 852, 853, 854, 855, 856, 857, 858, 859, 860, 861, 862, 863, 864, 865, 866, 867, 868, 869, 870, 871, 872, 873, 874, 875, 876, 877, 878, 879, 880, 881, 882, 883, 884, 885, 886, 887, 888, 889, 890, 891, 892, 893, 894, 895, 896, 897, 898, 899, 900, 901, 902, 903, 904, 905, 906, 907, 908, 909, 910, 911, 912, 913, 914, 915, 916, 917, 918, 919, 920, 921, 922, 923, 924, 925, 926, 927, 928, 929, 930, 931, 932, 933, 934, 935, 936, 937, 938, 939, 940, 941, 942, 943, 944, 945, 946, 947, 948, 949, 950, 951, 952, 953, 954, 955, 956, 957, 958, 959, 960, 961, 962, 963, 964, 965, 966, 967, 968, 969, 970, 971, 972, 973, 974, 975, 976, 977, 978, 979, 980, 981, 982, 983, 984, 985, 986, 987, 988, 989, 990, 991, 992, 993, 994, 995, 996, 997, 998, 999, 1000, 1001, 1002, 1003, 1004, 1005, 1006, 1007, 1008, 1009, 1010, 1011, 1012, 1013, 1014, 1015, 1016, 1017, 1018, 1019, 1020, 1021, 1022, 1023, 1024, 1025, 1026, 1027, 1028, 1029, 1030, 1031, 1032, 1033, 1034, 1035, 1036, 1037, 1038, 1039, 1040, 1041, 1042, 1043, 1044, 1045, 1046, 1047, 1048, 1049, 1050, 1051, 1052, 1053, 1054, 1055, 1056, 1057, 1058, 1059, 1060, 1061, 1062, 1063, 1064, 1065, 1066, 1067, 1068, 1069, 1070, 1071, 1072, 1073, 1074, 1075, 1076, 1077, 1078, 1079, 1080, 1081, 1082, 1083, 1084, 1085, 1086, 1087, 1088, 1089, 1090, 1091, 1092, 1093, 1094, 1095, 1096, 1097, 1098, 1099, 1100, 1101, 1102, 1103, 1104, 1105, 1106, 1107, 1108, 1109, 1110, 1111, 1112, 1113, 1114, 1115, 1116, 1117, 1118, 1119, 1120, 1121, 1122, 1123, 1124, 1125, 1126, 1127, 1128, 1129, 1130, 1131, 1132, 1133, 1134, 1135, 1136, 1137, 1138, 1139, 1140, 1141, 1142, 1143, 1144, 1145, 1146, 1147, 1148, 1149, 1150, 1151, 1152, 1153, 1154, 1155, 1156, 1157, 1158, 1159, 1160, 1161, 1162, 1163, 1164, 1165, 1166, 1167, 1168, 1169, 1170, 1171, 1172, 1173, 1174, 1175, 1176, 1177, 1178, 1179, 1180, 1181, 1182, 1183, 1184, 1185, 1186, 1187, 1188, 1189, 1190, 1191, 1192, 1193, 1194, 1195, 1196, 1197, 1198, 1199, 1200, 1201, 1202, 1203, 1204, 1205, 1206, 1207, 1208, 1209, 1210, 1211, 1212, 1213, 1214, 1215, 1216, 1217, 1218, 1219, 1220, 1221, 1222, 1223, 1224, 1225, 1226, 1227, 1228, 1229, 1230, 1231, 1232, 1233, 1234, 1235, 1236, 1237, 1238, 1239, 1240, 1241, 1242, 1243, 1244, 1245, 1246, 1247, 1248, 1249, 1250, 1251, 1252, 1253, 1254, 1255, 1256, 1257, 1258, 1259, 1260, 1261, 1262, 1263, 1264, 1265, 1266, 1267, 1268, 1269, 1270, 1271, 1272, 1273, 1274, 1275, 1276, 1277, 1278, 1279, 1280, 1281, 1282, 1283, 1284, 1285, 1286, 1287, 1288, 1289, 1290, 1291, 1292, 1293, 1294, 1295, 1296, 1297, 1298, 1299, 1300, 1301, 1302, 1303, 1304, 1305, 1306, 1307, 1308, 1309, 1310, 1311, 1312, 1313, 1314, 1315, 1316, 1317, 1318, 1319, 1320, 1321, 1322, 1323, 1324, 1325, 1326, 1327, 1328, 1329, 1330, 1331, 1332, 1333, 1334, 1335, 1336, 1337, 1338, 1339, 1340, 1341, 1342, 1343, 1344, 1345, 1346, 1347, 1348, 1349, 1350, 1351, 1352, 1353, 1354, 1355, 1356, 1357, 1358, 1359, 1360],
      "AcquisitionTime": ["115840.790000", "115842.290000", "115843.790000", "115845.290000", "115846.790000", "115848.290000", "115849.790000", "115851.290000", "115852.790000", "115854.290000", "115855.790000", "115857.290000", "115858.790000", "115900.290000", "115901.790000", "115903.290000", "115904.790000", "115906.290000", "115907.790000", "115909.290000", "115910.790000", "115912.290000", "115913.790000", "115915.290000", "115916.790000", "115918.290000", "115919.790000", "115921.290000", "115922.790000", "115924.290000", "115925.790000", "115927.290000", "115928.790000", "115930.290000", "115931.790000", "115933.290000", "115934.790000", "115936.290000", "115937.790000", "115939.290000", "115940.790000", "115942.290000", "115943.790000", "115945.290000", "115946.790000", "115948.290000", "115949.790000", "115951.290000", "115952.790000", "115954.290000", "115955.790000", "115957.290000", "115958.790000", "120000.290000", "120001.790000", "120003.290000", "120004.790000", "120006.290000", "120007.790000", "120009.290000", "120010.790000", "120012.290000", "120013.790000", "120015.290000", "120016.790000", "120018.290000", "120019.790000", "120021.290000", "120022.790000", "120024.290000", "120025.790000", "120027.290000", "120028.790000", "120030.290000", "120031.790000", "120033.290000", "120034.790000", "120036.290000", "120037.790000", "120039.290000", "120040.790000", "120042.290000", "120043.790000", "120045.290000", "120046.790000", "120048.290000", "120049.790000", "120051.290000", "120052.790000", "120054.290000", "120055.790000", "120057.290000", "120058.790000", "120100.290000", "120101.790000", "120103.290000", "120104.790000", "120106.290000", "120107.790000", "120109.290000", "120110.790000", "120112.290000", "120113.790000", "120115.290000", "120116.790000", "120118.290000", "120119.790000", "120121.290000", "120122.790000", "120124.290000", "120125.790000", "120127.290000", "120128.790000", "120130.290000", "120131.790000", "120133.290000", "120134.790000", "120136.290000", "120137.790000", "120139.290000", "120140.790000", "120142.290000", "120143.790000", "120145.290000", "120146.790000", "120148.290000", "120149.790000", "120151.290000", "120152.790000", "120154.290000", "120155.790000", "120157.290000", "120158.790000", "120200.290000", "120201.790000", "120203.290000", "120204.790000", "120206.290000", "120207.790000", "120209.290000", "120210.790000", "120212.290000", "120213.790000", "120215.290000", "120216.790000", "120218.290000", "120219.790000", "120221.290000", "120222.790000", "120224.290000", "120225.790000", "120227.290000", "120228.790000", "120230.290000", "120231.790000", "120233.290000", "120234.790000", "120236.290000", "120237.790000", "120239.290000", "120240.790000", "120242.290000", "120243.790000", "120245.290000", "120246.790000", "120248.290000", "120249.790000", "120251.290000", "120252.790000", "120254.290000", "120255.790000", "120257.290000", "120258.790000", "120300.290000", "120301.790000", "120303.290000", "120304.790000", "120306.290000", "120307.790000", "120309.290000", "120310.790000", "120312.290000", "120313.790000", "120315.290000", "120316.790000", "120318.290000", "120319.790000", "120321.290000", "120322.790000", "120324.290000", "120325.790000", "120327.290000", "120328.790000", "120330.290000", "120331.790000", "120333.290000", "120334.790000", "120336.290000", "120337.790000", "120339.290000", "120340.790000", "120342.290000", "120343.790000", "120345.290000", "120346.790000", "120348.290000", "120349.790000", "120351.290000", "120352.790000", "120354.290000", "120355.790000", "120357.290000", "120358.790000", "120400.290000", "120401.790000", "120403.290000", "120404.790000", "120406.290000", "120407.790000", "120409.290000", "120410.790000", "120412.290000", "120413.790000", "120415.290000", "120416.790000", "120418.290000", "120419.790000", "120421.290000", "120422.790000", "120424.290000", "120425.790000", "120427.290000", "120428.790000", "120430.290000", "120431.790000", "120433.290000", "120434.790000", "120436.290000", "120437.790000", "120439.290000", "120440.790000", "120442.290000", "120443.790000", "120445.290000", "120446.790000", "120448.290000", "120449.790000", "120451.290000", "120452.790000", "120454.290000", "120455.790000", "120457.290000", "120458.790000", "120500.290000", "120501.790000", "120503.290000", "120504.790000", "120506.290000", "120507.790000", "120509.290000", "120510.790000", "120512.290000", "120513.790000", "120515.290000", "120516.790000", "120518.290000", "120519.790000", "120521.290000", "120522.790000", "120524.290000", "120525.790000", "120527.290000", "120528.790000", "120530.290000", "120531.790000", "120533.290000", "120534.790000", "120536.290000", "120537.790000", "120539.290000", "120540.790000", "120542.290000", "120543.790000", "120545.290000", "120546.790000", "120548.290000", "120549.790000", "120551.290000", "120552.790000", "120554.290000", "120555.790000", "120557.290000", "120558.790000", "120600.290000", "120601.790000", "120603.290000", "120604.790000", "120606.290000", "120607.790000", "120609.290000", "120610.790000", "120612.290000", "120613.790000", "120615.290000", "120616.790000", "120618.290000", "120619.790000", "120621.290000", "120622.790000", "120624.290000", "120625.790000", "120627.290000", "120628.790000", "120630.290000", "120631.790000", "120633.290000", "120634.790000", "120636.290000", "120637.790000", "120639.290000", "120640.790000", "120642.290000", "120643.790000", "120645.290000", "120646.790000", "120648.290000", "120649.790000", "120651.290000", "120652.790000", "120654.290000", "120655.790000", "120657.290000", "120658.790000", "120700.290000", "120701.790000", "120703.290000", "120704.790000", "120706.290000", "120707.790000", "120709.290000", "120710.790000", "120712.290000", "120713.790000", "120715.290000", "120716.790000", "120718.290000", "120719.790000", "120721.290000", "120722.790000", "120724.290000", "120725.790000", "120727.290000", "120728.790000", "120730.290000", "120731.790000", "120733.290000", "120734.790000", "120736.290000", "120737.790000", "120739.290000", "120740.790000", "120742.290000", "120743.790000", "120745.290000", "120746.790000", "120748.290000", "120749.790000", "120751.290000", "120752.790000", "120754.290000", "120755.790000", "120757.290000", "120758.790000", "120800.290000", "120801.790000", "120803.290000", "120804.790000", "120806.290000", "120807.790000", "120809.290000", "120810.790000", "120812.290000", "120813.790000", "120815.290000", "120816.790000", "120818.290000", "120819.790000", "120821.290000", "120822.790000", "120824.290000", "120825.790000", "120827.290000", "120828.790000", "120830.290000", "120831.790000", "120833.290000", "120834.790000", "120836.290000", "120837.790000", "120839.290000", "120840.790000", "120842.290000", "120843.790000", "120845.290000", "120846.790000", "120848.290000", "120849.790000", "120851.290000", "120852.790000", "120854.290000", "120855.790000", "120857.290000", "120858.790000", "120900.290000", "120901.790000", "120903.290000", "120904.790000", "120906.290000", "120907.790000", "120909.290000", "120910.790000", "120912.290000", "120913.790000", "120915.290000", "120916.790000", "120918.290000", "120919.790000", "120921.290000", "120922.790000", "120924.290000", "120925.790000", "120927.290000", "120928.790000", "120930.290000", "120931.790000", "120933.290000", "120934.790000", "120936.290000", "120937.790000", "120939.290000", "120940.790000", "120942.290000", "120943.790000", "120945.290000", "120946.790000", "120948.290000", "120949.790000", "120951.290000", "120952.790000", "120954.290000", "120955.790000", "120957.290000", "120958.790000", "121000.290000", "121001.790000", "121003.290000", "121004.790000", "121006.290000", "121007.790000", "121009.290000", "121010.790000", "121012.290000", "121013.790000", "121015.290000", "121016.790000", "121018.290000", "121019.790000", "121021.290000", "121022.790000", "121024.290000", "121025.790000", "121027.290000", "121028.790000", "121030.290000", "121031.790000", "121033.290000", "121034.790000", "121036.290000", "121037.790000", "121039.290000", "121040.790000", "121042.290000", "121043.790000", "121045.290000", "121046.790000", "121048.290000", "121049.790000", "121051.290000", "121052.790000", "121054.290000", "121055.790000", "121057.290000", "121058.790000", "121100.290000", "121101.790000", "121103.290000", "121104.790000", "121106.290000", "121107.790000", "121109.290000", "121110.790000", "121112.290000", "121113.790000", "121115.290000", "121116.790000", "121118.290000", "121119.790000", "121121.290000", "121122.790000", "121124.290000", "121125.790000", "121127.290000", "121128.790000", "121130.290000", "121131.790000", "121133.290000", "121134.790000", "121136.290000", "121137.790000", "121139.290000", "121140.790000", "121142.290000", "121143.790000", "121145.290000", "121146.790000", "121148.290000", "121149.790000", "121151.290000", "121152.790000", "121154.290000", "121155.790000", "121157.290000", "121158.790000", "121200.290000", "121201.790000", "121203.290000", "121204.790000", "121206.290000", "121207.790000", "121209.290000", "121210.790000", "121212.290000", "121213.790000", "121215.290000", "121216.790000", "121218.290000", "121219.790000", "121221.290000", "121222.790000", "121224.290000", "121225.790000", "121227.290000", "121228.790000", "121230.290000", "121231.790000", "121233.290000", "121234.790000", "121236.290000", "121237.790000", "121239.290000", "121240.790000", "121242.290000", "121243.790000", "121245.290000", "121246.790000", "121248.290000", "121249.790000", "121251.290000", "121252.790000", "121254.290000", "121255.790000", "121257.290000", "121258.790000", "121300.290000", "121301.790000", "121303.290000", "121304.790000", "121306.290000", "121307.790000", "121309.290000", "121310.790000", "121312.290000", "121313.790000", "121315.290000", "121316.790000", "121318.290000", "121319.790000", "121321.290000", "121322.790000", "121324.290000", "121325.790000", "121327.290000", "121328.790000", "121330.290000", "121331.790000", "121333.290000", "121334.790000", "121336.290000", "121337.790000", "121339.290000", "121340.790000", "121342.290000", "121343.790000", "121345.290000", "121346.790000", "121348.290000", "121349.790000", "121351.290000", "121352.790000", "121354.290000", "121355.790000", "121357.290000", "121358.790000", "121400.290000", "121401.790000", "121403.290000", "121404.790000", "121406.290000", "121407.790000", "121409.290000", "121410.790000", "121412.290000", "121413.790000", "121415.290000", "121416.790000", "121418.290000", "121419.790000", "121421.290000", "121422.790000", "121424.290000", "121425.790000", "121427.290000", "121428.790000", "121430.290000", "121431.790000", "121433.290000", "121434.790000", "121436.290000", "121437.790000", "121439.290000", "121440.790000", "121442.290000", "121443.790000", "121445.290000", "121446.790000", "121448.290000", "121449.790000", "121451.290000", "121452.790000", "121454.290000", "121455.790000", "121457.290000", "121458.790000", "121500.290000", "121501.790000", "121503.290000", "121504.790000", "121506.290000", "121507.790000", "121509.290000", "121510.790000", "121512.290000", "121513.790000", "121515.290000", "121516.790000", "121518.290000", "121519.790000", "121521.290000", "121522.790000", "121524.290000", "121525.790000", "121527.290000", "121528.790000", "121530.290000", "121531.790000", "121533.290000", "121534.790000", "121536.290000", "121537.790000", "121539.290000", "121540.790000", "121542.290000", "121543.790000", "121545.290000", "121546.790000", "121548.290000", "121549.790000", "121551.290000", "121552.790000", "121554.290000", "121555.790000", "121557.290000", "121558.790000", "121600.290000", "121601.790000", "121603.290000", "121604.790000", "121606.290000", "121607.790000", "121609.290000", "121610.790000", "121612.290000", "121613.790000", "121615.290000", "121616.790000", "121618.290000", "121619.790000", "121621.290000", "121622.790000", "121624.290000", "121625.790000", "121627.290000", "121628.790000", "121630.290000", "121631.790000", "121633.290000", "121634.790000", "121636.290000", "121637.790000", "121639.290000", "121640.790000", "121642.290000", "121643.790000", "121645.290000", "121646.790000", "121648.290000", "121649.790000", "121651.290000", "121652.790000", "121654.290000", "121655.790000", "121657.290000", "121658.790000", "121700.290000", "121701.790000", "121703.290000", "121704.790000", "121706.290000", "121707.790000", "121709.290000", "121710.790000", "121712.290000", "121713.790000", "121715.290000", "121716.790000", "121718.290000", "121719.790000", "121721.290000", "121722.790000", "121724.290000", "121725.790000", "121727.290000", "121728.790000", "121730.290000", "121731.790000", "121733.290000", "121734.790000", "121736.290000", "121737.790000", "121739.290000", "121740.790000", "121742.290000", "121743.790000", "121745.290000", "121746.790000", "121748.290000", "121749.790000", "121751.290000", "121752.790000", "121754.290000", "121755.790000", "121757.290000", "121758.790000", "121800.290000", "121801.790000", "121803.290000", "121804.790000", "121806.290000", "121807.790000", "121809.290000", "121810.790000", "121812.290000", "121813.790000", "121815.290000", "121816.790000", "121818.290000", "121819.790000", "121821.290000", "121822.790000", "121824.290000", "121825.790000", "121827.290000", "121828.790000", "121830.290000", "121831.790000", "121833.290000", "121834.790000", "121836.290000", "121837.790000", "121839.290000", "121840.790000", "121842.290000", "121843.790000", "121845.290000", "121846.790000", "121848.290000", "121849.790000", "121851.290000", "121852.790000", "121854.290000", "121855.790000", "121857.290000", "121858.790000", "121900.290000", "121901.790000", "121903.290000", "121904.790000", "121906.290000", "121907.790000", "121909.290000", "121910.790000", "121912.290000", "121913.790000", "121915.290000", "121916.790000", "121918.290000", "121919.790000", "121921.290000", "121922.790000", "121924.290000", "121925.790000", "121927.290000", "121928.790000", "121930.290000", "121931.790000", "121933.290000", "121934.790000", "121936.290000", "121937.790000", "121939.290000", "121940.790000", "121942.290000", "121943.790000", "121945.290000", "121946.790000", "121948.290000", "121949.790000", "121951.290000", "121952.790000", "121954.290000", "121955.790000", "121957.290000", "121958.790000", "122000.290000", "122001.790000", "122003.290000", "122004.790000", "122006.290000", "122007.790000", "122009.290000", "122010.790000", "122012.290000", "122013.790000", "122015.290000", "122016.790000", "122018.290000", "122019.790000", "122021.290000", "122022.790000", "122024.290000", "122025.790000", "122027.290000", "122028.790000", "122030.290000", "122031.790000", "122033.290000", "122034.790000", "122036.290000", "122037.790000", "122039.290000", "122040.790000", "122042.290000", "122043.790000", "122045.290000", "122046.790000", "122048.290000", "122049.790000", "122051.290000", "122052.790000", "122054.290000", "122055.790000", "122057.290000", "122058.790000", "122100.290000", "122101.790000", "122103.290000", "122104.790000", "122106.290000", "122107.790000", "122109.290000", "122110.790000", "122112.290000", "122113.790000", "122115.290000", "122116.790000", "122118.290000", "122119.790000", "122121.290000", "122122.790000", "122124.290000", "122125.790000", "122127.290000", "122128.790000", "122130.290000", "122131.790000", "122133.290000", "122134.790000", "122136.290000", "122137.790000", "122139.290000", "122140.790000", "122142.290000", "122143.790000", "122145.290000", "122146.790000", "122148.290000", "122149.790000", "122151.290000", "122152.790000", "122154.290000", "122155.790000", "122157.290000", "122158.790000", "122200.290000", "122201.790000", "122203.290000", "122204.790000", "122206.290000", "122207.790000", "122209.290000", "122210.790000", "122212.290000", "122213.790000", "122215.290000", "122216.790000", "122218.290000", "122219.790000", "122221.290000", "122222.790000", "122224.290000", "122225.790000", "122227.290000", "122228.790000", "122230.290000", "122231.790000", "122233.290000", "122234.790000", "122236.290000", "122237.790000", "122239.290000", "122240.790000", "122242.290000", "122243.790000", "122245.290000", "122246.790000", "122248.290000", "122249.790000", "122251.290000", "122252.790000", "122254.290000", "122255.790000", "122257.290000", "122258.790000", "122300.290000", "122301.790000", "122303.290000", "122304.790000", "122306.290000", "122307.790000", "122309.290000", "122310.790000", "122312.290000", "122313.790000", "122315.290000", "122316.790000", "122318.290000", "122319.790000", "122321.290000", "122322.790000", "122324.290000", "122325.790000", "122327.290000", "122328.790000", "122330.290000", "122331.790000", "122333.290000", "122334.790000", "122336.290000", "122337.790000", "122339.290000", "122340.790000", "122342.290000", "122343.790000", "122345.290000", "122346.790000", "122348.290000", "122349.790000", "122351.290000", "122352.790000", "122354.290000", "122355.790000", "122357.290000", "122358.790000", "122400.290000", "122401.790000", "122403.290000", "122404.790000", "1