{
  "AcquisitionMatrixPE": 106,
  "AcquisitionNumber": 1,
  "AcquisitionTime": "12:38:4.687500",
  "BandwidthPerPixelPhaseEncode": 16.846,
  "BaseResolution": 106,
  "BodyPartExamined": "BRAIN",
  "CoilCombinationMethod": "Sum of Squares",
  "ConsistencyInfo": "N4_VE11C_LATEST_20160120",
  "ConversionSoftware": "dcm2niix",
  "ConversionSoftwareVersion": "v1.0.20220720",
  "DerivedVendorReportedEchoSpacing": 0.000560012,
  "DeviceSerialNumber": "166108",
  "DwellTime": 1.8e-06,
  "EchoTime": 0.0352,
  "EchoTrainLength": 106,
  "EffectiveEchoSpacing": 0.000560012,
  "FlipAngle": 60,
  "HeudiconvVersion": "1.3.0",
  "ImageComments": "Unaliased MB4/PE3/LB",
  "ImageOrientationPatientDICOM": [1, 0, 0, 0, 1, 0],
  "ImageOrientationText": "Tra",
  "ImageType": [
    "ORIGINAL",
    "PRIMARY",
    "M",
    "MB",
    "ND",
    "MOSAIC"
],
  "ImagingFrequency": 123.244,
  "InPlanePhaseEncodingDirectionDICOM": "COL",
  "InstitutionAddress": "Bedford Way 26,London,London,GB,WC1H 0AP",
  "InstitutionName": "University College",
  "InstitutionalDepartmentName": "Department",
  "MRAcquisitionType": "2D",
  "MagneticFieldStrength": 3,
  "Manufacturer": "Siemens",
  "ManufacturersModelName": "Prisma",
  "MatrixCoilMode": "SENSE",
  "Modality": "MR",
  "MultibandAccelerationFactor": 4,
  "NonlinearGradientCorrection": false,
  "PartialFourier": 1,
  "PatientPosition": "HFS",
  "PercentPhaseFOV": 100,
  "PercentSampling": 100,
  "PhaseEncodingDirection": "j-",
  "PhaseEncodingSteps": 106,
  "PhaseResolution": 1,
  "PixelBandwidth": 2620,
  "ProcedureStepDescription": "Egor^MovieProject2",
  "ProtocolName": "task-backtothefuture_run-2",
  "PulseSequenceDetails": "%CustomerSeq%\\cmrr_mbep2d_bold",
  "ReceiveCoilActiveElements": "HEA;HEP",
  "ReceiveCoilName": "Head_32",
  "ReconMatrixPE": 106,
  "RepetitionTime": 1.5,
  "SAR": 0.0675952,
  "ScanOptions": "FS\\EXT",
  "ScanningSequence": "EP",
  "SequenceName": "epfid2d1_106",
  "SequenceVariant": "SK\\SS",
  "SeriesDescription": "task-backtothefuture_run-2",
  "SeriesNumber": 9,
  "ShimSetting": [-1586, 607, 7440, 471, -35, 15, 29, 23],
  "SliceThickness": 2,
  "SliceTiming": [0, 1.07, 0.6575, 0.2475, 1.315, 0.905, 0.4925, 0.0825, 1.1525, 0.74, 0.33, 1.3975, 0.9875, 0.575, 0.165, 1.2325, 0.8225, 0.4125, 0, 1.07, 0.6575, 0.2475, 1.315, 0.905, 0.4925, 0.0825, 1.1525, 0.74, 0.33, 1.3975, 0.9875, 0.575, 0.165, 1.2325, 0.8225, 0.4125, 0, 1.07, 0.6575, 0.2475, 1.315, 0.905, 0.4925, 0.0825, 1.1525, 0.74, 0.33, 1.3975, 0.9875, 0.575, 0.165, 1.2325, 0.8225, 0.4125, 0, 1.07, 0.6575, 0.2475, 1.315, 0.905, 0.4925, 0.0825, 1.1525, 0.74, 0.33, 1.3975, 0.9875, 0.575, 0.165, 1.2325, 0.8225, 0.4125],
  "SoftwareVersions": "syngo MR E11",
  "SpacingBetweenSlices": 2,
  "StationName": "AWP166108",
  "TaskName": "backtothefuture",
  "TotalReadoutTime": 0.0588013,
  "TxRefAmp": 230.609,
  "WipMemBlock": "a1557430-6bf6-4e6c-9a79-b839d70e0333||Sequence: R016 ve11c/master r/e634e98; Dec 19 2017 11:00:25 by eja",
  "dcmmeta_affine": [
    [-2.0, 0.0, 0.0, 106.0],
    [0.0, 2.0, 0.0, -90.14457702636719],
    [0.0, 0.0, 2.0, -43.89156723022461],
    [0.0, 0.0, 0.0, 1.0]
],
  "dcmmeta_reorient_transform": [
    [0.0, -1.0, 0.0, 105.0],
    [1.0, 0.0, 0.0, 0.0],
    [0.0, 0.0, 1.0, 0.0],
    [0.0, 0.0, 0.0, 1.0]
],
  "dcmmeta_shape": [106, 106, 72, 1522],
  "dcmmeta_slice_dim": 2,
  "dcmmeta_version": 0.6,
  "global": {
    "const": {
      "AcquisitionMatrix": [106, 0, 0, 106],
      "AngioFlag": "N",
      "BitsAllocated": 16,
      "BitsStored": 16,
      "BodyPartExamined": "BRAIN",
      "CardiacNumberOfImages": 1,
      "Columns": 954,
      "EchoNumbers": 1,
      "EchoTime": 35.2,
      "EchoTrainLength": 106,
      "FlipAngle": 60.0,
      "HighBit": 15,
      "ImageOrientationPatient": [1.0, 0.0, 0.0, 0.0, 1.0, 0.0],
      "ImagePositionPatient": [-954.0, -967.85542201996, -43.891567230225],
      "ImageType": [
        "ORIGINAL",
        "PRIMARY",
        "M",
        "MB",
        "ND",
        "MOSAIC"
],
      "ImagedNucleus": "1H",
      "ImagingFrequency": 123.243691,
      "InPlanePhaseEncodingDirection": "COL",
      "MRAcquisitionType": "2D",
      "MagneticFieldStrength": 3.0,
      "Manufacturer": "SIEMENS",
      "ManufacturerModelName": "Prisma",
      "Modality": "MR",
      "NominalInterval": 0,
      "NumberOfAverages": 1.0,
      "NumberOfPhaseEncodingSteps": 106,
      "PercentPhaseFieldOfView": 100.0,
      "PercentSampling": 100.0,
      "PerformedProcedureStepStartTime": "112557.448000",
      "PhotometricInterpretation": "MONOCHROME2",
      "PixelBandwidth": 2620.0,
      "PixelRepresentation": 0,
      "PixelSpacing": [2.0, 2.0],
      "ProtocolName": "task-backtothefuture_run-2",
      "RepetitionTime": 1500.0,
      "Rows": 954,
      "SAR": 0.06759524044167,
      "SamplesPerPixel": 1,
      "ScanOptions": [
        "FS",
        "EXT"
],
      "ScanningSequence": "EP",
      "SequenceName": "epfid2d1_106",
      "SequenceVariant": [
        "SK",
        "SS"
],
      "SeriesDescription": "task-backtothefuture_run-2",
      "SeriesNumber": 9,
      "SeriesTime": "123848.643000",
      "SliceLocation": -43.891567230225,
      "SliceThickness": 2.0,
      "SmallestImagePixelValue": 0,
      "SoftwareVersions": "syngo MR E11",
      "SpacingBetweenSlices": 2.0000000537281,
      "SpecificCharacterSet": "ISO_IR 100",
      "StudyID": "1",
      "StudyTime": "112557.383000",
      "TransmitCoilName": "Body",
      "VariableFlipAngleFlag": "N",
      "WindowCenterWidthExplanation": "Algo1",
      "dBdt": 0.0},
    "slices": {}
  },
  "time": {
    "samples": {
      "AcquisitionNumber": [1, 2, 3, 4, 5, 6, 7, 8, 9, 10, 11, 12, 13, 14, 15, 16, 17, 18, 19, 20, 21, 22, 23, 24, 25, 26, 27, 28, 29, 30, 31, 32, 33, 34, 35, 36, 37, 38, 39, 40, 41, 42, 43, 44, 45, 46, 47, 48, 49, 50, 51, 52, 53, 54, 55, 56, 57, 58, 59, 60, 61, 62, 63, 64, 65, 66, 67, 68, 69, 70, 71, 72, 73, 74, 75, 76, 77, 78, 79, 80, 81, 82, 83, 84, 85, 86, 87, 88, 89, 90, 91, 92, 93, 94, 95, 96, 97, 98, 99, 100, 101, 102, 103, 104, 105, 106, 107, 108, 109, 110, 111, 112, 113, 114, 115, 116, 117, 118, 119, 120, 121, 122, 123, 124, 125, 126, 127, 128, 129, 130, 131, 132, 133, 134, 135, 136, 137, 138, 139, 140, 141, 142, 143, 144, 145, 146, 147, 148, 149, 150, 151, 152, 153, 154, 155, 156, 157, 158, 159, 160, 161, 162, 163, 164, 165, 166, 167, 168, 169, 170, 171, 172, 173, 174, 175, 176, 177, 178, 179, 180, 181, 182, 183, 184, 185, 186, 187, 188, 189, 190, 191, 192, 193, 194, 195, 196, 197, 198, 199, 200, 201, 202, 203, 204, 205, 206, 207, 208, 209, 210, 211, 212, 213, 214, 215, 216, 217, 218, 219, 220, 221, 222, 223, 224, 225, 226, 227, 228, 229, 230, 231, 232, 233, 234, 235, 236, 237, 238, 239, 240, 241, 242, 243, 244, 245, 246, 247, 248, 249, 250, 251, 252, 253, 254, 255, 256, 257, 258, 259, 260, 261, 262, 263, 264, 265, 266, 267, 268, 269, 270, 271, 272, 273, 274, 275, 276, 277, 278, 279, 280, 281, 282, 283, 284, 285, 286, 287, 288, 289, 290, 291, 292, 293, 294, 295, 296, 297, 298, 299, 300, 301, 302, 303, 304, 305, 306, 307, 308, 309, 310, 311, 312, 313, 314, 315, 316, 317, 318, 319, 320, 321, 322, 323, 324, 325, 326, 327, 328, 329, 330, 331, 332, 333, 334, 335, 336, 337, 338, 339, 340, 341, 342, 343, 344, 345, 346, 347, 348, 349, 350, 351, 352, 353, 354, 355, 356, 357, 358, 359, 360, 361, 362, 363, 364, 365, 366, 367, 368, 369, 370, 371, 372, 373, 374, 375, 376, 377, 378, 379, 380, 381, 382, 383, 384, 385, 386, 387, 388, 389, 390, 391, 392, 393, 394, 395, 396, 397, 398, 399, 400, 401, 402, 403, 404, 405, 406, 407, 408, 409, 410, 411, 412, 413, 414, 415, 416, 417, 418, 419, 420, 421, 422, 423, 424, 425, 426, 427, 428, 429, 430, 431, 432, 433, 434, 435, 436, 437, 438, 439, 440, 441, 442, 443, 444, 445, 446, 447, 448, 449, 450, 451, 452, 453, 454, 455, 456, 457, 458, 459, 460, 461, 462, 463, 464, 465, 466, 467, 468, 469, 470, 471, 472, 473, 474, 475, 476, 477, 478, 479, 480, 481, 482, 483, 484, 485, 486, 487, 488, 489, 490, 491, 492, 493, 494, 495, 496, 497, 498, 499, 500, 501, 502, 503, 504, 505, 506, 507, 508, 509, 510, 511, 512, 513, 514, 515, 516, 517, 518, 519, 520, 521, 522, 523, 524, 525, 526, 527, 528, 529, 530, 531, 532, 533, 534, 535, 536, 537, 538, 539, 540, 541, 542, 543, 544, 545, 546, 547, 548, 549, 550, 551, 552, 553, 554, 555, 556, 557, 558, 559, 560, 561, 562, 563, 564, 565, 566, 567, 568, 569, 570, 571, 572, 573, 574, 575, 576, 577, 578, 579, 580, 581, 582, 583, 584, 585, 586, 587, 588, 589, 590, 591, 592, 593, 594, 595, 596, 597, 598, 599, 600, 601, 602, 603, 604, 605, 606, 607, 608, 609, 610, 611, 612, 613, 614, 615, 616, 617, 618, 619, 620, 621, 622, 623, 624, 625, 626, 627, 628, 629, 630, 631, 632, 633, 634, 635, 636, 637, 638, 639, 640, 641, 642, 643, 644, 645, 646, 647, 648, 649, 650, 651, 652, 653, 654, 655, 656, 657, 658, 659, 660, 661, 662, 663, 664, 665, 666, 667, 668, 669, 670, 671, 672, 673, 674, 675, 676, 677, 678, 679, 680, 681, 682, 683, 684, 685, 686, 687, 688, 689, 690, 691, 692, 693, 694, 695, 696, 697, 698, 699, 700, 701, 702, 703, 704, 705, 706, 707, 708, 709, 710, 711, 712, 713, 714, 715, 716, 717, 718, 719, 720, 721, 722, 723, 724, 725, 726, 727, 728, 729, 730, 731, 732, 733, 734, 735, 736, 737, 738, 739, 740, 741, 742, 743, 744, 745, 746, 747, 748, 749, 750, 751, 752, 753, 754, 755, 756, 757, 758, 759, 760, 761, 762, 763, 764, 765, 766, 767, 768, 769, 770, 771, 772, 773, 774, 775, 776, 777, 778, 779, 780, 781, 782, 783, 784, 785, 786, 787, 788, 789, 790, 791, 792, 793, 794, 795, 796, 797, 798, 799, 800, 801, 802, 803, 804, 805, 806, 807, 808, 809, 810, 811, 812, 813, 814, 815, 816, 817, 818, 819, 820, 821, 822, 823, 824, 825, 826, 827, 828, 829, 830, 831, 832, 833, 834, 835, 836, 837, 838, 839, 840, 841, 842, 843, 844, 845, 846, 847, 848, 849, 850, 851, 852, 853, 854, 855, 856, 857, 858, 859, 860, 861, 862, 863, 864, 865, 866, 867, 868, 869, 870, 871, 872, 873, 874, 875, 876, 877, 878, 879, 880, 881, 882, 883, 884, 885, 886, 887, 888, 889, 890, 891, 892, 893, 894, 895, 896, 897, 898, 899, 900, 901, 902, 903, 904, 905, 906, 907, 908, 909, 910, 911, 912, 913, 914, 915, 916, 917, 918, 919, 920, 921, 922, 923, 924, 925, 926, 927, 928, 929, 930, 931, 932, 933, 934, 935, 936, 937, 938, 939, 940, 941, 942, 943, 944, 945, 946, 947, 948, 949, 950, 951, 952, 953, 954, 955, 956, 957, 958, 959, 960, 961, 962, 963, 964, 965, 966, 967, 968, 969, 970, 971, 972, 973, 974, 975, 976, 977, 978, 979, 980, 981, 982, 983, 984, 985, 986, 987, 988, 989, 990, 991, 992, 993, 994, 995, 996, 997, 998, 999, 1000, 1001, 1002, 1003, 1004, 1005, 1006, 1007, 1008, 1009, 1010, 1011, 1012, 1013, 1014, 1015, 1016, 1017, 1018, 1019, 1020, 1021, 1022, 1023, 1024, 1025, 1026, 1027, 1028, 1029, 1030, 1031, 1032, 1033, 1034, 1035, 1036, 1037, 1038, 1039, 1040, 1041, 1042, 1043, 1044, 1045, 1046, 1047, 1048, 1049, 1050, 1051, 1052, 1053, 1054, 1055, 1056, 1057, 1058, 1059, 1060, 1061, 1062, 1063, 1064, 1065, 1066, 1067, 1068, 1069, 1070, 1071, 1072, 1073, 1074, 1075, 1076, 1077, 1078, 1079, 1080, 1081, 1082, 1083, 1084, 1085, 1086, 1087, 1088, 1089, 1090, 1091, 1092, 1093, 1094, 1095, 1096, 1097, 1098, 1099, 1100, 1101, 1102, 1103, 1104, 1105, 1106, 1107, 1108, 1109, 1110, 1111, 1112, 1113, 1114, 1115, 1116, 1117, 1118, 1119, 1120, 1121, 1122, 1123, 1124, 1125, 1126, 1127, 1128, 1129, 1130, 1131, 1132, 1133, 1134, 1135, 1136, 1137, 1138, 1139, 1140, 1141, 1142, 1143, 1144, 1145, 1146, 1147, 1148, 1149, 1150, 1151, 1152, 1153, 1154, 1155, 1156, 1157, 1158, 1159, 1160, 1161, 1162, 1163, 1164, 1165, 1166, 1167, 1168, 1169, 1170, 1171, 1172, 1173, 1174, 1175, 1176, 1177, 1178, 1179, 1180, 1181, 1182, 1183, 1184, 1185, 1186, 1187, 1188, 1189, 1190, 1191, 1192, 1193, 1194, 1195, 1196, 1197, 1198, 1199, 1200, 1201, 1202, 1203, 1204, 1205, 1206, 1207, 1208, 1209, 1210, 1211, 1212, 1213, 1214, 1215, 1216, 1217, 1218, 1219, 1220, 1221, 1222, 1223, 1224, 1225, 1226, 1227, 1228, 1229, 1230, 1231, 1232, 1233, 1234, 1235, 1236, 1237, 1238, 1239, 1240, 1241, 1242, 1243, 1244, 1245, 1246, 1247, 1248, 1249, 1250, 1251, 1252, 1253, 1254, 1255, 1256, 1257, 1258, 1259, 1260, 1261, 1262, 1263, 1264, 1265, 1266, 1267, 1268, 1269, 1270, 1271, 1272, 1273, 1274, 1275, 1276, 1277, 1278, 1279, 1280, 1281, 1282, 1283, 1284, 1285, 1286, 1287, 1288, 1289, 1290, 1291, 1292, 1293, 1294, 1295, 1296, 1297, 1298, 1299, 1300, 1301, 1302, 1303, 1304, 1305, 1306, 1307, 1308, 1309, 1310, 1311, 1312, 1313, 1314, 1315, 1316, 1317, 1318, 1319, 1320, 1321, 1322, 1323, 1324, 1325, 1326, 1327, 1328, 1329, 1330, 1331, 1332, 1333, 1334, 1335, 1336, 1337, 1338, 1339, 1340, 1341, 1342, 1343, 1344, 1345, 1346, 1347, 1348, 1349, 1350, 1351, 1352, 1353, 1354, 1355, 1356, 1357, 1358, 1359, 1360, 1361, 1362, 1363, 1364, 1365, 1366, 1367, 1368, 1369, 1370, 1371, 1372, 1373, 1374, 1375, 1376, 1377, 1378, 1379, 1380, 1381, 1382, 1383, 1384, 1385, 1386, 1387, 1388, 1389, 1390, 1391, 1392, 1393, 1394, 1395, 1396, 1397, 1398, 1399, 1400, 1401, 1402, 1403, 1404, 1405, 1406, 1407, 1408, 1409, 1410, 1411, 1412, 1413, 1414, 1415, 1416, 1417, 1418, 1419, 1420, 1421, 1422, 1423, 1424, 1425, 1426, 1427, 1428, 1429, 1430, 1431, 1432, 1433, 1434, 1435, 1436, 1437, 1438, 1439, 1440, 1441, 1442, 1443, 1444, 1445, 1446, 1447, 1448, 1449, 1450, 1451, 1452, 1453, 1454, 1455, 1456, 1457, 1458, 1459, 1460, 1461, 1462, 1463, 1464, 1465, 1466, 1467, 1468, 1469, 1470, 1471, 1472, 1473, 1474, 1475, 1476, 1477, 1478, 1479, 1480, 1481, 1482, 1483, 1484, 1485, 1486, 1487, 1488, 1489, 1490, 1491, 1492, 1493, 1494, 1495, 1496, 1497, 1498, 1499, 1500, 1501, 1502, 1503, 1504, 1505, 1506, 1507, 1508, 1509, 1510, 1511, 1512, 1513, 1514, 1515, 1516, 1517, 1518, 1519, 1520, 1521, 1522],
      "AcquisitionTime": ["123804.687500", "123806.187500", "123807.687500", "123809.187500", "123810.687500", "123812.187500", "123813.687500", "123815.187500", "123816.687500", "123818.187500", "123819.687500", "123821.187500", "123822.687500", "123824.187500", "123825.687500", "123827.187500", "123828.687500", "123830.187500", "123831.687500", "123833.187500", "123834.687500", "123836.187500", "123837.687500", "123839.187500", "123840.687500", "123842.187500", "123843.687500", "123845.187500", "123846.687500", "123848.187500", "123849.687500", "123851.187500", "123852.687500", "123854.187500", "123855.687500", "123857.187500", "123858.687500", "123900.187500", "123901.687500", "123903.187500", "123904.687500", "123906.187500", "123907.687500", "123909.187500", "123910.687500", "123912.187500", "123913.687500", "123915.187500", "123916.687500", "123918.187500", "123919.687500", "123921.187500", "123922.687500", "123924.187500", "123925.687500", "123927.187500", "123928.687500", "123930.187500", "123931.687500", "123933.187500", "123934.687500", "123936.187500", "123937.687500", "123939.187500", "123940.687500", "123942.187500", "123943.687500", "123945.187500", "123946.687500", "123948.187500", "123949.687500", "123951.187500", "123952.687500", "123954.187500", "123955.687500", "123957.187500", "123958.687500", "124000.187500", "124001.687500", "124003.187500", "124004.687500", "124006.187500", "124007.687500", "124009.187500", "124010.687500", "124012.187500", "124013.687500", "124015.187500", "124016.687500", "124018.187500", "124019.687500", "124021.187500", "124022.687500", "124024.187500", "124025.687500", "124027.187500", "124028.687500", "124030.187500", "124031.687500", "124033.187500", "124034.687500", "124036.187500", "124037.687500", "124039.187500", "124040.687500", "124042.187500", "124043.687500", "124045.187500", "124046.687500", "124048.187500", "124049.687500", "124051.187500", "124052.687500", "124054.187500", "124055.687500", "124057.187500", "124058.687500", "124100.187500", "124101.687500", "124103.187500", "124104.687500", "124106.187500", "124107.687500", "124109.187500", "124110.687500", "124112.187500", "124113.687500", "124115.187500", "124116.687500", "124118.187500", "124119.687500", "124121.187500", "124122.687500", "124124.187500", "124125.687500", "124127.187500", "124128.687500", "124130.187500", "124131.687500", "124133.187500", "124134.687500", "124136.187500", "124137.687500", "124139.187500", "124140.687500", "124142.187500", "124143.687500", "124145.187500", "124146.687500", "124148.187500", "124149.687500", "124151.187500", "124152.687500", "124154.187500", "124155.687500", "124157.187500", "124158.687500", "124200.187500", "124201.687500", "124203.187500", "124204.687500", "124206.187500", "124207.687500", "124209.187500", "124210.687500", "124212.187500", "124213.687500", "124215.187500", "124216.687500", "124218.187500", "124219.687500", "124221.187500", "124222.687500", "124224.187500", "124225.687500", "124227.187500", "124228.687500", "124230.187500", "124231.687500", "124233.187500", "124234.687500", "124236.187500", "124237.687500", "124239.187500", "124240.687500", "124242.187500", "124243.687500", "124245.187500", "124246.687500", "124248.187500", "124249.687500", "124251.187500", "124252.687500", "124254.187500", "124255.687500", "124257.187500", "124258.687500", "124300.187500", "124301.687500", "124303.187500", "124304.687500", "124306.187500", "124307.687500", "124309.187500", "124310.687500", "124312.187500", "124313.687500", "124315.187500", "124316.687500", "124318.187500", "124319.687500", "124321.187500", "124322.687500", "124324.187500", "124325.687500", "124327.187500", "124328.687500", "124330.187500", "124331.687500", "124333.187500", "124334.687500", "124336.187500", "124337.687500", "124339.187500", "124340.687500", "124342.187500", "124343.687500", "124345.187500", "124346.687500", "124348.187500", "124349.687500", "124351.187500", "124352.687500", "124354.187500", "124355.687500", "124357.187500", "124358.687500", "124400.187500", "124401.687500", "124403.187500", "124404.687500", "124406.187500", "124407.687500", "124409.187500", "124410.687500", "124412.187500", "124413.687500", "124415.187500", "124416.687500", "124418.187500", "124419.687500", "124421.187500", "124422.687500", "124424.187500", "124425.687500", "124427.187500", "124428.687500", "124430.187500", "124431.687500", "124433.187500", "124434.687500", "124436.187500", "124437.687500", "124439.187500", "124440.687500", "124442.187500", "124443.687500", "124445.187500", "124446.687500", "124448.187500", "124449.687500", "124451.187500", "124452.687500", "124454.187500", "124455.687500", "124457.187500", "124458.687500", "124500.187500", "124501.687500", "124503.187500", "124504.687500", "124506.187500", "124507.687500", "124509.187500", "124510.687500", "124512.187500", "124513.687500", "124515.187500", "124516.687500", "124518.187500", "124519.687500", "124521.187500", "124522.687500", "124524.187500", "124525.687500", "124527.187500", "124528.687500", "124530.187500", "124531.687500", "124533.187500", "124534.687500", "124536.187500", "124537.687500", "124539.187500", "124540.687500", "124542.187500", "124543.687500", "124545.187500", "124546.687500", "124548.187500", "124549.687500", "124551.187500", "124552.687500", "124554.187500", "124555.687500", "124557.187500", "124558.687500", "124600.187500", "124601.687500", "124603.187500", "124604.687500", "124606.187500", "124607.687500", "124609.187500", "124610.687500", "124612.187500", "124613.687500", "124615.187500", "124616.687500", "124618.187500", "124619.687500", "124621.187500", "124622.687500", "124624.187500", "124625.687500", "124627.187500", "124628.687500", "124630.187500", "124631.687500", "124633.187500", "124634.687500", "124636.187500", "124637.687500", "124639.187500", "124640.687500", "124642.187500", "124643.687500", "124645.187500", "124646.687500", "124648.187500", "124649.687500", "124651.187500", "124652.687500", "124654.187500", "124655.687500", "124657.187500", "124658.687500", "124700.187500", "124701.687500", "124703.187500", "124704.687500", "124706.187500", "124707.687500", "124709.187500", "124710.687500", "124712.187500", "124713.687500", "124715.187500", "124716.687500", "124718.187500", "124719.687500", "124721.187500", "124722.687500", "124724.187500", "124725.687500", "124727.187500", "124728.687500", "124730.187500", "124731.687500", "124733.187500", "124734.687500", "124736.187500", "124737.687500", "124739.187500", "124740.687500", "124742.187500", "124743.687500", "124745.187500", "124746.687500", "124748.187500", "124749.687500", "124751.187500", "124752.687500", "124754.187500", "124755.687500", "124757.187500", "124758.687500", "124800.187500", "124801.687500", "124803.187500", "124804.687500", "124806.187500", "124807.687500", "124809.187500", "124810.687500", "124812.187500", "124813.687500", "124815.187500", "124816.687500", "124818.187500", "124819.687500", "124821.187500", "124822.687500", "124824.187500", "124825.687500", "124827.187500", "124828.687500", "124830.187500", "124831.687500", "124833.187500", "124834.687500", "124836.187500", "124837.687500", "124839.187500", "124840.687500", "124842.187500", "124843.687500", "124845.187500", "124846.687500", "124848.187500", "124849.687500", "124851.187500", "124852.687500", "124854.187500", "124855.687500", "124857.187500", "124858.687500", "124900.187500", "124901.687500", "124903.187500", "124904.687500", "124906.187500", "124907.687500", "124909.187500", "124910.687500", "124912.187500", "124913.687500", "124915.187500", "124916.687500", "124918.187500", "124919.687500", "124921.187500", "124922.687500", "124924.187500", "124925.687500", "124927.187500", "124928.687500", "124930.187500", "124931.687500", "124933.187500", "124934.687500", "124936.187500", "124937.687500", "124939.187500", "124940.687500", "124942.187500", "124943.687500", "124945.187500", "124946.687500", "124948.187500", "124949.687500", "124951.187500", "124952.687500", "124954.187500", "124955.687500", "124957.187500", "124958.687500", "125000.187500", "125001.687500", "125003.187500", "125004.687500", "125006.187500", "125007.687500", "125009.187500", "125010.687500", "125012.187500", "125013.687500", "125015.187500", "125016.687500", "125018.187500", "125019.687500", "125021.187500", "125022.687500", "125024.187500", "125025.687500", "125027.187500", "125028.687500", "125030.187500", "125031.687500", "125033.187500", "125034.687500", "125036.187500", "125037.687500", "125039.187500", "125040.687500", "125042.187500", "125043.687500", "125045.187500", "125046.687500", "125048.187500", "125049.687500", "125051.187500", "125052.687500", "125054.187500", "125055.687500", "125057.187500", "125058.687500", "125100.187500", "125101.687500", "125103.187500", "125104.687500", "125106.187500", "125107.687500", "125109.187500", "125110.687500", "125112.187500", "125113.687500", "125115.187500", "125116.687500", "125118.187500", "125119.687500", "125121.187500", "125122.687500", "125124.187500", "125125.687500", "125127.187500", "125128.687500", "125130.187500", "125131.687500", "125133.187500", "125134.687500", "125136.187500", "125137.687500", "125139.187500", "125140.687500", "125142.187500", "125143.687500", "125145.187500", "125146.687500", "125148.187500", "125149.687500", "125151.187500", "125152.687500", "125154.187500", "125155.687500", "125157.187500", "125158.687500", "125200.187500", "125201.687500", "125203.187500", "125204.687500", "125206.187500", "125207.687500", "125209.187500", "125210.687500", "125212.187500", "125213.687500", "125215.187500", "125216.687500", "125218.187500", "125219.687500", "125221.187500", "125222.687500", "125224.187500", "125225.687500", "125227.187500", "125228.687500", "125230.187500", "125231.687500", "125233.187500", "125234.687500", "125236.187500", "125237.687500", "125239.187500", "125240.687500", "125242.187500", "125243.687500", "125245.187500", "125246.687500", "125248.187500", "125249.687500", "125251.187500", "125252.687500", "125254.187500", "125255.687500", "125257.187500", "125258.687500", "125300.187500", "125301.687500", "125303.187500", "125304.687500", "125306.187500", "125307.687500", "125309.187500", "125310.687500", "125312.187500", "125313.687500", "125315.187500", "125316.687500", "125318.187500", "125319.687500", "125321.187500", "125322.687500", "125324.187500", "125325.687500", "125327.187500", "125328.687500", "125330.187500", "125331.687500", "125333.187500", "125334.687500", "125336.187500", "125337.687500", "125339.187500", "125340.687500", "125342.187500", "125343.687500", "125345.187500", "125346.687500", "125348.187500", "125349.687500", "125351.187500", "125352.687500", "125354.187500", "125355.687500", "125357.187500", "125358.687500", "125400.187500", "125401.687500", "125403.187500", "125404.687500", "125406.187500", "125407.687500", "125409.187500", "125410.687500", "125412.187500", "125413.687500", "125415.187500", "125416.687500", "125418.187500", "125419.687500", "125421.187500", "125422.687500", "125424.187500", "125425.687500", "125427.187500", "125428.687500", "125430.187500", "125431.687500", "125433.187500", "125434.687500", "125436.187500", "125437.687500", "125439.187500", "125440.687500", "125442.187500", "125443.687500", "125445.187500", "125446.687500", "125448.187500", "125449.687500", "125451.187500", "125452.687500", "125454.187500", "125455.687500", "125457.187500", "125458.687500", "125500.187500", "125501.687500", "125503.187500", "125504.687500", "125506.187500", "125507.687500", "125509.187500", "125510.687500", "125512.187500", "125513.687500", "125515.187500", "125516.687500", "125518.187500", "125519.687500", "125521.187500", "125522.687500", "125524.187500", "125525.687500", "125527.187500", "125528.687500", "125530.187500", "125531.687500", "125533.187500", "125534.687500", "125536.187500", "125537.687500", "125539.187500", "125540.687500", "125542.187500", "125543.687500", "125545.187500", "125546.687500", "125548.187500", "125549.687500", "125551.187500", "125552.687500", "125554.187500", "125555.687500", "125557.187500", "125558.687500", "125600.187500", "125601.687500", "125603.187500", "125604.687500", "125606.187500", "125607.687500", "125609.187500", "125610.687500", "125612.187500", "125613.687500", "125615.187500", "125616.687500", "125618.187500", "125619.687500", "125621.187500", "125622.687500", "125624.187500", "125625.687500", "125627.187500", "125628.687500", "125630.187500", "125631.687500", "125633.187500", "125634.687500", "125636.187500", "125637.687500", "125639.187500", "125640.687500", "125642.187500", "125643.687500", "125645.187500", "125646.687500", "125648.187500", "125649.687500", "125651.187500", "125652.687500", "125654.187500", "125655.687500", "125657.187500", "125658.687500", "125700.187500", "125701.687500", "125703.187500", "125704.687500", "125706.187500", "125707.687500", "125709.187500", "125710.687500", "125712.187500", "125713.687500", "125715.187500", "125716.687500", "125718.187500", "125719.687500", "125721.187500", "125722.687500", "125724.187500", "125725.687500", "125727.187500", "125728.687500", "125730.187500", "125731.687500", "125733.187500", "125734.687500", "125736.187500", "125737.687500", "125739.187500", "125740.687500", "125742.187500", "125743.687500", "125745.187500", "125746.687500", "125748.187500", "125749.687500", "125751.187500", "125752.687500", "125754.187500", "125755.687500", "125757.187500", "125758.687500", "125800.187500", "125801.687500", "125803.187500", "125804.687500", "125806.187500", "125807.687500", "125809.187500", "125810.687500", "125812.187500", "125813.687500", "125815.187500", "125816.687500", "125818.187500", "125819.687500", "125821.187500", "125822.687500", "125824.187500", "125825.687500", "125827.187500", "125828.687500", "125830.187500", "125831.687500", "125833.187500", "125834.687500", "125836.187500", "125837.687500", "125839.187500", "125840.687500", "125842.187500", "125843.687500", "125845.187500", "125846.687500", "125848.187500", "125849.687500", "125851.187500", "125852.687500", "125854.187500", "125855.687500", "125857.187500", "125858.687500", "125900.187500", "125901.687500", "125903.187500", "125904.687500", "125906.187500", "125907.687500", "125909.187500", "125910.687500", "125912.187500", "125913.687500", "125915.187500", "125916.687500", "125918.187500", "125919.687500", "125921.187500", "125922.687500", "125924.187500", "125925.687500", "125927.187500", "125928.687500", "125930.187500", "125931.687500", "125933.187500", "125934.687500", "125936.187500", "125937.687500", "125939.187500", "125940.687500", "125942.187500", "125943.687500", "125945.187500", "125946.687500", "125948.187500", "125949.687500", "125951.187500", "125952.687500", "125954.187500", "125955.687500", "125957.187500", "125958.687500", "130000.187500", "130001.687500", "130003.187500", "130004.687500", "130006.187500", "130007.687500", "130009.187500", "130010.687500", "130012.187500", "130013.687500", "130015.187500", "130016.687500", "130018.187500", "130019.687500", "130021.187500", "130022.687500", "130024.187500", "130025.687500", "130027.187500", "130028.687500", "130030.187500", "130031.687500", "130033.187500", "130034.687500", "130036.187500", "130037.687500", "130039.187500", "130040.687500", "130042.187500", "130043.687500", "130045.187500", "130046.687500", "130048.187500", "130049.687500", "130051.187500", "130052.687500", "130054.187500", "130055.687500", "130057.187500", "130058.687500", "130100.187500", "130101.687500", "130103.187500", "130104.687500", "130106.187500", "130107.687500", "130109.187500", "130110.687500", "130112.187500", "130113.687500", "130115.187500", "130116.687500", "130118.187500", "130119.687500", "130121.187500", "130122.687500", "130124.187500", "130125.687500", "130127.187500", "130128.687500", "130130.187500", "130131.687500", "130133.187500", "130134.687500", "130136.187500", "130137.687500", "130139.187500", "130140.687500", "130142.187500", "130143.687500", "130145.187500", "130146.687500", "130148.187500", "130149.687500", "130151.187500", "130152.687500", "130154.187500", "130155.687500", "130157.187500", "130158.687500", "130200.187500", "130201.687500", "130203.187500", 