{
  "AcquisitionMatrixPE": 106,
  "AcquisitionNumber": 1,
  "AcquisitionTime": "10:38:17.922500",
  "BandwidthPerPixelPhaseEncode": 13.477,
  "BaseResolution": 106,
  "BodyPartExamined": "BRAIN",
  "CoilCombinationMethod": "Sum of Squares",
  "ConsistencyInfo": "N4_VE11C_LATEST_20160120",
  "ConversionSoftware": "dcm2niix",
  "ConversionSoftwareVersion": "v1.0.20220720",
  "DerivedVendorReportedEchoSpacing": 0.000700005,
  "DeviceSerialNumber": "166108",
  "DwellTime": 2.6e-06,
  "EchoTime": 0.03,
  "EchoTrainLength": 80,
  "EffectiveEchoSpacing": 0.000700005,
  "FlipAngle": 62,
  "HeudiconvVersion": "1.3.0",
  "ImageComments": "Unaliased MB4/PE3/LB",
  "ImageOrientationPatientDICOM": [1, 0, 0, 0, 0.996779, -0.0801989],
  "ImageOrientationText": "Tra>Cor(-4.6)",
  "ImageType": [
    "ORIGINAL",
    "PRIMARY",
    "M",
    "MB",
    "ND",
    "MOSAIC"
],
  "ImagingFrequency": 123.244,
  "InPlanePhaseEncodingDirectionDICOM": "COL",
  "InstitutionAddress": "Bedford Way 26,London,London,GB,WC1H 0AP",
  "InstitutionName": "University College",
  "InstitutionalDepartmentName": "Department",
  "MRAcquisitionType": "2D",
  "MagneticFieldStrength": 3,
  "Manufacturer": "Siemens",
  "ManufacturersModelName": "Prisma",
  "MatrixCoilMode": "SENSE",
  "Modality": "MR",
  "MultibandAccelerationFactor": 4,
  "NonlinearGradientCorrection": false,
  "PartialFourier": 0.75,
  "PatientPosition": "HFS",
  "PercentPhaseFOV": 100,
  "PercentSampling": 100,
  "PhaseEncodingDirection": "j-",
  "PhaseEncodingSteps": 80,
  "PhaseResolution": 1,
  "PixelBandwidth": 1815,
  "ProcedureStepDescription": "Egor^MovieProject2",
  "ProtocolName": "func-bold_task-motor_run-01",
  "PulseSequenceDetails": "%CustomerSeq%\\cmrr_mbep2d_bold",
  "ReceiveCoilActiveElements": "HEA;HEP",
  "ReceiveCoilName": "Head_32",
  "ReconMatrixPE": 106,
  "RepetitionTime": 1,
  "SAR": 0.0379634,
  "ScanOptions": "PFP\\FS\\EXT",
  "ScanningSequence": "EP",
  "SequenceName": "epfid2d1_106",
  "SequenceVariant": "SK\\SS",
  "SeriesDescription": "func-bold_task-motor_run-01",
  "SeriesNumber": 4,
  "ShimSetting": [-1590, 642, 7405, 234, -71, 131, 185, -13],
  "SliceThickness": 2,
  "SliceTiming": [0, 0.535, 0.09, 0.625, 0.18, 0.715, 0.2675, 0.8025, 0.3575, 0.8925, 0.4475, 0, 0.535, 0.09, 0.625, 0.18, 0.715, 0.2675, 0.8025, 0.3575, 0.8925, 0.4475, 0, 0.535, 0.09, 0.625, 0.18, 0.715, 0.2675, 0.8025, 0.3575, 0.8925, 0.4475, 0, 0.535, 0.09, 0.625, 0.18, 0.715, 0.2675, 0.8025, 0.3575, 0.8925, 0.4475],
  "SoftwareVersions": "syngo MR E11",
  "SpacingBetweenSlices": 2,
  "StationName": "AWP166108",
  "TaskName": "somatotopy",
  "TotalReadoutTime": 0.0735005,
  "TxRefAmp": 237.05,
  "WipMemBlock": "e4a66724-64d9-4e23-935c-01226ccadc6c||Sequence: R016 ve11c/master r/e634e98; Dec 19 2017 11:00:25 by eja",
  "dcmmeta_affine": [
    [-2.0, 0.0, 0.0, 106.0],
    [0.0, 1.9935578107833862, -0.16039784252643585, -92.2600326538086],
    [0.0, 0.16039784252643585, 1.9935578107833862, -1.525654673576355],
    [0.0, 0.0, 0.0, 1.0]
],
  "dcmmeta_reorient_transform": [
    [0.0, -1.0, 0.0, 105.0],
    [1.0, 0.0, 0.0, 0.0],
    [0.0, 0.0, 1.0, 0.0],
    [0.0, 0.0, 0.0, 1.0]
],
  "dcmmeta_shape": [106, 106, 44, 467],
  "dcmmeta_slice_dim": 2,
  "dcmmeta_version": 0.6,
  "global": {
    "const": {
      "AcquisitionMatrix": [106, 0, 0, 106],
      "AngioFlag": "N",
      "BitsAllocated": 16,
      "BitsStored": 16,
      "BodyPartExamined": "BRAIN",
      "CardiacNumberOfImages": 1,
      "Columns": 742,
      "EchoNumbers": 1,
      "EchoTime": 30.0,
      "EchoTrainLength": 80,
      "FlipAngle": 62.0,
      "HighBit": 15,
      "ImageOrientationPatient": [1.0, 0.0, 0.0, 0.0, 0.99677887851542, -0.0801989235934],
      "ImagePositionPatient": [-742.0, -751.01489802751, 66.322634742103],
      "ImageType": [
        "ORIGINAL",
        "PRIMARY",
        "M",
        "MB",
        "ND",
        "MOSAIC"
],
      "ImagedNucleus": "1H",
      "ImagingFrequency": 123.243666,
      "InPlanePhaseEncodingDirection": "COL",
      "MRAcquisitionType": "2D",
      "MagneticFieldStrength": 3.0,
      "Manufacturer": "SIEMENS",
      "ManufacturerModelName": "Prisma",
      "Modality": "MR",
      "NominalInterval": 0,
      "NumberOfAverages": 1.0,
      "NumberOfPhaseEncodingSteps": 80,
      "PercentPhaseFieldOfView": 100.0,
      "PercentSampling": 100.0,
      "PerformedProcedureStepStartTime": "101331.827000",
      "PhotometricInterpretation": "MONOCHROME2",
      "PixelBandwidth": 1815.0,
      "PixelRepresentation": 0,
      "PixelSpacing": [2.0, 2.0],
      "ProtocolName": "func-bold_task-motor_run-01",
      "RepetitionTime": 1000.0,
      "Rows": 742,
      "SAR": 0.03796339648887,
      "SamplesPerPixel": 1,
      "ScanOptions": [
        "PFP",
        "FS",
        "EXT"
],
      "ScanningSequence": "EP",
      "SequenceName": "epfid2d1_106",
      "SequenceVariant": [
        "SK",
        "SS"
],
      "SeriesDescription": "func-bold_task-motor_run-01",
      "SeriesNumber": 4,
      "SeriesTime": "103842.607000",
      "SliceLocation": 5.8784150540296,
      "SliceThickness": 2.0,
      "SmallestImagePixelValue": 0,
      "SoftwareVersions": "syngo MR E11",
      "SpacingBetweenSlices": 2.000000006923,
      "SpecificCharacterSet": "ISO_IR 100",
      "StudyID": "1",
      "StudyTime": "101331.761000",
      "TransmitCoilName": "Body",
      "VariableFlipAngleFlag": "N",
      "WindowCenterWidthExplanation": "Algo1",
      "dBdt": 0.0},
    "slices": {}
  },
  "time": {
    "samples": {
      "AcquisitionNumber": [1, 2, 3, 4, 5, 6, 7, 8, 9, 10, 11, 12, 13, 14, 15, 16, 17, 18, 19, 20, 21, 22, 23, 24, 25, 26, 27, 28, 29, 30, 31, 32, 33, 34, 35, 36, 37, 38, 39, 40, 41, 42, 43, 44, 45, 46, 47, 48, 49, 50, 51, 52, 53, 54, 55, 56, 57, 58, 59, 60, 61, 62, 63, 64, 65, 66, 67, 68, 69, 70, 71, 72, 73, 74, 75, 76, 77, 78, 79, 80, 81, 82, 83, 84, 85, 86, 87, 88, 89, 90, 91, 92, 93, 94, 95, 96, 97, 98, 99, 100, 101, 102, 103, 104, 105, 106, 107, 108, 109, 110, 111, 112, 113, 114, 115, 116, 117, 118, 119, 120, 121, 122, 123, 124, 125, 126, 127, 128, 129, 130, 131, 132, 133, 134, 135, 136, 137, 138, 139, 140, 141, 142, 143, 144, 145, 146, 147, 148, 149, 150, 151, 152, 153, 154, 155, 156, 157, 158, 159, 160, 161, 162, 163, 164, 165, 166, 167, 168, 169, 170, 171, 172, 173, 174, 175, 176, 177, 178, 179, 180, 181, 182, 183, 184, 185, 186, 187, 188, 189, 190, 191, 192, 193, 194, 195, 196, 197, 198, 199, 200, 201, 202, 203, 204, 205, 206, 207, 208, 209, 210, 211, 212, 213, 214, 215, 216, 217, 218, 219, 220, 221, 222, 223, 224, 225, 226, 227, 228, 229, 230, 231, 232, 233, 234, 235, 236, 237, 238, 239, 240, 241, 242, 243, 244, 245, 246, 247, 248, 249, 250, 251, 252, 253, 254, 255, 256, 257, 258, 259, 260, 261, 262, 263, 264, 265, 266, 267, 268, 269, 270, 271, 272, 273, 274, 275, 276, 277, 278, 279, 280, 281, 282, 283, 284, 285, 286, 287, 288, 289, 290, 291, 292, 293, 294, 295, 296, 297, 298, 299, 300, 301, 302, 303, 304, 305, 306, 307, 308, 309, 310, 311, 312, 313, 314, 315, 316, 317, 318, 319, 320, 321, 322, 323, 324, 325, 326, 327, 328, 329, 330, 331, 332, 333, 334, 335, 336, 337, 338, 339, 340, 341, 342, 343, 344, 345, 346, 347, 348, 349, 350, 351, 352, 353, 354, 355, 356, 357, 358, 359, 360, 361, 362, 363, 364, 365, 366, 367, 368, 369, 370, 371, 372, 373, 374, 375, 376, 377, 378, 379, 380, 381, 382, 383, 384, 385, 386, 387, 388, 389, 390, 391, 392, 393, 394, 395, 396, 397, 398, 399, 400, 401, 402, 403, 404, 405, 406, 407, 408, 409, 410, 411, 412, 413, 414, 415, 416, 417, 418, 419, 420, 421, 422, 423, 424, 425, 426, 427, 428, 429, 430, 431, 432, 433, 434, 435, 436, 437, 438, 439, 440, 441, 442, 443, 444, 445, 446, 447, 448, 449, 450, 451, 452, 453, 454, 455, 456, 457, 458, 459, 460, 461, 462, 463, 464, 465, 466, 467],
      "AcquisitionTime": ["103817.922500", "103818.922500", "103819.922500", "103820.922500", "103821.922500", "103822.922500", "103823.922500", "103824.922500", "103825.922500", "103826.922500", "103827.922500", "103828.922500", "103829.922500", "103830.922500", "103831.922500", "103832.922500", "103833.922500", "103834.922500", "103835.922500", "103836.922500", "103837.922500", "103838.922500", "103839.922500", "103840.922500", "103841.922500", "103842.922500", "103843.922500", "103844.922500", "103845.922500", "103846.922500", "103847.922500", "103848.922500", "103849.922500", "103850.922500", "103851.922500", "103852.922500", "103853.922500", "103854.922500", "103855.922500", "103856.922500", "103857.922500", "103858.922500", "103859.922500", "103900.922500", "103901.922500", "103902.922500", "103903.922500", "103904.922500", "103905.922500", "103906.922500", "103907.922500", "103908.922500", "103909.922500", "103910.922500", "103911.922500", "103912.922500", "103913.922500", "103914.922500", "103915.922500", "103916.922500", "103917.922500", "103918.922500", "103919.922500", "103920.922500", "103921.922500", "103922.922500", "103923.922500", "103924.922500", "103925.922500", "103926.922500", "103927.922500", "103928.922500", "103929.922500", "103930.922500", "103931.922500", "103932.922500", "103933.922500", "103934.922500", "103935.922500", "103936.922500", "103937.922500", "103938.922500", "103939.922500", "103940.922500", "103941.922500", "103942.922500", "103943.922500", "103944.922500", "103945.922500", "103946.922500", "103947.922500", "103948.922500", "103949.922500", "103950.922500", "103951.922500", "103952.922500", "103953.922500", "103954.922500", "103955.922500", "103956.922500", "103957.922500", "103958.922500", "103959.922500", "104000.922500", "104001.922500", "104002.922500", "104003.922500", "104004.922500", "104005.922500", "104006.922500", "104007.922500", "104008.922500", "104009.922500", "104010.922500", "104011.922500", "104012.922500", "104013.922500", "104014.922500", "104015.922500", "104016.922500", "104017.922500", "104018.922500", "104019.922500", "104020.922500", "104021.922500", "104022.922500", "104023.922500", "104024.922500", "104025.922500", "104026.922500", "104027.922500", "104028.922500", "104029.922500", "104030.922500", "104031.922500", "104032.922500", "104033.922500", "104034.922500", "104035.922500", "104036.922500", "104037.922500", "104038.922500", "104039.922500", "104040.922500", "104041.922500", "104042.922500", "104043.922500", "104044.922500", "104045.922500", "104046.922500", "104047.922500", "104048.922500", "104049.922500", "104050.922500", "104051.922500", "104052.922500", "104053.922500", "104054.922500", "104055.922500", "104056.922500", "104057.922500", "104058.922500", "104059.922500", "104100.922500", "104101.922500", "104102.922500", "104103.922500", "104104.922500", "104105.922500", "104106.922500", "104107.922500", "104108.922500", "104109.922500", "104110.922500", "104111.922500", "104112.922500", "104113.922500", "104114.922500", "104115.922500", "104116.922500", "104117.922500", "104118.922500", "104119.922500", "104120.922500", "104121.922500", "104122.922500", "104123.922500", "104124.922500", "104125.922500", "104126.922500", "104127.922500", "104128.922500", "104129.922500", "104130.922500", "104131.922500", "104132.922500", "104133.922500", "104134.922500", "104135.922500", "104136.922500", "104137.922500", "104138.922500", "104139.922500", "104140.922500", "104141.922500", "104142.922500", "104143.922500", "104144.922500", "104145.922500", "104146.922500", "104147.922500", "104148.922500", "104149.922500", "104150.922500", "104151.922500", "104152.922500", "104153.922500", "104154.922500", "104155.922500", "104156.922500", "104157.922500", "104158.922500", "104159.922500", "104200.922500", "104201.922500", "104202.922500", "104203.922500", "104204.922500", "104205.922500", "104206.922500", "104207.922500", "104208.922500", "104209.922500", "104210.922500", "104211.922500", "104212.922500", "104213.922500", "104214.922500", "104215.922500", "104216.922500", "104217.922500", "104218.922500", "104219.922500", "104220.922500", "104221.922500", "104222.922500", "104223.922500", "104224.922500", "104225.922500", "104226.922500", "104227.922500", "104228.922500", "104229.922500", "104230.922500", "104231.922500", "104232.922500", "104233.922500", "104234.922500", "104235.922500", "104236.922500", "104237.922500", "104238.922500", "104239.922500", "104240.922500", "104241.922500", "104242.922500", "104243.922500", "104244.922500", "104245.922500", "104246.922500", "104247.922500", "104248.922500", "104249.922500", "104250.922500", "104251.922500", "104252.922500", "104253.922500", "104254.922500", "104255.922500", "104256.922500", "104257.922500", "104258.922500", "104259.922500", "104300.922500", "104301.922500", "104302.922500", "104303.922500", "104304.922500", "104305.922500", "104306.922500", "104307.922500", "104308.922500", "104309.922500", "104310.922500", "104311.922500", "104312.922500", "104313.922500", "104314.922500", "104315.922500", "104316.922500", "104317.922500", "104318.922500", "104319.922500", "104320.922500", "104321.922500", "104322.922500", "104323.922500", "104324.922500", "104325.922500", "104326.922500", "104327.922500", "104328.922500", "104329.922500", "104330.922500", "104331.922500", "104332.922500", "104333.922500", "104334.922500", "104335.922500", "104336.922500", "104337.922500", "104338.922500", "104339.922500", "104340.922500", "104341.922500", "104342.922500", "104343.922500", "104344.922500", "104345.922500", "104346.922500", "104347.922500", "104348.922500", "104349.922500", "104350.922500", "104351.922500", "104352.922500", "104353.922500", "104354.922500", "104355.922500", "104356.922500", "104357.922500", "104358.922500", "104359.922500", "104400.922500", "104401.922500", "104402.922500", "104403.922500", "104404.922500", "104405.922500", "104406.922500", "104407.922500", "104408.922500", "104409.922500", "104410.922500", "104411.922500", "104412.922500", "104413.922500", "104414.922500", "104415.922500", "104416.922500", "104417.922500", "104418.922500", "104419.922500", "104420.922500", "104421.922500", "104422.922500", "104423.922500", "104424.922500", "104425.922500", "104426.922500", "104427.922500", "104428.922500", "104429.922500", "104430.922500", "104431.922500", "104432.922500", "104433.922500", "104434.922500", "104435.922500", "104436.922500", "104437.922500", "104438.922500", "104439.922500", "104440.922500", "104441.922500", "104442.922500", "104443.922500", "104444.922500", "104445.922500", "104446.922500", "104447.922500", "104448.922500", "104449.922500", "104450.922500", "104451.922500", "104452.922500", "104453.922500", "104454.922500", "104455.922500", "104456.922500", "104457.922500", "104458.922500", "104459.922500", "104500.922500", "104501.922500", "104502.922500", "104503.922500", "104504.922500", "104505.922500", "104506.922500", "104507.922500", "104508.922500", "104509.922500", "104510.922500", "104511.922500", "104512.922500", "104513.922500", "104514.922500", "104515.922500", "104516.922500", "104517.922500", "104518.922500", "104519.922500", "104520.922500", "104521.922500", "104522.922500", "104523.922500", "104524.922500", "104525.922500", "104526.922500", "104527.922500", "104528.922500", "104529.922500", "104530.922500", "104531.922500", "104532.922500", "104533.922500", "104534.922500", "104535.922500", "104536.922500", "104537.922500", "104538.922500", "104539.922500", "104540.922500", "104541.922500", "104542.922500", "104543.922500", "104544.922500", "104545.922500", "104546.922500", "104547.922500", "104548.922500", "104549.922500", "104550.922500", "104551.922500", "104552.922500", "104553.922500", "104554.922500", "104555.922500", "104556.922500", "104557.922500", "104558.922500", "104559.922500", "104600.922500", "104601.922500", "104602.922500", "104603.922500"],
      "ContentTime": ["103842.609000", "103842.612000", "103842.615000", "103842.617000", "103842.620000", "103842.622000", "103842.625000", "103842.627000", "103842.635000", "103842.638000", "103842.640000", "103842.643000", "103842.645000", "103842.648000", "103842.650000", "103842.660000", "103842.662000", "103842.665000", "103842.667000", "103842.670000", "103842.672000", "103842.675000", "103842.677000", "103842.679000", "103902.579000", "103902.582000", "103902.584000", "103902.587000", "103902.590000", "103902.592000", "103902.595000", "103902.597000", "103902.600000", "103902.602000", "103902.604000", "103902.613000", "103902.615000", "103902.617000", "103902.620000", "103902.622000", "103902.633000", "103902.635000", "103902.637000", "103902.640000", "103922.579000", "103922.582000", "103922.584000", "103922.587000", "103922.589000", "103922.592000", "103922.594000", "103922.597000", "103922.599000", "103922.602000", "103922.604000", "103922.607000", "103922.609000", "103922.612000", "103922.614000", "103922.616000", "103922.619000", "103922.621000", "103922.624000", "103922.640000", "103942.579000", "103942.582000", "103942.584000", "103942.587000", "103942.590000", "103942.592000", "103942.595000", "103942.597000", "103942.599000", "103942.602000", "103942.604000", "103942.607000", "103942.609000", "103942.612000", "103942.614000", "103942.617000", "103942.619000", "103942.622000", "103942.624000", "103942.627000", "104002.579000", "104002.582000", "104002.584000", "104002.587000", "104002.590000", "104002.592000", "104002.594000", "104002.597000", "104002.599000", "104002.602000", "104002.604000", "104002.607000", "104002.609000", "104002.612000", "104002.614000", "104002.617000", "104002.619000", "104002.621000", "104002.624000", "104002.626000", "104022.580000", "104022.583000", "104022.585000", "104022.588000", "104022.590000", "104022.593000", "104022.595000", "104022.604000", "104022.607000", "104022.609000", "104022.621000", "104022.623000", "104022.626000", "104022.628000", "104022.630000", "104022.633000", "104022.635000", "104022.638000", "104022.640000", "104022.643000", "104042.580000", "104042.583000", "104042.585000", "104042.588000", "104042.590000", "104042.593000", "104042.595000", "104042.598000", "104042.600000", "104042.603000", "104042.605000", "104042.608000", "104042.610000", "104042.612000", "104042.615000", "104042.617000", "104042.620000", "104042.622000", "104042.625000", "104042.627000", "104102.580000", "104102.583000", "104102.585000", "104102.588000", "104102.590000", "104102.593000", "104102.595000", "104102.598000", "104102.600000", "104102.603000", "104102.605000", "104102.607000", "104102.610000", "104102.612000", "104102.615000", "104102.617000", "104102.620000", "104102.622000", "104102.624000", "104102.627000", "104122.579000", "104122.582000", "104122.585000", "104122.592000", "104122.594000", "104122.597000", "104122.608000", "104122.610000", "104122.613000", "104122.615000", "104122.618000", "104122.620000", "104122.623000", "104122.625000", "104122.627000", "104122.630000", "104122.632000", "104122.635000", "104122.637000", "104122.640000", "104142.579000", "104142.582000", "104142.584000", "104142.587000", "104142.589000", "104142.592000", "104142.594000", "104142.597000", "104142.599000", "104142.602000", "104142.604000", "104142.607000", "104142.609000", "104142.612000", "104142.614000", "104142.617000", "104142.619000", "104142.622000", "104142.624000", "104142.626000", "104202.580000", "104202.582000", "104202.585000", "104202.587000", "104202.590000", "104202.592000", "104202.595000", "104202.597000", "104202.600000", "104202.602000", "104202.604000", "104202.607000", "104202.609000", "104202.612000", "104202.614000", "104202.617000", "104202.619000", "104202.622000", "104202.624000", "104202.626000", "104222.580000", "104222.582000", "104222.585000", "104222.587000", "104222.597000", "104222.599000", "104222.602000", "104222.604000", "104222.607000", "104222.609000", "104222.612000", "104222.614000", "104222.617000", "104222.619000", "104222.621000", "104222.624000", "104222.626000", "104222.629000", "104222.631000", "104222.633000", "104242.580000", "104242.583000", "104242.585000", "104242.588000", "104242.590000", "104242.593000", "104242.595000", "104242.598000", "104242.600000", "104242.603000", "104242.605000", "104242.608000", "104242.610000", "104242.612000", "104242.615000", "104242.617000", "104242.620000", "104242.622000", "104242.625000", "104242.627000", "104302.580000", "104302.583000", "104302.586000", "104302.588000", "104302.591000", "104302.593000", "104302.595000", "104302.598000", "104302.600000", "104302.603000", "104302.605000", "104302.608000", "104302.610000", "104302.613000", "104302.615000", "104302.618000", "104302.620000", "104302.622000", "104302.625000", "104302.627000", "104322.581000", "104322.583000", "104322.586000", "104322.588000", "104322.591000", "104322.593000", "104322.595000", "104322.598000", "104322.600000", "104322.603000", "104322.605000", "104322.608000", "104322.610000", "104322.613000", "104322.615000", "104322.618000", "104322.620000", "104322.622000", "104322.625000", "104322.627000", "104342.579000", "104342.582000", "104342.584000", "104342.587000", "104342.590000", "104342.592000", "104342.594000", "104342.597000", "104342.599000", "104342.602000", "104342.604000", "104342.607000", "104342.609000", "104342.612000", "104342.614000", "104342.617000", "104342.619000", "104342.621000", "104342.624000", "104342.626000", "104402.579000", "104402.582000", "104402.585000", "104402.587000", "104402.590000", "104402.593000", "104402.595000", "104402.597000", "104402.600000", "104402.602000", "104402.605000", "104402.607000", "104402.610000", "104402.612000", "104402.615000", "104402.623000", "104402.625000", "104402.628000", "104402.630000", "104402.633000", "104422.588000", "104422.591000", "104422.593000", "104422.596000", "104422.598000", "104422.600000", "104422.603000", "104422.605000", "104422.608000", "104422.610000", "104422.613000", "104422.620000", "104422.623000", "104422.625000", "104422.628000", "104422.630000", "104422.633000", "104422.635000", "104422.638000", "104422.640000", "104442.579000", "104442.582000", "104442.584000", "104442.587000", "104442.590000", "104442.592000", "104442.595000", "104442.597000", "104442.600000", "104442.602000", "104442.605000", "104442.607000", "104442.610000", "104442.612000", "104442.615000", "104442.617000", "104442.620000", "104442.622000", "104442.624000", "104442.627000", "104502.580000", "104502.583000", "104502.586000", "104502.588000", "104502.591000", "104502.593000", "104502.596000", "104502.598000", "104502.601000", "104502.603000", "104502.605000", "104502.608000", "104502.610000", "104502.613000", "104502.615000", "104502.618000", "104502.620000", "104502.623000", "104502.625000", "104502.628000", "104522.580000", "104522.583000", "104522.586000", "104522.588000", "104522.591000", "104522.593000", "104522.596000", "104522.598000", "104522.601000", "104522.603000", "104522.605000", "104522.608000", "104522.610000", "104522.613000", "104522.615000", "104522.618000", "104522.620000", "104522.623000", "104522.625000", "104522.628000", "104542.580000", "104542.583000", "104542.585000", "104542.588000", "104542.591000", "104542.593000", "104542.596000", "104542.598000", "104542.600000", "104542.603000", "104542.605000", "104542.608000", "104542.610000", "104542.613000", "104542.615000", "104542.618000", "104542.620000", "104542.623000", "104542.625000", "104542.628000", "104602.580000", "104602.582000", "104602.585000", "104602.587000", "104602.590000", "104602.592000", "104602.595000", "104602.597000", "104602.599000", "104602.602000", "104602.604000", "104602.607000", "104602.609000", "104602.612000", "104602.614000", "104602.617000", "104602.619000", "104602.622000", "104602.624000", "104602.627000", "104605.216000", "104605.219000", "104605.222000"],
