{
  "AcquisitionMatrixPE": 106,
  "AcquisitionNumber": 1,
  "AcquisitionTime": "11:28:14.592500",
  "BandwidthPerPixelPhaseEncode": 13.477,
  "BaseResolution": 106,
  "BodyPartExamined": "BRAIN",
  "CoilCombinationMethod": "Sum of Squares",
  "ConsistencyInfo": "N4_VE11C_LATEST_20160120",
  "ConversionSoftware": "dcm2niix",
  "ConversionSoftwareVersion": "v1.0.20220720",
  "DerivedVendorReportedEchoSpacing": 0.000700005,
  "DeviceSerialNumber": "166108",
  "DwellTime": 2.6e-06,
  "EchoTime": 0.03,
  "EchoTrainLength": 80,
  "EffectiveEchoSpacing": 0.000700005,
  "FlipAngle": 62,
  "HeudiconvVersion": "1.3.0",
  "ImageComments": "Unaliased MB4/PE3/LB",
  "ImageOrientationPatientDICOM": [1, 0, 0, 0, 0.91496, -0.403545],
  "ImageOrientationText": "Tra>Cor(-23.8)",
  "ImageType": [
    "ORIGINAL",
    "PRIMARY",
    "M",
    "MB",
    "ND",
    "MOSAIC"
],
  "ImagingFrequency": 123.244,
  "InPlanePhaseEncodingDirectionDICOM": "COL",
  "InstitutionAddress": "Bedford Way 26,London,London,GB,WC1H 0AP",
  "InstitutionName": "University College",
  "InstitutionalDepartmentName": "Department",
  "MRAcquisitionType": "2D",
  "MagneticFieldStrength": 3,
  "Manufacturer": "Siemens",
  "ManufacturersModelName": "Prisma",
  "MatrixCoilMode": "SENSE",
  "Modality": "MR",
  "MultibandAccelerationFactor": 4,
  "NonlinearGradientCorrection": false,
  "PartialFourier": 0.75,
  "PatientPosition": "HFS",
  "PercentPhaseFOV": 100,
  "PercentSampling": 100,
  "PhaseEncodingDirection": "j-",
  "PhaseEncodingSteps": 80,
  "PhaseResolution": 1,
  "PixelBandwidth": 1815,
  "ProcedureStepDescription": "Egor^MovieProject2",
  "ProtocolName": "func-bold_task-tono_run-01",
  "PulseSequenceDetails": "%CustomerSeq%\\cmrr_mbep2d_bold",
  "ReceiveCoilActiveElements": "HEA;HEP",
  "ReceiveCoilName": "Head_32",
  "ReconMatrixPE": 106,
  "RepetitionTime": 1,
  "SAR": 0.0378366,
  "ScanOptions": "PFP\\FS\\EXT",
  "ScanningSequence": "EP",
  "SequenceName": "epfid2d1_106",
  "SequenceVariant": "SK\\SS",
  "SeriesDescription": "func-bold_task-tono_run-01",
  "SeriesNumber": 18,
  "ShimSetting": [-1588, 646, 7486, 518, -89, 66, 196, -12],
  "SliceThickness": 2,
  "SliceTiming": [0, 0.535, 0.09, 0.625, 0.1775, 0.7125, 0.2675, 0.8025, 0.3575, 0.89, 0.445, 0, 0.535, 0.09, 0.625, 0.1775, 0.7125, 0.2675, 0.8025, 0.3575, 0.89, 0.445, 0, 0.535, 0.09, 0.625, 0.1775, 0.7125, 0.2675, 0.8025, 0.3575, 0.89, 0.445, 0, 0.535, 0.09, 0.625, 0.1775, 0.7125, 0.2675, 0.8025, 0.3575, 0.89, 0.445],
  "SoftwareVersions": "syngo MR E11",
  "SpacingBetweenSlices": 2,
  "StationName": "AWP166108",
  "TaskName": "tonotopy",
  "TotalReadoutTime": 0.0735005,
  "TxRefAmp": 237.05,
  "WipMemBlock": "22ac722f-545e-4364-bfab-8ef2b326396c||Sequence: R016 ve11c/master r/e634e98; Dec 19 2017 11:00:25 by eja",
  "dcmmeta_affine": [
    [-2.0, 0.0, 0.0, 106.0],
    [0.0, 1.8299193382263184, -0.8070906400680542, -66.14573669433594],
    [0.0, 0.8070906400680542, 1.8299193382263184, -62.47882843017578],
    [0.0, 0.0, 0.0, 1.0]
],
  "dcmmeta_reorient_transform": [
    [0.0, -1.0, 0.0, 105.0],
    [1.0, 0.0, 0.0, 0.0],
    [0.0, 0.0, 1.0, 0.0],
    [0.0, 0.0, 0.0, 1.0]
],
  "dcmmeta_shape": [106, 106, 44, 264],
  "dcmmeta_slice_dim": 2,
  "dcmmeta_version": 0.6,
  "global": {
    "const": {
      "AcquisitionMatrix": [106, 0, 0, 106],
      "AngioFlag": "N",
      "BitsAllocated": 16,
      "BitsStored": 16,
      "BodyPartExamined": "BRAIN",
      "CardiacNumberOfImages": 1,
      "Columns": 742,
      "EchoNumbers": 1,
      "EchoTime": 30.0,
      "EchoTrainLength": 80,
      "FlipAngle": 62.0,
      "HighBit": 15,
      "ImageOrientationPatient": [1.0, 0.0, 0.0, 0.0, 0.91495965822336, -0.4035453181785],
      "ImagePositionPatient": [-742.0, -707.91013529517, 278.92051141866],
      "ImageType": [
        "ORIGINAL",
        "PRIMARY",
        "M",
        "MB",
        "ND",
        "MOSAIC"
],
      "ImagedNucleus": "1H",
      "ImagingFrequency": 123.243651,
      "InPlanePhaseEncodingDirection": "COL",
      "MRAcquisitionType": "2D",
      "MagneticFieldStrength": 3.0,
      "Manufacturer": "SIEMENS",
      "ManufacturerModelName": "Prisma",
      "Modality": "MR",
      "NominalInterval": 0,
      "NumberOfAverages": 1.0,
      "NumberOfPhaseEncodingSteps": 80,
      "PercentPhaseFieldOfView": 100.0,
      "PercentSampling": 100.0,
      "PerformedProcedureStepStartTime": "101331.827000",
      "PhotometricInterpretation": "MONOCHROME2",
      "PixelBandwidth": 1815.0,
      "PixelRepresentation": 0,
      "PixelSpacing": [2.0, 2.0],
      "ProtocolName": "func-bold_task-tono_run-01",
      "RepetitionTime": 1000.0,
      "Rows": 742,
      "SAR": 0.03783659969836,
      "SamplesPerPixel": 1,
      "ScanOptions": [
        "PFP",
        "FS",
        "EXT"
],
      "ScanningSequence": "EP",
      "SequenceName": "epfid2d1_106",
      "SequenceVariant": [
        "SK",
        "SS"
],
      "SeriesDescription": "func-bold_task-tono_run-01",
      "SeriesNumber": 18,
      "SeriesTime": "112851.779000",
      "SliceLocation": -30.472804990383,
      "SliceThickness": 2.0,
      "SmallestImagePixelValue": 0,
      "SoftwareVersions": "syngo MR E11",
      "SpacingBetweenSlices": 2.0000000328448,
      "SpecificCharacterSet": "ISO_IR 100",
      "StudyID": "1",
      "StudyTime": "101331.761000",
      "TransmitCoilName": "Body",
      "VariableFlipAngleFlag": "N",
      "WindowCenterWidthExplanation": "Algo1",
      "dBdt": 0.0},
    "slices": {}
  },
  "time": {
    "samples": {
      "AcquisitionNumber": [1, 2, 3, 4, 5, 6, 7, 8, 9, 10, 11, 12, 13, 14, 15, 16, 17, 18, 19, 20, 21, 22, 23, 24, 25, 26, 27, 28, 29, 30, 31, 32, 33, 34, 35, 36, 37, 38, 39, 40, 41, 42, 43, 44, 45, 46, 47, 48, 49, 50, 51, 52, 53, 54, 55, 56, 57, 58, 59, 60, 61, 62, 63, 64, 65, 66, 67, 68, 69, 70, 71, 72, 73, 74, 75, 76, 77, 78, 79, 80, 81, 82, 83, 84, 85, 86, 87, 88, 89, 90, 91, 92, 93, 94, 95, 96, 97, 98, 99, 100, 101, 102, 103, 104, 105, 106, 107, 108, 109, 110, 111, 112, 113, 114, 115, 116, 117, 118, 119, 120, 121, 122, 123, 124, 125, 126, 127, 128, 129, 130, 131, 132, 133, 134, 135, 136, 137, 138, 139, 140, 141, 142, 143, 144, 145, 146, 147, 148, 149, 150, 151, 152, 153, 154, 155, 156, 157, 158, 159, 160, 161, 162, 163, 164, 165, 166, 167, 168, 169, 170, 171, 172, 173, 174, 175, 176, 177, 178, 179, 180, 181, 182, 183, 184, 185, 186, 187, 188, 189, 190, 191, 192, 193, 194, 195, 196, 197, 198, 199, 200, 201, 202, 203, 204, 205, 206, 207, 208, 209, 210, 211, 212, 213, 214, 215, 216, 217, 218, 219, 220, 221, 222, 223, 224, 225, 226, 227, 228, 229, 230, 231, 232, 233, 234, 235, 236, 237, 238, 239, 240, 241, 242, 243, 244, 245, 246, 247, 248, 249, 250, 251, 252, 253, 254, 255, 256, 257, 258, 259, 260, 261, 262, 263, 264],
      "AcquisitionTime": ["112814.592500", "112815.592500", "112816.592500", "112817.592500", "112818.592500", "112819.592500", "112820.592500", "112821.592500", "112822.592500", "112823.592500", "112824.592500", "112825.592500", "112826.592500", "112827.592500", "112828.592500", "112829.592500", "112830.592500", "112831.592500", "112832.592500", "112833.592500", "112834.592500", "112835.592500", "112836.592500", "112837.592500", "112838.592500", "112839.592500", "112840.592500", "112841.592500", "112842.592500", "112843.592500", "112844.592500", "112845.592500", "112846.592500", "112847.592500", "112848.592500", "112849.592500", "112850.592500", "112851.592500", "112852.592500", "112853.592500", "112854.592500", "112855.592500", "112856.592500", "112857.592500", "112858.592500", "112859.592500", "112900.592500", "112901.592500", "112902.592500", "112903.592500", "112904.592500", "112905.592500", "112906.592500", "112907.592500", "112908.592500", "112909.592500", "112910.592500", "112911.592500", "112912.592500", "112913.592500", "112914.592500", "112915.592500", "112916.592500", "112917.592500", "112918.592500", "112919.592500", "112920.592500", "112921.592500", "112922.592500", "112923.592500", "112924.592500", "112925.592500", "112926.592500", "112927.592500", "112928.592500", "112929.592500", "112930.592500", "112931.592500", "112932.592500", "112933.592500", "112934.592500", "112935.592500", "112936.592500", "112937.592500", "112938.592500", "112939.592500", "112940.592500", "112941.592500", "112942.592500", "112943.592500", "112944.592500", "112945.592500", "112946.592500", "112947.592500", "112948.592500", "112949.592500", "112950.592500", "112951.592500", "112952.592500", "112953.592500", "112954.592500", "112955.592500", "112956.592500", "112957.592500", "112958.592500", "112959.592500", "113000.592500", "113001.592500", "113002.592500", "113003.592500", "113004.592500", "113005.592500", "113006.592500", "113007.592500", "113008.592500", "113009.592500", "113010.592500", "113011.592500", "113012.592500", "113013.592500", "113014.592500", "113015.592500", "113016.592500", "113017.592500", "113018.592500", "113019.592500", "113020.592500", "113021.592500", "113022.592500", "113023.592500", "113024.592500", "113025.592500", "113026.592500", "113027.592500", "113028.592500", "113029.592500", "113030.592500", "113031.592500", "113032.592500", "113033.592500", "113034.592500", "113035.592500", "113036.592500", "113037.592500", "113038.592500", "113039.592500", "113040.592500", "113041.592500", "113042.592500", "113043.592500", "113044.592500", "113045.592500", "113046.592500", "113047.592500", "113048.592500", "113049.592500", "113050.592500", "113051.592500", "113052.592500", "113053.592500", "113054.592500", "113055.592500", "113056.592500", "113057.592500", "113058.592500", "113059.592500", "113100.592500", "113101.592500", "113102.592500", "113103.592500", "113104.592500", "113105.592500", "113106.592500", "113107.592500", "113108.592500", "113109.592500", "113110.592500", "113111.592500", "113112.592500", "113113.592500", "113114.592500", "113115.592500", "113116.592500", "113117.592500", "113118.592500", "113119.592500", "113120.592500", "113121.592500", "113122.592500", "113123.592500", "113124.592500", "113125.592500", "113126.592500", "113127.592500", "113128.592500", "113129.592500", "113130.592500", "113131.592500", "113132.592500", "113133.592500", "113134.592500", "113135.592500", "113136.592500", "113137.592500", "113138.592500", "113139.592500", "113140.592500", "113141.592500", "113142.592500", "113143.592500", "113144.592500", "113145.592500", "113146.592500", "113147.592500", "113148.592500", "113149.592500", "113150.592500", "113151.592500", "113152.592500", "113153.592500", "113154.592500", "113155.592500", "113156.592500", "113157.592500", "113158.592500", "113159.592500", "113200.592500", "113201.592500", "113202.592500", "113203.592500", "113204.592500", "113205.592500", "113206.592500", "113207.592500", "113208.592500", "113209.592500", "113210.592500", "113211.592500", "113212.592500", "113213.592500", "113214.592500", "113215.592500", "113216.592500", "113217.592500", "113218.592500", "113219.592500", "113220.592500", "113221.592500", "113222.592500", "113223.592500", "113224.592500", "113225.592500", "113226.592500", "113227.592500", "113228.592500", "113229.592500", "113230.592500", "113231.592500", "113232.592500", "113233.592500", "113234.592500", "113235.592500", "113236.592500", "113237.592500"],
      "ContentTime": ["112851.782000", "112851.796000", "112851.799000", "112851.801000", "112851.804000", "112851.806000", "112851.809000", "112851.811000", "112851.814000", "112851.821000", "112851.824000", "112851.826000", "112851.829000", "112851.831000", "112851.834000", "112851.836000", "112851.839000", "112851.844000", "112851.847000", "112851.849000", "112851.852000", "112851.854000", "112851.857000", "112851.859000", "112851.862000", "112851.864000", "112851.867000", "112851.869000", "112851.872000", "112851.874000", "112851.877000", "112851.879000", "112851.882000", "112851.884000", "112851.887000", "112851.889000", "112911.752000", "112911.754000", "112911.757000", "112911.759000", "112911.762000", "112911.765000", "112911.767000", "112911.770000", "112911.772000", "112911.775000", "112911.777000", "112911.780000", "112911.782000", "112911.785000", "112911.787000", "112911.790000", "112911.792000", "112911.795000", "112911.797000", "112911.800000", "112931.752000", "112931.754000", "112931.757000", "112931.759000", "112931.762000", "112931.764000", "112931.767000", "112931.769000", "112931.772000", "112931.774000", "112931.776000", "112931.779000", "112931.781000", "112931.784000", "112931.786000", "112931.789000", "112931.791000", "112931.794000", "112931.796000", "112931.799000", "112951.751000", "112951.754000", "112951.756000", "112951.759000", "112951.761000", "112951.764000", "112951.766000", "112951.769000", "112951.771000", "112951.774000", "112951.776000", "112951.779000", "112951.781000", "112951.784000", "112951.786000", "112951.789000", "112951.791000", "112951.793000", "112951.796000", "112951.798000", "113011.752000", "113011.755000", "113011.757000", "113011.760000", "113011.762000", "113011.765000", "113011.767000", "113011.770000", "113011.772000", "113011.775000", "113011.777000", "113011.779000", "113011.782000", "113011.784000", "113011.787000", "113011.789000", "113011.792000", "113011.794000", "113011.810000", "113011.812000", "113031.752000", "113031.755000", "113031.757000", "113031.760000", "113031.762000", "113031.765000", "113031.767000", "113031.770000", "113031.772000", "113031.775000", "113031.777000", "113031.779000", "113031.782000", "113031.784000", "113031.787000", "113031.789000", "113031.802000", "113031.804000", "113031.807000", "113031.809000", "113051.753000", "113051.755000", "113051.758000", "113051.760000", "113051.763000", "113051.765000", "113051.768000", "113051.770000", "113051.773000", "113051.775000", "113051.778000", "113051.780000", "113051.783000", "113051.785000", "113051.787000", "113051.790000", "113051.792000", "113051.795000", "113051.797000", "113051.800000", "113111.751000", "113111.754000", "113111.757000", "113111.759000", "113111.762000", "113111.764000", "113111.767000", "113111.769000", "113111.772000", "113111.774000", "113111.777000", "113111.779000", "113111.782000", "113111.784000", "113111.786000", "113111.789000", "113111.791000", "113111.794000", "113111.796000", "113111.799000", "113131.752000", "113131.754000", "113131.757000", "113131.759000", "113131.762000", "113131.764000", "113131.767000", "113131.769000", "113131.772000", "113131.783000", "113131.786000", "113131.788000", "113131.790000", "113131.793000", "113131.795000", "113131.798000", "113131.800000", "113131.803000", "113131.805000", "113131.808000", "113151.752000", "113151.754000", "113151.757000", "113151.759000", "113151.762000", "113151.764000", "113151.767000", "113151.769000", "113151.772000", "113151.774000", "113151.776000", "113151.779000", "113151.781000", "113151.784000", "113151.786000", "113151.789000", "113151.791000", "113151.794000", "113151.796000", "113151.798000", "113211.752000", "113211.754000", "113211.757000", "113211.760000", "113211.762000", "113211.764000", "113211.767000", "113211.769000", "113211.772000", "113211.774000", "113211.777000", "113211.779000", "113211.782000", "113211.784000", "113211.787000", "113211.789000", "113211.792000", "113211.794000", "113211.797000", "113211.799000", "113231.752000", "113231.755000", "113231.757000", "113231.760000", "113231.767000", "113231.770000", "113231.772000", "113231.774000", "113231.777000", "113231.780000", "113231.782000", "113231.785000", "113231.788000", "113231.790000", "113231.792000", "113231.795000", "113231.797000", "113231.800000", "113231.802000", "113231.805000", "113239.138000", "113239.140000", "113239.143000", "113239.146000", "113239.148000", "113239.151000", "113239.153000", "113239.156000"],
      "InstanceCreationTime": ["112851.782000", "112851.796000", "112851.799000", "112851.801000", "112851.804000", "112851.806000", "112851.809000", "112851.811000", "112851.814000", "112851.821000", "112851.824000", "112851.826000", "112851.829000", "112851.831000", "112851.834000", "112851.836000", "112851.839000", "112851.844000", "112851.847000", "112851.849000", "112851.852000", "112851.854000", "112851.857000", "112851.859000", "112851.862000", "112851.864000", "112851.867000", "112851.869000", "112851.872000", "112851.874000", "112851.877000", "112851.879000", "112851.882000", "112851.884000", "112851.887000", "112851.889000", "112911.752000", "112911.754000", "112911.757000", "112911.759000", "112911.762000", "112911.765000", "112911.767000", "112911.770000", "112911.772000", "112911.775000", "112911.777000", "112911.780000", "112911.782000", "112911.785000", "112911.787000", "112911.790000", "112911.792000", "112911.795000", "112911.797000", "112911.800000", "112931.752000", "112931.754000", "112931.757000", "112931.759000", "112931.762000", "112931.764000", "112931.767000", "112931.769000", "112931.772000", "112931.774000", "112931.776000", "112931.779000", "112931.781000", "112931.784000", "112931.786000", "112931.789000", "112931.791000", "112931.794000", "112931.796000", "112931.799000", "112951.751000", "112951.754000", "112951.756000", "112951.759000", "112951.761000", "112951.764000", "112951.766000", "112951.769000", "112951.771000", "112951.774000", "112951.776000", "112951.779000", "112951.781000", "112951.784000", "112951.786000", "112951.789000", "112951.791000", "112951.793000", "112951.796000", "112951.798000", "113011.752000", "113011.755000", "113011.757000", "113011.760000", "113011.762000", "113011.765000", "113011.767000", "113011.770000", "113011.772000", "113011.775000", "113011.777000", "113011.779000", "113011.782000", "113011.784000", "113011.787000", "113011.789000", "113011.792000", "113011.794000", "113011.810000", "113011.812000", "113031.752000", "113031.755000", "113031.757000", "113031.760000", "113031.762000", "113031.765000", "113031.767000", "113031.770000", "113031.772000", "113031.775000", "113031.777000", "113031.779000", "113031.782000", "113031.784000", "113031.787000", "113031.789000", "113031.802000", "113031.804000", "113031.807000", "113031.809000", "113051.753000", "113051.755000", "113051.758000", "113051.760000", "113051.763000", "113051.765000", "113051.768000", "113051.770000", "113051.773000", "113051.775000", "113051.778000", "113051.780000", "113051.783000", "113051.785000", "113051.787000", "113051.790000", "113051.792000", "113051.795000", "113051.797000", "113051.800000", "113111.751000", "113111.754000", "113111.757000", "113111.759000", "113111.762000", "113111.764000", "113111.767000", "113111.769000", "113111.772000", "113111.774000", "113111.777000", "113111.779000", "113111.782000", "113111.784000", "113111.786000", "113111.789000", "113111.791000", "113111.794000", "113111.796000", "113111.799000", "113131.752000", "113131.754000", "113131.757000", "113131.759000", "113131.762000", "113131.764000", "113131.767000", "113131.769000", "113131.772000", "113131.783000", "113131.786000", "113131.788000", "113131.790000", "113131.793000", "113131.795000", "113131.798000", "113131.800000", "113131.803000", "113131.805000", "113131.808000", "113151.752000", "113151.754000", "113151.757000", "113151.759000", "113151.762000", "113151.764000", "113151.767000", "113151.769000", "113151.772000", "113151.774000", "113151.776000", "113151.779000", "113151.781000", "113151.784000", "113151.786000", "113151.789000", "113151.791000", "113151.794000", "113151.796000", "113151.798000", "113211.752000", "113211.754000", "113211.757000", "113211.760000", "113211.762000", "113211.764000", "113211.767000", "113211.769000", "113211.772000", "113211.774000", "113211.777000", "113211.779000", "113211.782000", "113211.784000", "113211.787000", "113211.789000", "113211.792000", "113211.794000", "113211.797000", "113211.799000", "113231.752000", "113231.755000", "113231.757000", "113231.760000", "113231.767000", "113231.770000", "113231.772000", "113231.774000", "113231.777000", "113231.780000", "113231.782000", "113231.785000", "113231.788000", "113231.790000", "113231.792000", "113231.795000", "113231.797000", "113231.800000", "113231.802000", "113231.805000", "113239.138000", "113239.140000", "113239.143000", "113239.146000", "113239.148000", "113239.151000", "113239.153000", "113239.156000"],
      "InstanceNumber": [1, 2, 3, 4, 5, 6, 7, 8, 9, 10, 11, 12, 13, 14, 15, 16, 17, 18, 19, 20, 21, 22, 23, 24, 25, 26, 27, 28, 29, 30, 31, 32, 33, 34, 35, 36, 37, 38, 39, 40, 41, 42, 43, 44, 45, 46, 47, 48, 49, 50, 51, 52, 53, 54, 55, 56, 57, 58, 59, 60, 61, 62, 63, 64, 65, 66, 67, 68, 69, 70, 71, 72, 73, 74, 75, 76, 77, 78, 79, 80, 81, 82, 83, 84, 85, 86, 87, 88, 89, 90, 91, 92, 93, 94, 95, 96, 97, 98, 99, 100, 101, 102, 103, 104, 105, 106, 107, 108, 109, 110, 111, 112, 113, 114, 115, 116, 117, 118, 119, 120, 121, 122, 123, 124, 125, 126, 127, 128, 129, 130, 131, 132, 133, 134, 135, 136, 137, 138, 139, 140, 141, 142, 143, 144, 145, 146, 147, 148, 149, 150, 151, 152, 153, 154, 155, 156, 157, 158, 159, 160, 161, 162, 163, 164, 165, 166, 167, 168, 169, 170, 171, 172, 173, 174, 175, 176, 177, 178, 179, 180, 181, 182, 183, 184, 185, 186, 187, 188, 189, 190, 191, 192, 193, 194, 195, 196, 197, 198, 199, 200, 201, 202, 203, 204, 205, 206, 207, 208, 209, 210, 211, 212, 213, 214, 215, 216, 217, 218, 219, 220, 221, 222, 223, 224, 225, 226, 227, 228, 229, 230, 231, 232, 233, 234, 235, 236, 237, 238, 239, 240, 241, 242, 243, 244, 245, 246, 247, 248, 249, 250, 251, 252, 253, 254, 255, 256, 257, 258, 259, 260, 261, 262, 263, 264],
      "LargestImagePixelValue": [12883, 12561, 12048, 11999, 12185, 11987, 11969, 11902, 12116, 12006, 11958, 12261, 11997, 11898, 12182, 12004, 11990, 12184, 11845, 11922, 12058, 11808, 11949, 12142, 11819, 11787, 11761, 11786, 11927, 11602, 11752, 11754, 11620, 11675, 11661, 11623, 11653, 11554, 11906, 11688, 11845, 12082, 11758, 12074, 11694, 11958, 11760, 11835, 12015, 11747, 11977, 11904, 11887, 11934, 11888, 11863, 11833, 12063, 11725, 12025, 12108, 11619, 12165, 11726, 11778, 12188, 11811, 11952, 11869, 11926, 11938, 11914, 12189, 11835, 12112, 12137, 11813, 12164, 11869, 12095, 12066, 11708, 12038, 11758, 12016, 11924, 11816, 12932, 12098, 11751, 12264, 11852, 12280, 11972, 12264, 12296, 11900, 12431, 12970, 12757, 12683, 12288, 12116, 12015, 11937, 12218, 12142, 12206, 12355, 12191, 12031, 12511, 12360, 12282, 12284, 12048, 12266, 12183, 12209, 11991, 11965, 12675, 16130, 14009, 12737, 12507, 12405, 12312, 12200, 12130, 12307, 12437, 12586, 12710, 12687, 12968, 12858, 12782, 12594, 12420, 12335, 12398, 12144, 12202, 12513, 12525, 12503, 12862, 12545, 12381, 12513, 12250, 12449, 12459, 12421, 12585, 12327, 12408, 12174, 12520, 12465, 12523, 12419, 12392, 11728, 11936, 12141, 12234, 12347, 12595, 12430, 12529, 12471, 12100, 12424, 12073, 11953, 12281, 12055, 12403, 12320, 11934, 12294, 11833, 11950, 11962, 11896, 12195, 12051, 11814, 11903, 11678, 11860, 11870, 12482, 12192, 11891, 12429, 11982, 12306, 11979, 11999, 12237, 12053, 11825, 12259, 11842, 11924, 12119, 11768, 12098, 11949, 11934, 12266, 11757, 18393, 14722, 13055, 12723, 12484, 12500, 12428, 12227, 12320, 11929, 16071, 13350, 12041, 11482, 11676, 11724, 12048, 11952, 11923, 11867, 12112, 12002, 12000, 11987, 12108, 12218, 12222, 12343, 12488, 12445, 12404, 12350, 12317, 12394, 12277, 12282, 12350, 14761, 12707, 12667, 11799, 12039, 11978, 11973, 12097, 12030, 12196, 11930, 11980],
      "TriggerTime": [8102.5, 9102.5, 10102.5, 11102.5, 12102.5, 13102.5, 14102.5, 15102.5, 16102.5, 17102.5, 18102.5, 19102.5, 20102.5, 21102.5, 22102.5, 23102.5, 24102.5, 25102.5, 26102.5, 27102.5, 28102.5, 29102.5, 30102.5, 31102.5, 32102.5, 33102.5, 34102.5, 35102.5, 36102.5, 37102.5, 38102.5, 39102.5, 40102.5, 41102.5, 42102.5, 43102.5, 44102.5, 45102.5, 46102.5, 47102.5, 48102.5, 49102.5, 50102.5, 51102.5, 52102.5, 53102.5, 54102.5, 55102.5, 56102.5, 57102.5, 58102.5, 59102.5, 60102.5, 61102.5, 62102.5, 63102.5, 64102.5, 65102.5, 66102.5, 67102.5, 68102.5, 69102.5, 70102.5, 71102.5, 72102.5, 73102.5, 74102.5, 75102.5, 76102.5, 77102.5, 78102.5, 79102.5, 80102.5, 81102.5, 82102.5, 83102.5, 84102.5, 85102.5, 86102.5, 87102.5, 88102.5, 89102.5, 90102.5, 91102.5, 92102.5, 93102.5, 94102.5, 95102.5, 96102.5, 97102.5, 98102.5, 99102.5, 100102.5, 101102.5, 102102.5, 103102.5, 104102.5, 105102.5, 106102.5, 107102.5, 108102.5, 109102.5, 110102.5, 111102.5, 112102.5, 113102.5, 114102.5, 115102.5, 116102.5, 117102.5, 118102.5, 119102.5, 120102.5, 121102.5, 122102.5, 123102.5, 124102.5, 125102.5, 126102.5, 127102.5, 128102.5, 129102.5, 130102.5, 131102.5, 132102.5, 133102.5, 134102.5, 135102.5, 136102.5, 137102.5, 138102.5, 139102.5, 140102.5, 141102.5, 142102.5, 143102.5, 144102.5, 145102.5, 146102.5, 147102.5, 148102.5, 149102.5, 150102.5, 151102.5, 152102.5, 153102.5, 154102.5, 155102.5, 156102.5, 157102.5, 158102.5, 159102.5, 160102.5, 161102.5, 162102.5, 163102.5, 164102.5, 165102.5, 166102.5, 167102.5, 168102.5, 169102.5, 170102.5, 171102.5, 172102.5, 173102.5, 174102.5, 175102.5, 176102.5, 177102.5, 178102.5, 179102.5, 180102.5, 181102.5, 182102.5, 183102.5, 184102.5, 185102.5, 186102.5, 187102.5, 188102.5, 189102.5, 190102.5, 191102.5, 192102.5, 193102.5, 194102.5, 195102.5, 196102.5, 197102.5, 198102.5, 199102.5, 200102.5, 201102.5, 202102.5, 203102.5, 204102.5, 205102.5, 206102.5, 207102.5, 208102.5, 209102.5, 210102.5, 211102.5, 212102.5, 213102.5, 214102.5, 215102.5, 216102.5, 217102.5, 218102.5, 219102.5, 220102.5, 221102.5, 222102.5, 223102.5, 224102.5, 225102.5, 226102.5, 227102.5, 228102.5, 229102.5, 230102.5, 231102.5, 232102.5, 233102.5, 234102.5, 235102.5, 236102.5, 237102.5, 238102.5, 239102.5, 240102.5, 241102.5, 242102.5, 243102.5, 244102.5, 245102.5, 246102.5, 247102.5, 248102.5, 249102.5, 250102.5, 251102.5, 252102.5, 253102.5, 254102.5, 255102.5, 256102.5, 257102.5, 258102.5, 259102.5, 260102.5, 261102.5, 262102.5, 263102.5, 264102.5, 265102.5, 266102.5, 267102.5, 268102.5, 269102.5, 270102.5, 271102.5],
      "WindowCenter": [4392.0, 4375.0, 4367.0, 4364.0, 4376.0, 4364.0, 4368.0, 4368.0, 4377.0, 4375.0, 4364.0, 4364.0, 4351.0, 4362.0, 4365.0, 4362.0, 4351.0, 4361.0, 4350.0, 4355.0, 4363.0, 4364.0, 4364.0, 4360.0, 4362.0, 4361.0, 4363.0, 4362.0, 4362.0, 4353.0, 4363.0, 4360.0, 4351.0, 4352.0, 4353.0, 4350.0, 4343.0, 4354.0, 4365.0, 4354.0, 4362.0, 4361.0, 4352.0, 4363.0, 4352.0, 4350.0, 4338.0, 4348.0, 4359.0, 4348.0, 4349.0, 4349.0, 4349.0, 4349.0, 4350.0, 4353.0, 4352.0, 4358.0, 4354.0, 4363.0, 4366.0, 4342.0, 4350.0, 4352.0, 4350.0, 4362.0, 4353.0, 4355.0, 4364.0, 4354.0, 4352.0, 4354.0, 4364.0, 4354.0, 4365.0, 4365.0, 4352.0, 4360.0, 4353.0, 4352.0, 4349.0, 4350.0, 4353.0, 4351.0, 4364.0, 4350.0, 4352.0, 4376.0, 4352.0, 4351.0, 4352.0, 4353.0, 4365.0, 4355.0, 4362.0, 4351.0, 4353.0, 4365.0, 4374.0, 4376.0, 4379.0, 4357.0, 4341.0, 4341.0, 4329.0, 4339.0, 4352.0, 4352.0, 4363.0, 4352.0, 4351.0, 4363.0, 4356.0, 4351.0, 4352.0, 4342.0, 4338.0, 4349.0, 4350.0, 4341.0, 4340.0, 4374.0, 4426.0, 4393.0, 4374.0, 4365.0, 4352.0, 4339.0, 4355.0, 4351.0, 4354.0, 4376.0, 4377.0, 4378.0, 4379.0, 4388.0, 4376.0, 4358.0, 4348.0, 4348.0, 4344.0, 4346.0, 4348.0, 4351.0, 4362.0, 4364.0, 4376.0, 4376.0, 4364.0, 4364.0, 4366.0, 4367.0, 4378.0, 4378.0, 4377.0, 4377.0, 4376.0, 4378.0, 4378.0, 4379.0, 4366.0, 4365.0, 4376.0, 4381.0, 4384.0, 4367.0, 4370.0, 4380.0, 4377.0, 4380.0, 4381.0, 4380.0, 4379.0, 4372.0, 4375.0, 4366.0, 4355.0, 4363.0, 4368.0, 4367.0, 4362.0, 4340.0, 4352.0, 4353.0, 4353.0, 4353.0, 4354.0, 4365.0, 4364.0, 4364.0, 4356.0, 4359.0, 4368.0, 4368.0, 4377.0, 4369.0, 4368.0, 4377.0, 4368.0, 4368.0, 4370.0, 4370.0, 4383.0, 4368.0, 4367.0, 4367.0, 4367.0, 4356.0, 4368.0, 4368.0, 4365.0, 4359.0, 4355.0, 4369.0, 4355.0, 4456.0, 4391.0, 4389.0, 4375.0, 4365.0, 4368.0, 4369.0, 4355.0, 4363.0, 4307.0, 4443.0, 4387.0, 4357.0, 4328.0, 4305.0, 4298.0, 4295.0, 4281.0, 4292.0, 4295.0, 4304.0, 4322.0, 4335.0, 4340.0, 4339.0, 4325.0, 4312.0, 4310.0, 4303.0, 4293.0, 4302.0, 4304.0, 4310.0, 4324.0, 4322.0, 4325.0, 4335.0, 4389.0, 4348.0, 4345.0, 4336.0, 4350.0, 4352.0, 4354.0, 4353.0, 4355.0, 4350.0, 4351.0, 4354.0],
