{
  "AcquisitionMatrixPE": 106,
  "AcquisitionNumber": 1,
  "AcquisitionTime": "11:16:12.270000",
  "BandwidthPerPixelPhaseEncode": 16.846,
  "BaseResolution": 106,
  "BodyPartExamined": "BRAIN",
  "CoilCombinationMethod": "Sum of Squares",
  "ConsistencyInfo": "N4_VE11C_LATEST_20160120",
  "ConversionSoftware": "dcm2niix",
  "ConversionSoftwareVersion": "v1.0.20220720",
  "DerivedVendorReportedEchoSpacing": 0.000560012,
  "DeviceSerialNumber": "166108",
  "DwellTime": 1.8e-06,
  "EchoTime": 0.0352,
  "EchoTrainLength": 106,
  "EffectiveEchoSpacing": 0.000560012,
  "FlipAngle": 60,
  "HeudiconvVersion": "1.3.0",
  "ImageComments": "Unaliased MB4/PE3/LB",
  "ImageOrientationPatientDICOM": [1, 0, 0, 0, 0.940881, -0.338738],
  "ImageOrientationText": "Tra>Cor(-19.8)",
  "ImageType": [
    "ORIGINAL",
    "PRIMARY",
    "M",
    "MB",
    "ND",
    "MOSAIC"
],
  "ImagingFrequency": 123.244,
  "InPlanePhaseEncodingDirectionDICOM": "COL",
  "InstitutionAddress": "Bedford Way 26,London,London,GB,WC1H 0AP",
  "InstitutionName": "University College",
  "InstitutionalDepartmentName": "Department",
  "MRAcquisitionType": "2D",
  "MagneticFieldStrength": 3,
  "Manufacturer": "Siemens",
  "ManufacturersModelName": "Prisma",
  "MatrixCoilMode": "SENSE",
  "Modality": "MR",
  "MultibandAccelerationFactor": 4,
  "NonlinearGradientCorrection": false,
  "PartialFourier": 1,
  "PatientPosition": "HFS",
  "PercentPhaseFOV": 100,
  "PercentSampling": 100,
  "PhaseEncodingDirection": "j-",
  "PhaseEncodingSteps": 106,
  "PhaseResolution": 1,
  "PixelBandwidth": 2620,
  "ProcedureStepDescription": "Egor^MovieProject2",
  "ProtocolName": "func-bold_task-pRF_run-03",
  "PulseSequenceDetails": "%CustomerSeq%\\cmrr_mbep2d_bold",
  "ReceiveCoilActiveElements": "HEA;HEP",
  "ReceiveCoilName": "Head_32",
  "ReconMatrixPE": 106,
  "RepetitionTime": 1,
  "SAR": 0.0680036,
  "ScanOptions": "FS\\EXT",
  "ScanningSequence": "EP",
  "SequenceName": "epfid2d1_106",
  "SequenceVariant": "SK\\SS",
  "SeriesDescription": "func-bold_task-pRF_run-03",
  "SeriesNumber": 14,
  "ShimSetting": [-1602, 651, 7458, 377, -109, 155, 155, -36],
  "SliceThickness": 2,
  "SliceTiming": [0, 0.4075, 0.815, 0.245, 0.6525, 0.08, 0.49, 0.8975, 0.325, 0.735, 0.1625, 0.57, 0, 0.4075, 0.815, 0.245, 0.6525, 0.08, 0.49, 0.8975, 0.325, 0.735, 0.1625, 0.57, 0, 0.4075, 0.815, 0.245, 0.6525, 0.08, 0.49, 0.8975, 0.325, 0.735, 0.1625, 0.57, 0, 0.4075, 0.815, 0.245, 0.6525, 0.08, 0.49, 0.8975, 0.325, 0.735, 0.1625, 0.57],
  "SoftwareVersions": "syngo MR E11",
  "SpacingBetweenSlices": 2,
  "StationName": "AWP166108",
  "TaskName": "retinotopy",
  "TotalReadoutTime": 0.0588013,
  "TxRefAmp": 237.05,
  "WipMemBlock": "10b41a75-5640-4bef-bc0e-44e79cdc50e5||Sequence: R016 ve11c/master r/e634e98; Dec 19 2017 11:00:25 by eja",
  "dcmmeta_affine": [
    [-2.0, 0.0, 0.0, 106.0],
    [0.0, 1.8817615509033203, -0.6774758696556091, -73.9116439819336],
    [0.0, 0.6774758696556091, 1.8817615509033203, -32.56821060180664],
    [0.0, 0.0, 0.0, 1.0]
],
  "dcmmeta_reorient_transform": [
    [0.0, -1.0, 0.0, 105.0],
    [1.0, 0.0, 0.0, 0.0],
    [0.0, 0.0, 1.0, 0.0],
    [0.0, 0.0, 0.0, 1.0]
],
  "dcmmeta_shape": [106, 106, 48, 356],
  "dcmmeta_slice_dim": 2,
  "dcmmeta_version": 0.6,
  "global": {
    "const": {
      "AcquisitionMatrix": [106, 0, 0, 106],
      "AngioFlag": "N",
      "BitsAllocated": 16,
      "BitsStored": 16,
      "BodyPartExamined": "BRAIN",
      "CardiacNumberOfImages": 1,
      "Columns": 742,
      "EchoNumbers": 1,
      "EchoTime": 35.2,
      "EchoTrainLength": 106,
      "FlipAngle": 60.0,
      "HighBit": 15,
      "ImageOrientationPatient": [1.0, 0.0, 0.0, 0.0, 0.94088076873196, -0.3387379208627],
      "ImagePositionPatient": [-742.0, -722.0734889715, 254.00406880094],
      "ImageType": [
        "ORIGINAL",
        "PRIMARY",
        "M",
        "MB",
        "ND",
        "MOSAIC"
],
      "ImagedNucleus": "1H",
      "ImagingFrequency": 123.243657,
      "InPlanePhaseEncodingDirection": "COL",
      "MRAcquisitionType": "2D",
      "MagneticFieldStrength": 3.0,
      "Manufacturer": "SIEMENS",
      "ManufacturerModelName": "Prisma",
      "Modality": "MR",
      "NominalInterval": 0,
      "NumberOfAverages": 1.0,
      "NumberOfPhaseEncodingSteps": 106,
      "PercentPhaseFieldOfView": 100.0,
      "PercentSampling": 100.0,
      "PerformedProcedureStepStartTime": "101331.827000",
      "PhotometricInterpretation": "MONOCHROME2",
      "PixelBandwidth": 2620.0,
      "PixelRepresentation": 0,
      "PixelSpacing": [2.0, 2.0],
      "ProtocolName": "func-bold_task-pRF_run-03",
      "RepetitionTime": 1000.0,
      "Rows": 742,
      "SAR": 0.06800362012559,
      "SamplesPerPixel": 1,
      "ScanOptions": [
        "FS",
        "EXT"
],
      "ScanningSequence": "EP",
      "SequenceName": "epfid2d1_106",
      "SequenceVariant": [
        "SK",
        "SS"
],
      "SeriesDescription": "func-bold_task-pRF_run-03",
      "SeriesNumber": 14,
      "SeriesTime": "111651.847000",
      "SliceLocation": -5.6061288497822,
      "SliceThickness": 2.0,
      "SmallestImagePixelValue": 0,
      "SoftwareVersions": "syngo MR E11",
      "SpacingBetweenSlices": 2.0000000174754,
      "SpecificCharacterSet": "ISO_IR 100",
      "StudyID": "1",
      "StudyTime": "101331.761000",
      "TransmitCoilName": "Body",
      "VariableFlipAngleFlag": "N",
      "WindowCenterWidthExplanation": "Algo1",
      "dBdt": 0.0},
    "slices": {}
  },
  "time": {
    "samples": {
      "AcquisitionNumber": [1, 2, 3, 4, 5, 6, 7, 8, 9, 10, 11, 12, 13, 14, 15, 16, 17, 18, 19, 20, 21, 22, 23, 24, 25, 26, 27, 28, 29, 30, 31, 32, 33, 34, 35, 36, 37, 38, 39, 40, 41, 42, 43, 44, 45, 46, 47, 48, 49, 50, 51, 52, 53, 54, 55, 56, 57, 58, 59, 60, 61, 62, 63, 64, 65, 66, 67, 68, 69, 70, 71, 72, 73, 74, 75, 76, 77, 78, 79, 80, 81, 82, 83, 84, 85, 86, 87, 88, 89, 90, 91, 92, 93, 94, 95, 96, 97, 98, 99, 100, 101, 102, 103, 104, 105, 106, 107, 108, 109, 110, 111, 112, 113, 114, 115, 116, 117, 118, 119, 120, 121, 122, 123, 124, 125, 126, 127, 128, 129, 130, 131, 132, 133, 134, 135, 136, 137, 138, 139, 140, 141, 142, 143, 144, 145, 146, 147, 148, 149, 150, 151, 152, 153, 154, 155, 156, 157, 158, 159, 160, 161, 162, 163, 164, 165, 166, 167, 168, 169, 170, 171, 172, 173, 174, 175, 176, 177, 178, 179, 180, 181, 182, 183, 184, 185, 186, 187, 188, 189, 190, 191, 192, 193, 194, 195, 196, 197, 198, 199, 200, 201, 202, 203, 204, 205, 206, 207, 208, 209, 210, 211, 212, 213, 214, 215, 216, 217, 218, 219, 220, 221, 222, 223, 224, 225, 226, 227, 228, 229, 230, 231, 232, 233, 234, 235, 236, 237, 238, 239, 240, 241, 242, 243, 244, 245, 246, 247, 248, 249, 250, 251, 252, 253, 254, 255, 256, 257, 258, 259, 260, 261, 262, 263, 264, 265, 266, 267, 268, 269, 270, 271, 272, 273, 274, 275, 276, 277, 278, 279, 280, 281, 282, 283, 284, 285, 286, 287, 288, 289, 290, 291, 292, 293, 294, 295, 296, 297, 298, 299, 300, 301, 302, 303, 304, 305, 306, 307, 308, 309, 310, 311, 312, 313, 314, 315, 316, 317, 318, 319, 320, 321, 322, 323, 324, 325, 326, 327, 328, 329, 330, 331, 332, 333, 334, 335, 336, 337, 338, 339, 340, 341, 342, 343, 344, 345, 346, 347, 348, 349, 350, 351, 352, 353, 354, 355, 356],
      "AcquisitionTime": ["111612.270000", "111613.270000", "111614.270000", "111615.270000", "111616.270000", "111617.270000", "111618.270000", "111619.270000", "111620.270000", "111621.270000", "111622.270000", "111623.270000", "111624.270000", "111625.270000", "111626.270000", "111627.270000", "111628.270000", "111629.270000", "111630.270000", "111631.270000", "111632.270000", "111633.270000", "111634.270000", "111635.270000", "111636.270000", "111637.270000", "111638.270000", "111639.270000", "111640.270000", "111641.270000", "111642.270000", "111643.270000", "111644.270000", "111645.270000", "111646.270000", "111647.270000", "111648.270000", "111649.270000", "111650.270000", "111651.270000", "111652.270000", "111653.270000", "111654.270000", "111655.270000", "111656.270000", "111657.270000", "111658.270000", "111659.270000", "111700.270000", "111701.270000", "111702.270000", "111703.270000", "111704.270000", "111705.270000", "111706.270000", "111707.270000", "111708.270000", "111709.270000", "111710.270000", "111711.270000", "111712.270000", "111713.270000", "111714.270000", "111715.270000", "111716.270000", "111717.270000", "111718.270000", "111719.270000", "111720.270000", "111721.270000", "111722.270000", "111723.270000", "111724.270000", "111725.270000", "111726.270000", "111727.270000", "111728.270000", "111729.270000", "111730.270000", "111731.270000", "111732.270000", "111733.270000", "111734.270000", "111735.270000", "111736.270000", "111737.270000", "111738.270000", "111739.270000", "111740.270000", "111741.270000", "111742.270000", "111743.270000", "111744.270000", "111745.270000", "111746.270000", "111747.270000", "111748.270000", "111749.270000", "111750.270000", "111751.270000", "111752.270000", "111753.270000", "111754.270000", "111755.270000", "111756.270000", "111757.270000", "111758.270000", "111759.270000", "111800.270000", "111801.270000", "111802.270000", "111803.270000", "111804.270000", "111805.270000", "111806.270000", "111807.270000", "111808.270000", "111809.270000", "111810.270000", "111811.270000", "111812.270000", "111813.270000", "111814.270000", "111815.270000", "111816.270000", "111817.270000", "111818.270000", "111819.270000", "111820.270000", "111821.270000", "111822.270000", "111823.270000", "111824.270000", "111825.270000", "111826.270000", "111827.270000", "111828.270000", "111829.270000", "111830.270000", "111831.270000", "111832.270000", "111833.270000", "111834.270000", "111835.270000", "111836.270000", "111837.270000", "111838.270000", "111839.270000", "111840.270000", "111841.270000", "111842.270000", "111843.270000", "111844.270000", "111845.270000", "111846.270000", "111847.270000", "111848.270000", "111849.270000", "111850.270000", "111851.270000", "111852.270000", "111853.270000", "111854.270000", "111855.270000", "111856.270000", "111857.270000", "111858.270000", "111859.270000", "111900.270000", "111901.270000", "111902.270000", "111903.270000", "111904.270000", "111905.270000", "111906.270000", "111907.270000", "111908.270000", "111909.270000", "111910.270000", "111911.270000", "111912.270000", "111913.270000", "111914.270000", "111915.270000", "111916.270000", "111917.270000", "111918.270000", "111919.270000", "111920.270000", "111921.270000", "111922.270000", "111923.270000", "111924.270000", "111925.270000", "111926.270000", "111927.270000", "111928.270000", "111929.270000", "111930.270000", "111931.270000", "111932.270000", "111933.270000", "111934.270000", "111935.270000", "111936.270000", "111937.270000", "111938.270000", "111939.270000", "111940.270000", "111941.270000", "111942.270000", "111943.270000", "111944.270000", "111945.270000", "111946.270000", "111947.270000", "111948.270000", "111949.270000", "111950.270000", "111951.270000", "111952.270000", "111953.270000", "111954.270000", "111955.270000", "111956.270000", "111957.270000", "111958.270000", "111959.270000", "112000.270000", "112001.270000", "112002.270000", "112003.270000", "112004.270000", "112005.270000", "112006.270000", "112007.270000", "112008.270000", "112009.270000", "112010.270000", "112011.270000", "112012.270000", "112013.270000", "112014.270000", "112015.270000", "112016.270000", "112017.270000", "112018.270000", "112019.270000", "112020.270000", "112021.270000", "112022.270000", "112023.270000", "112024.270000", "112025.270000", "112026.270000", "112027.270000", "112028.270000", "112029.270000", "112030.270000", "112031.270000", "112032.270000", "112033.270000", "112034.270000", "112035.270000", "112036.270000", "112037.270000", "112038.270000", "112039.270000", "112040.270000", "112041.270000", "112042.270000", "112043.270000", "112044.270000", "112045.270000", "112046.270000", "112047.270000", "112048.270000", "112049.270000", "112050.270000", "112051.270000", "112052.270000", "112053.270000", "112054.270000", "112055.270000", "112056.270000", "112057.270000", "112058.270000", "112059.270000", "112100.270000", "112101.270000", "112102.270000", "112103.270000", "112104.270000", "112105.270000", "112106.270000", "112107.270000", "112108.270000", "112109.270000", "112110.270000", "112111.270000", "112112.270000", "112113.270000", "112114.270000", "112115.270000", "112116.270000", "112117.270000", "112118.270000", "112119.270000", "112120.270000", "112121.270000", "112122.270000", "112123.270000", "112124.270000", "112125.270000", "112126.270000", "112127.270000", "112128.270000", "112129.270000", "112130.270000", "112131.270000", "112132.270000", "112133.270000", "112134.270000", "112135.270000", "112136.270000", "112137.270000", "112138.270000", "112139.270000", "112140.270000", "112141.270000", "112142.270000", "112143.270000", "112144.270000", "112145.270000", "112146.270000", "112147.270000", "112148.270000", "112149.270000", "112150.270000", "112151.270000", "112152.270000", "112153.270000", "112154.270000", "112155.270000", "112156.270000", "112157.270000", "112158.270000", "112159.270000", "112200.270000", "112201.270000", "112202.270000", "112203.270000", "112204.270000", "112205.270000", "112206.270000", "112207.270000"],
      "ContentTime": ["111651.849000", "111651.852000", "111651.855000", "111651.857000", "111651.868000", "111651.871000", "111651.873000", "111651.876000", "111651.878000", "111651.881000", "111651.883000", "111651.886000", "111651.888000", "111651.891000", "111651.893000", "111651.896000", "111651.898000", "111651.900000", "111651.903000", "111651.905000", "111651.908000", "111651.910000", "111651.913000", "111651.915000", "111651.918000", "111651.920000", "111651.923000", "111651.925000", "111651.928000", "111651.930000", "111651.933000", "111651.935000", "111651.938000", "111651.940000", "111651.943000", "111651.945000", "111651.948000", "111651.950000", "111651.953000", "111711.814000", "111711.817000", "111711.820000", "111711.822000", "111711.825000", "111711.827000", "111711.830000", "111711.832000", "111711.835000", "111711.837000", "111711.840000", "111711.842000", "111711.845000", "111711.847000", "111711.849000", "111711.852000", "111711.862000", "111711.865000", "111711.867000", "111711.870000", "111731.814000", "111731.817000", "111731.820000", "111731.822000", "111731.825000", "111731.827000", "111731.830000", "111731.832000", "111731.835000", "111731.837000", "111731.839000", "111731.842000", "111731.844000", "111731.847000", "111731.849000", "111731.852000", "111731.854000", "111731.857000", "111731.859000", "111731.862000", "111751.814000", "111751.817000", "111751.820000", "111751.822000", "111751.824000", "111751.827000", "111751.829000", "111751.832000", "111751.834000", "111751.837000", "111751.839000", "111751.842000", "111751.853000", "111751.855000", "111751.858000", "111751.861000", "111751.863000", "111751.865000", "111751.868000", "111751.870000", "111811.814000", "111811.817000", "111811.820000", "111811.822000", "111811.824000", "111811.827000", "111811.829000", "111811.832000", "111811.835000", "111811.837000", "111811.840000", "111811.842000", "111811.845000", "111811.847000", "111811.849000", "111811.852000", "111811.854000", "111811.857000", "111811.859000", "111811.862000", "111831.815000", "111831.818000", "111831.821000", "111831.823000", "111831.826000", "111831.828000", "111831.831000", "111831.833000", "111831.836000", "111831.838000", "111831.840000", "111831.847000", "111831.850000", "111831.852000", "111831.855000", "111831.857000", "111831.860000", "111831.862000", "111831.865000", "111831.867000", "111851.815000", "111851.818000", "111851.820000", "111851.823000", "111851.825000", "111851.828000", "111851.830000", "111851.833000", "111851.835000", "111851.838000", "111851.840000", "111851.843000", "111851.845000", "111851.848000", "111851.850000", "111851.853000", "111851.855000", "111851.858000", "111851.860000", "111851.862000", "111911.815000", "111911.818000", "111911.821000", "111911.823000", "111911.825000", "111911.828000", "111911.830000", "111911.833000", "111911.835000", "111911.838000", "111911.840000", "111911.843000", "111911.846000", "111911.848000", "111911.851000", "111911.853000", "111911.855000", "111911.858000", "111911.860000", "111911.863000", "111931.814000", "111931.817000", "111931.820000", "111931.822000", "111931.825000", "111931.834000", "111931.836000", "111931.839000", "111931.841000", "111931.844000", "111931.846000", "111931.849000", "111931.851000", "111931.854000", "111931.856000", "111931.859000", "111931.861000", "111931.864000", "111931.866000", "111931.869000", "111951.814000", "111951.817000", "111951.820000", "111951.822000", "111951.825000", "111951.827000", "111951.830000", "111951.832000", "111951.835000", "111951.837000", "111951.840000", "111951.842000", "111951.845000", "111951.847000", "111951.849000", "111951.852000", "111951.855000", "111951.857000", "111951.860000", "111951.862000", "112011.814000", "112011.817000", "112011.820000", "112011.822000", "112011.824000", "112011.827000", "112011.829000", "112011.832000", "112011.834000", "112011.837000", "112011.839000", "112011.842000", "112011.844000", "112011.847000", "112011.850000", "112011.852000", "112011.854000", "112011.857000", "112011.860000", "112011.862000", "112031.814000", "112031.817000", "112031.820000", "112031.822000", "112031.825000", "112031.827000", "112031.830000", "112031.832000", "112031.835000", "112031.838000", "112031.840000", "112031.843000", "112031.845000", "112031.848000", "112031.850000", "112031.853000", "112031.855000", "112031.858000", "112031.860000", "112031.863000", "112051.815000", "112051.818000", "112051.821000", "112051.823000", "112051.825000", "112051.828000", "112051.831000", "112051.833000", "112051.836000", "112051.839000", "112051.841000", "112051.844000", "112051.846000", "112051.849000", "112051.851000", "112051.854000", "112051.856000", "112051.859000", "112051.862000", "112051.864000", "112111.815000", "112111.818000", "112111.821000", "112111.823000", "112111.826000", "112111.828000", "112111.831000", "112111.833000", "112111.836000", "112111.838000", "112111.841000", "112111.843000", "112111.846000", "112111.848000", "112111.851000", "112111.853000", "112111.856000", "112111.858000", "112111.861000", "112111.863000", "112131.816000", "112131.818000", "112131.821000", "112131.823000", "112131.826000", "112131.828000", "112131.831000", "112131.833000", "112131.836000", "112131.853000", "112131.855000", "112131.858000", "112131.860000", "112131.863000", "112131.865000", "112131.868000", "112131.870000", "112131.873000", "112131.875000", "112131.877000", "112151.814000", "112151.817000", "112151.820000", "112151.822000", "112151.825000", "112151.827000", "112151.830000", "112151.832000", "112151.835000", "112151.837000", "112151.840000", "112151.842000", "112151.845000", "112151.847000", "112151.850000", "112151.852000", "112151.854000", "112151.857000", "112151.860000", "112151.862000", "112208.815000", "112208.818000", "112208.821000", "112208.824000", "112208.826000", "112208.829000", "112208.831000", "112208.834000", "112208.836000", "112208.839000", "112208.841000", "112208.844000", "112208.847000", "112208.849000", "112208.852000", "112208.855000", "112208.857000"],
      "InstanceCreationTime": ["111651.849000", "111651.852000", "111651.855000", "111651.857000", "111651.868000", "111651.871000", "111651.873000", "111651.876000", "111651.878000", "111651.881000", "111651.883000", "111651.886000", "111651.888000", "111651.891000", "111651.893000", "111651.896000", "111651.898000", "111651.900000", "111651.903000", "111651.905000", "111651.908000", "111651.910000", "111651.913000", "111651.915000", "111651.918000", "111651.920000", "111651.923000", "111651.925000", "111651.928000", "111651.930000", "111651.933000", "111651.935000", "111651.938000", "111651.940000", "111651.943000", "111651.945000", "111651.948000", "111651.950000", "111651.953000", "111711.814000", "111711.817000", "111711.820000", "111711.822000", "111711.825000", "111711.827000", "111711.830000", "111711.832000", "111711.835000", "111711.837000", "111711.840000", "111711.842000", "111711.845000", "111711.847000", "111711.849000", "111711.852000", "111711.862000", "111711.865000", "111711.867000", "111711.870000", "111731.814000", "111731.817000", "111731.820000", "111731.822000", "111731.825000", "111731.827000", "111731.830000", "111731.832000", "111731.835000", "111731.837000", "111731.839000", "111731.842000", "111731.844000", "111731.847000", "111731.849000", "111731.852000", "111731.854000", "111731.857000", "111731.859000", "111731.862000", "111751.814000", "111751.817000", "111751.820000", "111751.822000", "111751.824000", "111751.827000", "111751.829000", "111751.832000", "111751.834000", "111751.837000", "111751.839000", "111751.842000", "111751.853000", "111751.855000", "111751.858000", "111751.861000", "111751.863000", "111751.865000", "111751.868000", "111751.870000", "111811.814000", "111811.817000", "111811.820000", "111811.822000", "111811.824000", "111811.827000", "111811.829000", "111811.832000", "111811.835000", "111811.837000", "111811.840000", "111811.842000", "111811.845000", "111811.847000", "111811.849000", "111811.852000", "111811.854000", "111811.857000", "111811.859000", "111811.862000", "111831.815000", "111831.818000", "111831.821000", "111831.823000", "111831.826000", "111831.828000", "111831.831000", "111831.833000", "111831.836000", "111831.838000", "111831.840000", "111831.847000", "111831.850000", "111831.852000", "111831.855000", "111831.857000", "111831.860000", "111831.862000", "111831.865000", "111831.867000", "111851.815000", "111851.818000", "111851.820000", "111851.823000", "111851.825000", "111851.828000", "111851.830000", "111851.833000", "111851.835000", "111851.838000", "111851.840000", "111851.843000", "111851.845000", "111851.848000", "111851.850000", "111851.853000", "111851.855000", "111851.858000", "111851.860000", "111851.862000", "111911.815000", "111911.818000", "111911.821000", "111911.823000", "111911.825000", "111911.828000", "111911.830000", "111911.833000", "111911.835000", "111911.838000", "111911.840000", "111911.843000", "111911.846000", "111911.848000", "111911.851000", "111911.853000", "111911.855000", "111911.858000", "111911.860000", "111911.863000", "111931.814000", "111931.817000", "111931.820000", "111931.822000", "111931.825000", "111931.834000", "111931.836000", "111931.839000", "111931.841000", "111931.844000", "111931.846000", "111931.849000", "111931.851000", "111931.854000", "111931.856000", "111931.859000", "111931.861000", "111931.864000", "111931.866000", "111931.869000", "111951.814000", "111951.817000", "111951.820000", "111951.822000", "111951.825000", "111951.827000", "111951.830000", "111951.832000", "111951.835000", "111951.837000", "111951.840000", "111951.842000", "111951.845000", "111951.847000", "111951.849000", "111951.852000", "111951.855000", "111951.857000", "111951.860000", "111951.862000", "112011.814000", "112011.817000", "112011.820000", "112011.822000", "112011.824000", "112011.827000", "112011.829000", "112011.832000", "112011.834000", "112011.837000", "112011.839000", "112011.842000", "112011.844000", "112011.847000", "112011.850000", "112011.852000", "112011.854000", "112011.857000", "112011.860000", "112011.862000", "112031.814000", "112031.817000", "112031.820000", "112031.822000", "112031.825000", "112031.827000", "112031.830000", "112031.832000", "112031.835000", "112031.838000", "112031.840000", "112031.843000", "112031.845000", "112031.848000", "112031.850000", "112031.853000", "112031.855000", "112031.858000", "112031.860000", "112031.863000", "112051.815000", "112051.818000", "112051.821000", "112051.823000", "112051.825000", "112051.828000", "112051.831000", "112051.833000", "112051.836000", "112051.839000", "112051.841000", "112051.844000", "112051.846000", "112051.849000", "112051.851000", "112051.854000", "112051.856000", "112051.859000", "112051.862000", "112051.864000", "112111.815000", "112111.818000", "112111.821000", "112111.823000", "112111.826000", "112111.828000", "112111.831000", "112111.833000", "112111.836000", "112111.838000", "112111.841000", "112111.843000", "112111.846000", "112111.848000", "112111.851000", "112111.853000", "112111.856000", "112111.858000", "112111.861000", "112111.863000", "112131.816000", "112131.818000", "112131.821000", "112131.823000", "112131.826000", "112131.828000", "112131.831000", "112131.833000", "112131.836000", "112131.853000", "112131.855000", "112131.858000", "112131.860000", "112131.863000", "112131.865000", "112131.868000", "112131.870000", "112131.873000", "112131.875000", "112131.877000", "112151.814000", "112151.817000", "112151.820000", "112151.822000", "112151.825000", "112151.827000", "112151.830000", "112151.832000", "112151.835000", "112151.837000", "112151.840000", "112151.842000", "112151.845000", "112151.847000", "112151.850000", "112151.852000", "112151.854000", "112151.857000", "112151.860000", "112151.862000", "112208.815000", "112208.818000", "112208.821000", "112208.824000", "112208.826000", "112208.829000", "112208.831000", "112208.834000", "112208.836000", "112208.839000", "112208.841000", "112208.844000", "112208.847000", "112208.849000", "112208.852000", "112208.855000", "112208.857000"],
      "InstanceNumber": [1, 2, 3, 4, 5, 6, 7, 8, 9, 10, 11, 12, 13, 14, 15, 16, 17, 18, 19, 20, 21, 22, 23, 24, 25, 26, 27, 28, 29, 30, 31, 32, 33, 34, 35, 36, 37, 38, 39, 40, 41, 42, 43, 44, 45, 46, 47, 48, 49, 50, 51, 52, 53, 54, 55, 56, 57, 58, 59, 60, 61, 62, 63, 64, 65, 66, 67, 68, 69, 70, 71, 72, 73, 74, 75, 76, 77, 78, 79, 80, 81, 82, 83, 84, 85, 86, 87, 88, 89, 90, 91, 92, 93, 94, 95, 96, 97, 98, 99, 100, 101, 102, 103, 104, 105, 106, 107, 108, 109, 110, 111, 112, 113, 114, 115, 116, 117, 118, 119, 120, 121, 122, 123, 124, 125, 126, 127, 128, 129, 130, 131, 132, 133, 134, 135, 136, 137, 138, 139, 140, 141, 142, 143, 144, 145, 146, 147, 148, 149, 150, 151, 152, 153, 154, 155, 156, 157, 158, 159, 160, 161, 162, 163, 164, 165, 166, 167, 168, 169, 170, 171, 172, 173, 174, 175, 176, 177, 178, 179, 180, 181, 182, 183, 184, 185, 186, 187, 188, 189, 190, 191, 192, 193, 194, 195, 196, 197, 198, 199, 200, 201, 202, 203, 204, 205, 206, 207, 208, 209, 210, 211, 212, 213, 214, 215, 216, 217, 218, 219, 220, 221, 222, 223, 224, 225, 226, 227, 228, 229, 230, 231, 232, 233, 234, 235, 236, 237, 238, 239, 240, 241, 242, 243, 244, 245, 246, 247, 248, 249, 250, 251, 252, 253, 254, 255, 256, 257, 258, 259, 260, 261, 262, 263, 264, 265, 266, 267, 268, 269, 270, 271, 272, 273, 274, 275, 276, 277, 278, 279, 280, 281, 282, 283, 284, 285, 286, 287, 288, 289, 290, 291, 292, 293, 294, 295, 296, 297, 298, 299, 300, 301, 302, 303, 304, 305, 306, 307, 308, 309, 310, 311, 312, 313, 314, 315, 316, 317, 318, 319, 320, 321, 322, 323, 324, 325, 326, 327, 328, 329, 330, 331, 332, 333, 334, 335, 336, 337, 338, 339, 340, 341, 342, 343, 344, 345, 346, 347, 348, 349, 350, 351, 352, 353, 354, 355, 356],
      "LargestImagePixelValue": [12477, 12105, 11832, 11748, 11678, 11761, 11801, 12256, 12014, 11729, 11359, 11520, 11413, 11429, 11757, 11523, 11414, 11563, 11606, 11644, 11361, 11458, 11654, 11606, 11342, 11459, 11620, 11453, 11395, 11560, 11435, 11413, 11527, 11382, 11490, 11598, 11577, 11408, 11562, 11597, 11413, 11601, 11541, 11337, 11425, 11481, 11345, 11361, 11655, 11562, 11298, 11579, 11501, 11321, 11585, 11293, 11458, 11595, 11472, 11444, 11482, 11572, 11463, 11556, 11394, 11352, 11606, 11508, 11445, 11608, 11387, 11426, 11497, 11448, 11339, 11477, 11498, 11421, 11503, 11696, 11365, 11457, 11615, 11340, 11514, 11520, 11429, 11348, 11560, 11471, 11316, 11554, 11493, 11343, 11867, 11317, 12980, 12201, 11291, 11212, 11287, 11228, 11249, 11752, 11417, 11520, 11388, 12466, 11428, 11338, 11376, 11349, 11511, 11393, 11658, 11369, 11436, 11499, 11559, 11535, 11368, 11568, 11477, 11471, 11633, 11466, 11428, 11527, 11473, 11404, 11578, 11449, 11491, 11533, 11394, 11378, 11444, 11633, 11379, 11392, 11361, 11359, 11394, 11380, 11275, 11471, 11502, 11348, 11489, 11554, 11404, 11431, 11473, 11412, 11359, 11386, 11394, 11463, 11323, 11464, 11468, 11400, 11462, 11373, 11475, 11409, 11490, 11531, 11532, 11623, 11488, 11446, 11388, 11625, 11502, 11617, 11625, 11397, 11925, 11508, 11473, 11417, 11510, 11510, 11475, 11705, 11502, 11533, 11455, 11472, 11525, 11307, 11458, 11302, 11431, 11509, 11543, 11538, 11580, 11568, 11495, 11547, 11501, 11572, 11581, 11804, 11455, 11451, 11657, 11577, 11765, 11633, 11649, 11445, 11558, 11514, 11576, 11691, 11590, 11722, 11583, 11664, 11630, 11698, 11567, 11539, 11761, 11579, 11678, 11692, 11594, 11747, 11562, 11700, 11749, 11626, 11576, 11649, 11552, 11675, 11579, 11652, 11619, 11570, 11498, 11533, 11502, 11551, 11537, 11884, 12794, 11872, 11699, 11310, 11512, 11234, 10956, 10921, 10924, 10871, 10886, 11118, 11052, 10959, 11084, 11062, 10960, 11055, 11045, 11042, 11164, 11208, 11368, 11248, 11013, 10986, 11118, 11029, 11048, 11291, 11308, 11239, 11807, 11286, 11397, 11262, 11253, 11320, 11421, 11287, 11419, 11428, 11441, 11313, 11430, 11311, 11297, 11230, 11162, 11369, 11174, 11265, 11122, 11286, 11175, 11140, 11233, 11134, 11124, 11345, 11404, 11185, 11225, 11293, 11345, 12004, 11249, 11448, 11155, 11405, 11361, 11539, 11353, 11512, 11565, 11660, 11418, 11501, 11325, 11333, 11347, 11467, 11440, 11376, 11429, 11276, 11480, 11478, 11570, 11558, 11714, 11597, 11539, 11757, 11275, 11426, 11677, 11600, 11507, 11587, 11325, 11380, 11262, 11558, 11395, 11302],
