{
  "AcquisitionMatrixPE": 106,
  "AcquisitionNumber": 1,
  "AcquisitionTime": "10:47:12.070000",
  "BandwidthPerPixelPhaseEncode": 13.477,
  "BaseResolution": 106,
  "BodyPartExamined": "BRAIN",
  "CoilCombinationMethod": "Sum of Squares",
  "ConsistencyInfo": "N4_VE11C_LATEST_20160120",
  "ConversionSoftware": "dcm2niix",
  "ConversionSoftwareVersion": "v1.0.20220720",
  "DerivedVendorReportedEchoSpacing": 0.000700005,
  "DeviceSerialNumber": "166108",
  "DwellTime": 2.6e-06,
  "EchoTime": 0.03,
  "EchoTrainLength": 80,
  "EffectiveEchoSpacing": 0.000700005,
  "FlipAngle": 62,
  "HeudiconvVersion": "1.3.0",
  "ImageComments": "Unaliased MB4/PE3/LB",
  "ImageOrientationPatientDICOM": [1, 0, 0, 0, 0.996779, -0.0801989],
  "ImageOrientationText": "Tra>Cor(-4.6)",
  "ImageType": [
    "ORIGINAL",
    "PRIMARY",
    "M",
    "MB",
    "ND",
    "MOSAIC"
],
  "ImagingFrequency": 123.244,
  "InPlanePhaseEncodingDirectionDICOM": "COL",
  "InstitutionAddress": "Bedford Way 26,London,London,GB,WC1H 0AP",
  "InstitutionName": "University College",
  "InstitutionalDepartmentName": "Department",
  "MRAcquisitionType": "2D",
  "MagneticFieldStrength": 3,
  "Manufacturer": "Siemens",
  "ManufacturersModelName": "Prisma",
  "MatrixCoilMode": "SENSE",
  "Modality": "MR",
  "MultibandAccelerationFactor": 4,
  "NonlinearGradientCorrection": false,
  "PartialFourier": 0.75,
  "PatientPosition": "HFS",
  "PercentPhaseFOV": 100,
  "PercentSampling": 100,
  "PhaseEncodingDirection": "j-",
  "PhaseEncodingSteps": 80,
  "PhaseResolution": 1,
  "PixelBandwidth": 1815,
  "ProcedureStepDescription": "Egor^MovieProject2",
  "ProtocolName": "func-bold_task-motor_run-02",
  "PulseSequenceDetails": "%CustomerSeq%\\cmrr_mbep2d_bold",
  "ReceiveCoilActiveElements": "HEA;HEP",
  "ReceiveCoilName": "Head_32",
  "ReconMatrixPE": 106,
  "RepetitionTime": 1,
  "SAR": 0.0379641,
  "ScanOptions": "PFP\\FS\\EXT",
  "ScanningSequence": "EP",
  "SequenceName": "epfid2d1_106",
  "SequenceVariant": "SK\\SS",
  "SeriesDescription": "func-bold_task-motor_run-02",
  "SeriesNumber": 6,
  "ShimSetting": [-1590, 642, 7405, 234, -71, 131, 185, -13],
  "SliceThickness": 2,
  "SliceTiming": [0, 0.535, 0.09, 0.6225, 0.1775, 0.7125, 0.2675, 0.8025, 0.3575, 0.89, 0.445, 0, 0.535, 0.09, 0.6225, 0.1775, 0.7125, 0.2675, 0.8025, 0.3575, 0.89, 0.445, 0, 0.535, 0.09, 0.6225, 0.1775, 0.7125, 0.2675, 0.8025, 0.3575, 0.89, 0.445, 0, 0.535, 0.09, 0.6225, 0.1775, 0.7125, 0.2675, 0.8025, 0.3575, 0.89, 0.445],
  "SoftwareVersions": "syngo MR E11",
  "SpacingBetweenSlices": 2,
  "StationName": "AWP166108",
  "TaskName": "somatotopy",
  "TotalReadoutTime": 0.0735005,
  "TxRefAmp": 237.05,
  "WipMemBlock": "122b2f35-dafe-4a06-88e8-acc73c3448f0||Sequence: R016 ve11c/master r/e634e98; Dec 19 2017 11:00:25 by eja",
  "dcmmeta_affine": [
    [-2.0, 0.0, 0.0, 106.0],
    [0.0, 1.9935578107833862, -0.16039784252643585, -92.2600326538086],
    [0.0, 0.16039784252643585, 1.9935578107833862, -1.525654673576355],
    [0.0, 0.0, 0.0, 1.0]
],
  "dcmmeta_reorient_transform": [
    [0.0, -1.0, 0.0, 105.0],
    [1.0, 0.0, 0.0, 0.0],
    [0.0, 0.0, 1.0, 0.0],
    [0.0, 0.0, 0.0, 1.0]
],
  "dcmmeta_shape": [106, 106, 44, 469],
  "dcmmeta_slice_dim": 2,
  "dcmmeta_version": 0.6,
  "global": {
    "const": {
      "AcquisitionMatrix": [106, 0, 0, 106],
      "AngioFlag": "N",
      "BitsAllocated": 16,
      "BitsStored": 16,
      "BodyPartExamined": "BRAIN",
      "CardiacNumberOfImages": 1,
      "Columns": 742,
      "EchoNumbers": 1,
      "EchoTime": 30.0,
      "EchoTrainLength": 80,
      "FlipAngle": 62.0,
      "HighBit": 15,
      "ImageOrientationPatient": [1.0, 0.0, 0.0, 0.0, 0.99677887851542, -0.0801989235934],
      "ImagePositionPatient": [-742.0, -751.01489802751, 66.322634742103],
      "ImageType": [
        "ORIGINAL",
        "PRIMARY",
        "M",
        "MB",
        "ND",
        "MOSAIC"
],
      "ImagedNucleus": "1H",
      "ImagingFrequency": 123.243665,
      "InPlanePhaseEncodingDirection": "COL",
      "MRAcquisitionType": "2D",
      "MagneticFieldStrength": 3.0,
      "Manufacturer": "SIEMENS",
      "ManufacturerModelName": "Prisma",
      "Modality": "MR",
      "NominalInterval": 0,
      "NumberOfAverages": 1.0,
      "NumberOfPhaseEncodingSteps": 80,
      "PercentPhaseFieldOfView": 100.0,
      "PercentSampling": 100.0,
      "PerformedProcedureStepStartTime": "101331.827000",
      "PhotometricInterpretation": "MONOCHROME2",
      "PixelBandwidth": 1815.0,
      "PixelRepresentation": 0,
      "PixelSpacing": [2.0, 2.0],
      "ProtocolName": "func-bold_task-motor_run-02",
      "RepetitionTime": 1000.0,
      "Rows": 742,
      "SAR": 0.0379641098658,
      "SamplesPerPixel": 1,
      "ScanOptions": [
        "PFP",
        "FS",
        "EXT"
],
      "ScanningSequence": "EP",
      "SequenceName": "epfid2d1_106",
      "SequenceVariant": [
        "SK",
        "SS"
],
      "SeriesDescription": "func-bold_task-motor_run-02",
      "SeriesNumber": 6,
      "SeriesTime": "104751.789000",
      "SliceLocation": 5.8784150540296,
      "SliceThickness": 2.0,
      "SmallestImagePixelValue": 0,
      "SoftwareVersions": "syngo MR E11",
      "SpacingBetweenSlices": 2.000000006923,
      "SpecificCharacterSet": "ISO_IR 100",
      "StudyID": "1",
      "StudyTime": "101331.761000",
      "TransmitCoilName": "Body",
      "VariableFlipAngleFlag": "N",
      "WindowCenterWidthExplanation": "Algo1",
      "dBdt": 0.0},
    "slices": {}
  },
  "time": {
    "samples": {
      "AcquisitionNumber": [1, 2, 3, 4, 5, 6, 7, 8, 9, 10, 11, 12, 13, 14, 15, 16, 17, 18, 19, 20, 21, 22, 23, 24, 25, 26, 27, 28, 29, 30, 31, 32, 33, 34, 35, 36, 37, 38, 39, 40, 41, 42, 43, 44, 45, 46, 47, 48, 49, 50, 51, 52, 53, 54, 55, 56, 57, 58, 59, 60, 61, 62, 63, 64, 65, 66, 67, 68, 69, 70, 71, 72, 73, 74, 75, 76, 77, 78, 79, 80, 81, 82, 83, 84, 85, 86, 87, 88, 89, 90, 91, 92, 93, 94, 95, 96, 97, 98, 99, 100, 101, 102, 103, 104, 105, 106, 107, 108, 109, 110, 111, 112, 113, 114, 115, 116, 117, 118, 119, 120, 121, 122, 123, 124, 125, 126, 127, 128, 129, 130, 131, 132, 133, 134, 135, 136, 137, 138, 139, 140, 141, 142, 143, 144, 145, 146, 147, 148, 149, 150, 151, 152, 153, 154, 155, 156, 157, 158, 159, 160, 161, 162, 163, 164, 165, 166, 167, 168, 169, 170, 171, 172, 173, 174, 175, 176, 177, 178, 179, 180, 181, 182, 183, 184, 185, 186, 187, 188, 189, 190, 191, 192, 193, 194, 195, 196, 197, 198, 199, 200, 201, 202, 203, 204, 205, 206, 207, 208, 209, 210, 211, 212, 213, 214, 215, 216, 217, 218, 219, 220, 221, 222, 223, 224, 225, 226, 227, 228, 229, 230, 231, 232, 233, 234, 235, 236, 237, 238, 239, 240, 241, 242, 243, 244, 245, 246, 247, 248, 249, 250, 251, 252, 253, 254, 255, 256, 257, 258, 259, 260, 261, 262, 263, 264, 265, 266, 267, 268, 269, 270, 271, 272, 273, 274, 275, 276, 277, 278, 279, 280, 281, 282, 283, 284, 285, 286, 287, 288, 289, 290, 291, 292, 293, 294, 295, 296, 297, 298, 299, 300, 301, 302, 303, 304, 305, 306, 307, 308, 309, 310, 311, 312, 313, 314, 315, 316, 317, 318, 319, 320, 321, 322, 323, 324, 325, 326, 327, 328, 329, 330, 331, 332, 333, 334, 335, 336, 337, 338, 339, 340, 341, 342, 343, 344, 345, 346, 347, 348, 349, 350, 351, 352, 353, 354, 355, 356, 357, 358, 359, 360, 361, 362, 363, 364, 365, 366, 367, 368, 369, 370, 371, 372, 373, 374, 375, 376, 377, 378, 379, 380, 381, 382, 383, 384, 385, 386, 387, 388, 389, 390, 391, 392, 393, 394, 395, 396, 397, 398, 399, 400, 401, 402, 403, 404, 405, 406, 407, 408, 409, 410, 411, 412, 413, 414, 415, 416, 417, 418, 419, 420, 421, 422, 423, 424, 425, 426, 427, 428, 429, 430, 431, 432, 433, 434, 435, 436, 437, 438, 439, 440, 441, 442, 443, 444, 445, 446, 447, 448, 449, 450, 451, 452, 453, 454, 455, 456, 457, 458, 459, 460, 461, 462, 463, 464, 465, 466, 467, 468, 469],
      "AcquisitionTime": ["104712.070000", "104713.070000", "104714.070000", "104715.070000", "104716.070000", "104717.070000", "104718.070000", "104719.070000", "104720.070000", "104721.070000", "104722.070000", "104723.070000", "104724.070000", "104725.070000", "104726.070000", "104727.070000", "104728.070000", "104729.070000", "104730.070000", "104731.070000", "104732.070000", "104733.070000", "104734.070000", "104735.070000", "104736.070000", "104737.070000", "104738.070000", "104739.070000", "104740.070000", "104741.070000", "104742.070000", "104743.070000", "104744.070000", "104745.070000", "104746.070000", "104747.070000", "104748.070000", "104749.070000", "104750.070000", "104751.070000", "104752.070000", "104753.070000", "104754.070000", "104755.070000", "104756.070000", "104757.070000", "104758.070000", "104759.070000", "104800.070000", "104801.070000", "104802.070000", "104803.070000", "104804.070000", "104805.070000", "104806.070000", "104807.070000", "104808.070000", "104809.070000", "104810.070000", "104811.070000", "104812.070000", "104813.070000", "104814.070000", "104815.070000", "104816.070000", "104817.070000", "104818.070000", "104819.070000", "104820.070000", "104821.070000", "104822.070000", "104823.070000", "104824.070000", "104825.070000", "104826.070000", "104827.070000", "104828.070000", "104829.070000", "104830.070000", "104831.070000", "104832.070000", "104833.070000", "104834.070000", "104835.070000", "104836.070000", "104837.070000", "104838.070000", "104839.070000", "104840.070000", "104841.070000", "104842.070000", "104843.070000", "104844.070000", "104845.070000", "104846.070000", "104847.070000", "104848.070000", "104849.070000", "104850.070000", "104851.070000", "104852.070000", "104853.070000", "104854.070000", "104855.070000", "104856.070000", "104857.070000", "104858.070000", "104859.070000", "104900.070000", "104901.070000", "104902.070000", "104903.070000", "104904.070000", "104905.070000", "104906.070000", "104907.070000", "104908.070000", "104909.070000", "104910.070000", "104911.070000", "104912.070000", "104913.070000", "104914.070000", "104915.070000", "104916.070000", "104917.070000", "104918.070000", "104919.070000", "104920.070000", "104921.070000", "104922.070000", "104923.070000", "104924.070000", "104925.070000", "104926.070000", "104927.070000", "104928.070000", "104929.070000", "104930.070000", "104931.070000", "104932.070000", "104933.070000", "104934.070000", "104935.070000", "104936.070000", "104937.070000", "104938.070000", "104939.070000", "104940.070000", "104941.070000", "104942.070000", "104943.070000", "104944.070000", "104945.070000", "104946.070000", "104947.070000", "104948.070000", "104949.070000", "104950.070000", "104951.070000", "104952.070000", "104953.070000", "104954.070000", "104955.070000", "104956.070000", "104957.070000", "104958.070000", "104959.070000", "105000.070000", "105001.070000", "105002.070000", "105003.070000", "105004.070000", "105005.070000", "105006.070000", "105007.070000", "105008.070000", "105009.070000", "105010.070000", "105011.070000", "105012.070000", "105013.070000", "105014.070000", "105015.070000", "105016.070000", "105017.070000", "105018.070000", "105019.070000", "105020.070000", "105021.070000", "105022.070000", "105023.070000", "105024.070000", "105025.070000", "105026.070000", "105027.070000", "105028.070000", "105029.070000", "105030.070000", "105031.070000", "105032.070000", "105033.070000", "105034.070000", "105035.070000", "105036.070000", "105037.070000", "105038.070000", "105039.070000", "105040.070000", "105041.070000", "105042.070000", "105043.070000", "105044.070000", "105045.070000", "105046.070000", "105047.070000", "105048.070000", "105049.070000", "105050.070000", "105051.070000", "105052.070000", "105053.070000", "105054.070000", "105055.070000", "105056.070000", "105057.070000", "105058.070000", "105059.070000", "105100.070000", "105101.070000", "105102.070000", "105103.070000", "105104.070000", "105105.070000", "105106.070000", "105107.070000", "105108.070000", "105109.070000", "105110.070000", "105111.070000", "105112.070000", "105113.070000", "105114.070000", "105115.070000", "105116.070000", "105117.070000", "105118.070000", "105119.070000", "105120.070000", "105121.070000", "105122.070000", "105123.070000", "105124.070000", "105125.070000", "105126.070000", "105127.070000", "105128.070000", "105129.070000", "105130.070000", "105131.070000", "105132.070000", "105133.070000", "105134.070000", "105135.070000", "105136.070000", "105137.070000", "105138.070000", "105139.070000", "105140.070000", "105141.070000", "105142.070000", "105143.070000", "105144.070000", "105145.070000", "105146.070000", "105147.070000", "105148.070000", "105149.070000", "105150.070000", "105151.070000", "105152.070000", "105153.070000", "105154.070000", "105155.070000", "105156.070000", "105157.070000", "105158.070000", "105159.070000", "105200.070000", "105201.070000", "105202.070000", "105203.070000", "105204.070000", "105205.070000", "105206.070000", "105207.070000", "105208.070000", "105209.070000", "105210.070000", "105211.070000", "105212.070000", "105213.070000", "105214.070000", "105215.070000", "105216.070000", "105217.070000", "105218.070000", "105219.070000", "105220.070000", "105221.070000", "105222.070000", "105223.070000", "105224.070000", "105225.070000", "105226.070000", "105227.070000", "105228.070000", "105229.070000", "105230.070000", "105231.070000", "105232.070000", "105233.070000", "105234.070000", "105235.070000", "105236.070000", "105237.070000", "105238.070000", "105239.070000", "105240.070000", "105241.070000", "105242.070000", "105243.070000", "105244.070000", "105245.070000", "105246.070000", "105247.070000", "105248.070000", "105249.070000", "105250.070000", "105251.070000", "105252.070000", "105253.070000", "105254.070000", "105255.070000", "105256.070000", "105257.070000", "105258.070000", "105259.070000", "105300.070000", "105301.070000", "105302.070000", "105303.070000", "105304.070000", "105305.070000", "105306.070000", "105307.070000", "105308.070000", "105309.070000", "105310.070000", "105311.070000", "105312.070000", "105313.070000", "105314.070000", "105315.070000", "105316.070000", "105317.070000", "105318.070000", "105319.070000", "105320.070000", "105321.070000", "105322.070000", "105323.070000", "105324.070000", "105325.070000", "105326.070000", "105327.070000", "105328.070000", "105329.070000", "105330.070000", "105331.070000", "105332.070000", "105333.070000", "105334.070000", "105335.070000", "105336.070000", "105337.070000", "105338.070000", "105339.070000", "105340.070000", "105341.070000", "105342.070000", "105343.070000", "105344.070000", "105345.070000", "105346.070000", "105347.070000", "105348.070000", "105349.070000", "105350.070000", "105351.070000", "105352.070000", "105353.070000", "105354.070000", "105355.070000", "105356.070000", "105357.070000", "105358.070000", "105359.070000", "105400.070000", "105401.070000", "105402.070000", "105403.070000", "105404.070000", "105405.070000", "105406.070000", "105407.070000", "105408.070000", "105409.070000", "105410.070000", "105411.070000", "105412.070000", "105413.070000", "105414.070000", "105415.070000", "105416.070000", "105417.070000", "105418.070000", "105419.070000", "105420.070000", "105421.070000", "105422.070000", "105423.070000", "105424.070000", "105425.070000", "105426.070000", "105427.070000", "105428.070000", "105429.070000", "105430.070000", "105431.070000", "105432.070000", "105433.070000", "105434.070000", "105435.070000", "105436.070000", "105437.070000", "105438.070000", "105439.070000", "105440.070000", "105441.070000", "105442.070000", "105443.070000", "105444.070000", "105445.070000", "105446.070000", "105447.070000", "105448.070000", "105449.070000", "105450.070000", "105451.070000", "105452.070000", "105453.070000", "105454.070000", "105455.070000", "105456.070000", "105457.070000", "105458.070000", "105459.070000", "105500.070000"],
      "ContentTime": ["104751.792000", "104751.795000", "104751.797000", "104751.800000", "104751.802000", "104751.805000", "104751.807000", "104751.810000", "104751.812000", "104751.819000", "104751.821000", "104751.824000", "104751.826000", "104751.829000", "104751.831000", "104751.834000", "104751.836000", "104751.839000", "104751.841000", "104751.849000", "104751.851000", "104751.854000", "104751.856000", "104751.859000", "104751.869000", "104751.871000", "104751.874000", "104751.876000", "104751.879000", "104751.881000", "104751.884000", "104751.886000", "104751.889000", "104751.891000", "104751.894000", "104751.896000", "104751.899000", "104751.901000", "104811.751000", "104811.754000", "104811.757000", "104811.759000", "104811.762000", "104811.772000", "104811.774000", "104811.776000", "104811.779000", "104811.781000", "104811.784000", "104811.786000", "104811.789000", "104811.791000", "104811.794000", "104811.796000", "104811.804000", "104811.806000", "104811.809000", "104811.811000", "104831.752000", "104831.755000", "104831.758000", "104831.760000", "104831.763000", "104831.765000", "104831.768000", "104831.770000", "104831.781000", "104831.784000", "104831.786000", "104831.789000", "104831.791000", "104831.794000", "104831.796000", "104831.799000", "104831.801000", "104831.804000", "104831.806000", "104831.808000", "104851.752000", "104851.755000", "104851.757000", "104851.770000", "104851.773000", "104851.775000", "104851.778000", "104851.780000", "104851.783000", "104851.785000", "104851.788000", "104851.790000", "104851.793000", "104851.795000", "104851.798000", "104851.800000", "104851.803000", "104851.805000", "104851.808000", "104851.810000", "104911.752000", "104911.755000", "104911.757000", "104911.760000", "104911.762000", "104911.765000", "104911.767000", "104911.770000", "104911.772000", "104911.775000", "104911.777000", "104911.780000", "104911.787000", "104911.790000", "104911.792000", "104911.794000", "104911.797000", "104911.800000", "104911.802000", "104911.804000", "104931.751000", "104931.754000", "104931.756000", "104931.759000", "104931.761000", "104931.764000", "104931.766000", "104931.769000", "104931.771000", "104931.774000", "104931.776000", "104931.779000", "104931.781000", "104931.784000", "104931.786000", "104931.789000", "104931.791000", "104931.794000", "104931.796000", "104931.798000", "104951.751000", "104951.754000", "104951.756000", "104951.759000", "104951.761000", "104951.764000", "104951.766000", "104951.769000", "104951.771000", "104951.773000", "104951.776000", "104951.778000", "104951.781000", "104951.783000", "104951.786000", "104951.788000", "104951.791000", "104951.793000", "104951.795000", "104951.798000", "105011.751000", "105011.754000", "105011.756000", "105011.759000", "105011.761000", "105011.764000", "105011.766000", "105011.769000", "105011.771000", "105011.774000", "105011.776000", "105011.779000", "105011.781000", "105011.783000", "105011.786000", "105011.788000", "105011.791000", "105011.793000", "105011.796000", "105011.798000", "105031.751000", "105031.762000", "105031.765000", "105031.767000", "105031.770000", "105031.772000", "105031.775000", "105031.777000", "105031.779000", "105031.782000", "105031.784000", "105031.787000", "105031.789000", "105031.792000", "105031.794000", "105031.796000", "105031.799000", "105031.801000", "105031.804000", "105031.806000", "105051.753000", "105051.755000", "105051.758000", "105051.760000", "105051.763000", "105051.765000", "105051.768000", "105051.770000", "105051.772000", "105051.775000", "105051.777000", "105051.780000", "105051.782000", "105051.785000", "105051.787000", "105051.790000", "105051.792000", "105051.795000", "105051.797000", "105051.799000", "105111.752000", "105111.755000", "105111.758000", "105111.760000", "105111.762000", "105111.765000", "105111.767000", "105111.770000", "105111.772000", "105111.775000", "105111.777000", "105111.780000", "105111.782000", "105111.784000", "105111.787000", "105111.789000", "105111.792000", "105111.794000", "105111.797000", "105111.799000", "105131.753000", "105131.755000", "105131.758000", "105131.760000", "105131.763000", "105131.765000", "105131.767000", "105131.770000", "105131.773000", "105131.775000", "105131.778000", "105131.780000", "105131.783000", "105131.785000", "105131.787000", "105131.790000", "105131.792000", "105131.795000", "105131.797000", "105131.800000", "105151.751000", "105151.754000", "105151.756000", "105151.759000", "105151.761000", "105151.764000", "105151.766000", "105151.769000", "105151.771000", "105151.774000", "105151.776000", "105151.779000", "105151.781000", "105151.783000", "105151.786000", "105151.788000", "105151.791000", "105151.793000", "105151.796000", "105151.798000", "105211.752000", "105211.754000", "105211.757000", "105211.759000", "105211.762000", "105211.764000", "105211.767000", "105211.769000", "105211.771000", "105211.774000", "105211.776000", "105211.779000", "105211.781000", "105211.784000", "105211.786000", "105211.795000", "105211.798000", "105211.800000", "105211.803000", "105211.805000", "105231.751000", "105231.754000", "105231.756000", "105231.759000", "105231.761000", "105231.764000", "105231.766000", "105231.769000", "105231.771000", "105231.773000", "105231.776000", "105231.778000", "105231.781000", "105231.783000", "105231.786000", "105231.788000", "105231.791000", "105231.793000", "105231.795000", "105231.798000", "105251.751000", "105251.754000", "105251.757000", "105251.759000", "105251.761000", "105251.764000", "105251.766000", "105251.769000", "105251.771000", "105251.774000", "105251.776000", "105251.779000", "105251.781000", "105251.784000", "105251.786000", "105251.789000", "105251.791000", "105251.793000", "105251.796000", "105251.798000", "105311.752000", "105311.755000", "105311.757000", "105311.760000", "105311.762000", "105311.765000", "105311.767000", "105311.770000", "105311.772000", "105311.775000", "105311.777000", "105311.780000", "105311.782000", "105311.785000", "105311.787000", "105311.790000", "105311.792000", "105311.794000", "105311.797000", "105311.799000", "105331.752000", "105331.755000", "105331.757000", "105331.760000", "105331.762000", "105331.765000", "105331.767000", "105331.770000", "105331.772000", "105331.775000", "105331.777000", "105331.780000", "105331.782000", "105331.784000", "105331.787000", "105331.789000", "105331.792000", "105331.794000", "105331.797000", "105331.799000", "105351.752000", "105351.755000", "105351.757000", "105351.760000", "105351.762000", "105351.765000", "105351.767000", "105351.769000", "105351.772000", "105351.774000", "105351.777000", "105351.788000", "105351.790000", "105351.793000", "105351.795000", "105351.798000", "105351.800000", "105351.803000", "105351.805000", "105351.808000", "105411.752000", "105411.754000", "105411.757000", "105411.759000", "105411.762000", "105411.764000", "105411.767000", "105411.769000", "105411.772000", "105411.774000", "105411.777000", "105411.779000", "105411.782000", "105411.784000", "105411.787000", "105411.789000", "105411.792000", "105411.794000", "105411.797000", "105411.799000", "105431.751000", "105431.754000", "105431.756000", "105431.759000", "105431.761000", "105431.764000", "105431.766000", "105431.769000", "105431.771000", "105431.774000", "105431.776000", "105431.779000", "105431.781000", "105431.784000", "105431.786000", "105431.789000", "105431.791000", "105431.794000", "105431.796000", "105431.799000", "105451.751000", "105451.754000", "105451.757000", "105451.759000", "105451.762000", "105451.764000", "105451.767000", "105451.769000", "105451.772000", "105451.775000", "105451.777000", "105451.780000", "105451.782000", "105451.785000", "105451.787000", "105451.789000", "105451.792000", "105451.794000", "105451.797000", "105451.799000", "105502.060000", "105502.062000", "105502.065000", "105502.068000", "105502.071000", "105502.073000", "105502.076000", "105502.079000", "105502.082000", "105502.084000", "105502.087000"],
