{
  "AcquisitionMatrixPE": 106,
  "AcquisitionNumber": 1,
  "AcquisitionTime": "11:01:18.190000",
  "BandwidthPerPixelPhaseEncode": 16.846,
  "BaseResolution": 106,
  "BodyPartExamined": "BRAIN",
  "CoilCombinationMethod": "Sum of Squares",
  "ConsistencyInfo": "N4_VE11C_LATEST_20160120",
  "ConversionSoftware": "dcm2niix",
  "ConversionSoftwareVersion": "v1.0.20220720",
  "DerivedVendorReportedEchoSpacing": 0.000560012,
  "DeviceSerialNumber": "166108",
  "DwellTime": 1.8e-06,
  "EchoTime": 0.0352,
  "EchoTrainLength": 106,
  "EffectiveEchoSpacing": 0.000560012,
  "FlipAngle": 60,
  "HeudiconvVersion": "1.3.0",
  "ImageComments": "Unaliased MB4/PE3/LB",
  "ImageOrientationPatientDICOM": [1, 0, 0, 0, 0.940881, -0.338738],
  "ImageOrientationText": "Tra>Cor(-19.8)",
  "ImageType": [
    "ORIGINAL",
    "PRIMARY",
    "M",
    "MB",
    "ND",
    "MOSAIC"
],
  "ImagingFrequency": 123.244,
  "InPlanePhaseEncodingDirectionDICOM": "COL",
  "InstitutionAddress": "Bedford Way 26,London,London,GB,WC1H 0AP",
  "InstitutionName": "University College",
  "InstitutionalDepartmentName": "Department",
  "MRAcquisitionType": "2D",
  "MagneticFieldStrength": 3,
  "Manufacturer": "Siemens",
  "ManufacturersModelName": "Prisma",
  "MatrixCoilMode": "SENSE",
  "Modality": "MR",
  "MultibandAccelerationFactor": 4,
  "NonlinearGradientCorrection": false,
  "PartialFourier": 1,
  "PatientPosition": "HFS",
  "PercentPhaseFOV": 100,
  "PercentSampling": 100,
  "PhaseEncodingDirection": "j-",
  "PhaseEncodingSteps": 106,
  "PhaseResolution": 1,
  "PixelBandwidth": 2620,
  "ProcedureStepDescription": "Egor^MovieProject2",
  "ProtocolName": "func-bold_task-pRF_run-01",
  "PulseSequenceDetails": "%CustomerSeq%\\cmrr_mbep2d_bold",
  "ReceiveCoilActiveElements": "HEA;HEP",
  "ReceiveCoilName": "Head_32",
  "ReconMatrixPE": 106,
  "RepetitionTime": 1,
  "SAR": 0.0680036,
  "ScanOptions": "FS\\EXT",
  "ScanningSequence": "EP",
  "SequenceName": "epfid2d1_106",
  "SequenceVariant": "SK\\SS",
  "SeriesDescription": "func-bold_task-pRF_run-01",
  "SeriesNumber": 10,
  "ShimSetting": [-1602, 651, 7458, 377, -109, 155, 155, -36],
  "SliceThickness": 2,
  "SliceTiming": [0, 0.4075, 0.8175, 0.245, 0.6525, 0.0825, 0.49, 0.8975, 0.3275, 0.735, 0.1625, 0.5725, 0, 0.4075, 0.8175, 0.245, 0.6525, 0.0825, 0.49, 0.8975, 0.3275, 0.735, 0.1625, 0.5725, 0, 0.4075, 0.8175, 0.245, 0.6525, 0.0825, 0.49, 0.8975, 0.3275, 0.735, 0.1625, 0.5725, 0, 0.4075, 0.8175, 0.245, 0.6525, 0.0825, 0.49, 0.8975, 0.3275, 0.735, 0.1625, 0.5725],
  "SoftwareVersions": "syngo MR E11",
  "SpacingBetweenSlices": 2,
  "StationName": "AWP166108",
  "TaskName": "retinotopy",
  "TotalReadoutTime": 0.0588013,
  "TxRefAmp": 237.05,
  "WipMemBlock": "93377ca8-1952-464a-9e18-7ea53586ce1e||Sequence: R016 ve11c/master r/e634e98; Dec 19 2017 11:00:25 by eja",
  "dcmmeta_affine": [
    [-2.0, 0.0, 0.0, 106.0],
    [0.0, 1.8817615509033203, -0.6774758696556091, -73.9116439819336],
    [0.0, 0.6774758696556091, 1.8817615509033203, -32.56821060180664],
    [0.0, 0.0, 0.0, 1.0]
],
  "dcmmeta_reorient_transform": [
    [0.0, -1.0, 0.0, 105.0],
    [1.0, 0.0, 0.0, 0.0],
    [0.0, 0.0, 1.0, 0.0],
    [0.0, 0.0, 0.0, 1.0]
],
  "dcmmeta_shape": [106, 106, 48, 356],
  "dcmmeta_slice_dim": 2,
  "dcmmeta_version": 0.6,
  "global": {
    "const": {
      "AcquisitionMatrix": [106, 0, 0, 106],
      "AngioFlag": "N",
      "BitsAllocated": 16,
      "BitsStored": 16,
      "BodyPartExamined": "BRAIN",
      "CardiacNumberOfImages": 1,
      "Columns": 742,
      "EchoNumbers": 1,
      "EchoTime": 35.2,
      "EchoTrainLength": 106,
      "FlipAngle": 60.0,
      "HighBit": 15,
      "ImageOrientationPatient": [1.0, 0.0, 0.0, 0.0, 0.94088076873196, -0.3387379208627],
      "ImagePositionPatient": [-742.0, -722.0734889715, 254.00406880094],
      "ImageType": [
        "ORIGINAL",
        "PRIMARY",
        "M",
        "MB",
        "ND",
        "MOSAIC"
],
      "ImagedNucleus": "1H",
      "ImagingFrequency": 123.24365,
      "InPlanePhaseEncodingDirection": "COL",
      "MRAcquisitionType": "2D",
      "MagneticFieldStrength": 3.0,
      "Manufacturer": "SIEMENS",
      "ManufacturerModelName": "Prisma",
      "Modality": "MR",
      "NominalInterval": 0,
      "NumberOfAverages": 1.0,
      "NumberOfPhaseEncodingSteps": 106,
      "PercentPhaseFieldOfView": 100.0,
      "PercentSampling": 100.0,
      "PerformedProcedureStepStartTime": "101331.827000",
      "PhotometricInterpretation": "MONOCHROME2",
      "PixelBandwidth": 2620.0,
      "PixelRepresentation": 0,
      "PixelSpacing": [2.0, 2.0],
      "ProtocolName": "func-bold_task-pRF_run-01",
      "RepetitionTime": 1000.0,
      "Rows": 742,
      "SAR": 0.06800362012559,
      "SamplesPerPixel": 1,
      "ScanOptions": [
        "FS",
        "EXT"
],
      "ScanningSequence": "EP",
      "SequenceName": "epfid2d1_106",
      "SequenceVariant": [
        "SK",
        "SS"
],
      "SeriesDescription": "func-bold_task-pRF_run-01",
      "SeriesNumber": 10,
      "SeriesTime": "110202.609000",
      "SliceLocation": -5.6061288497822,
      "SliceThickness": 2.0,
      "SmallestImagePixelValue": 0,
      "SoftwareVersions": "syngo MR E11",
      "SpacingBetweenSlices": 2.0000000174754,
      "SpecificCharacterSet": "ISO_IR 100",
      "StudyID": "1",
      "StudyTime": "101331.761000",
      "TransmitCoilName": "Body",
      "VariableFlipAngleFlag": "N",
      "WindowCenterWidthExplanation": "Algo1",
      "dBdt": 0.0},
    "slices": {}
  },
  "time": {
    "samples": {
      "AcquisitionNumber": [1, 2, 3, 4, 5, 6, 7, 8, 9, 10, 11, 12, 13, 14, 15, 16, 17, 18, 19, 20, 21, 22, 23, 24, 25, 26, 27, 28, 29, 30, 31, 32, 33, 34, 35, 36, 37, 38, 39, 40, 41, 42, 43, 44, 45, 46, 47, 48, 49, 50, 51, 52, 53, 54, 55, 56, 57, 58, 59, 60, 61, 62, 63, 64, 65, 66, 67, 68, 69, 70, 71, 72, 73, 74, 75, 76, 77, 78, 79, 80, 81, 82, 83, 84, 85, 86, 87, 88, 89, 90, 91, 92, 93, 94, 95, 96, 97, 98, 99, 100, 101, 102, 103, 104, 105, 106, 107, 108, 109, 110, 111, 112, 113, 114, 115, 116, 117, 118, 119, 120, 121, 122, 123, 124, 125, 126, 127, 128, 129, 130, 131, 132, 133, 134, 135, 136, 137, 138, 139, 140, 141, 142, 143, 144, 145, 146, 147, 148, 149, 150, 151, 152, 153, 154, 155, 156, 157, 158, 159, 160, 161, 162, 163, 164, 165, 166, 167, 168, 169, 170, 171, 172, 173, 174, 175, 176, 177, 178, 179, 180, 181, 182, 183, 184, 185, 186, 187, 188, 189, 190, 191, 192, 193, 194, 195, 196, 197, 198, 199, 200, 201, 202, 203, 204, 205, 206, 207, 208, 209, 210, 211, 212, 213, 214, 215, 216, 217, 218, 219, 220, 221, 222, 223, 224, 225, 226, 227, 228, 229, 230, 231, 232, 233, 234, 235, 236, 237, 238, 239, 240, 241, 242, 243, 244, 245, 246, 247, 248, 249, 250, 251, 252, 253, 254, 255, 256, 257, 258, 259, 260, 261, 262, 263, 264, 265, 266, 267, 268, 269, 270, 271, 272, 273, 274, 275, 276, 277, 278, 279, 280, 281, 282, 283, 284, 285, 286, 287, 288, 289, 290, 291, 292, 293, 294, 295, 296, 297, 298, 299, 300, 301, 302, 303, 304, 305, 306, 307, 308, 309, 310, 311, 312, 313, 314, 315, 316, 317, 318, 319, 320, 321, 322, 323, 324, 325, 326, 327, 328, 329, 330, 331, 332, 333, 334, 335, 336, 337, 338, 339, 340, 341, 342, 343, 344, 345, 346, 347, 348, 349, 350, 351, 352, 353, 354, 355, 356],
      "AcquisitionTime": ["110118.190000", "110119.190000", "110120.190000", "110121.190000", "110122.190000", "110123.190000", "110124.190000", "110125.190000", "110126.190000", "110127.190000", "110128.190000", "110129.190000", "110130.190000", "110131.190000", "110132.190000", "110133.190000", "110134.190000", "110135.190000", "110136.190000", "110137.190000", "110138.190000", "110139.190000", "110140.190000", "110141.190000", "110142.190000", "110143.190000", "110144.190000", "110145.190000", "110146.190000", "110147.190000", "110148.190000", "110149.190000", "110150.190000", "110151.190000", "110152.190000", "110153.190000", "110154.190000", "110155.190000", "110156.190000", "110157.190000", "110158.190000", "110159.190000", "110200.190000", "110201.190000", "110202.190000", "110203.190000", "110204.190000", "110205.190000", "110206.190000", "110207.190000", "110208.190000", "110209.190000", "110210.190000", "110211.190000", "110212.190000", "110213.190000", "110214.190000", "110215.190000", "110216.190000", "110217.190000", "110218.190000", "110219.190000", "110220.190000", "110221.190000", "110222.190000", "110223.190000", "110224.190000", "110225.190000", "110226.190000", "110227.190000", "110228.190000", "110229.190000", "110230.190000", "110231.190000", "110232.190000", "110233.190000", "110234.190000", "110235.190000", "110236.190000", "110237.190000", "110238.190000", "110239.190000", "110240.190000", "110241.190000", "110242.190000", "110243.190000", "110244.190000", "110245.190000", "110246.190000", "110247.190000", "110248.190000", "110249.190000", "110250.190000", "110251.190000", "110252.190000", "110253.190000", "110254.190000", "110255.190000", "110256.190000", "110257.190000", "110258.190000", "110259.190000", "110300.190000", "110301.190000", "110302.190000", "110303.190000", "110304.190000", "110305.190000", "110306.190000", "110307.190000", "110308.190000", "110309.190000", "110310.190000", "110311.190000", "110312.190000", "110313.190000", "110314.190000", "110315.190000", "110316.190000", "110317.190000", "110318.190000", "110319.190000", "110320.190000", "110321.190000", "110322.190000", "110323.190000", "110324.190000", "110325.190000", "110326.190000", "110327.190000", "110328.190000", "110329.190000", "110330.190000", "110331.190000", "110332.190000", "110333.190000", "110334.190000", "110335.190000", "110336.190000", "110337.190000", "110338.190000", "110339.190000", "110340.190000", "110341.190000", "110342.190000", "110343.190000", "110344.190000", "110345.190000", "110346.190000", "110347.190000", "110348.190000", "110349.190000", "110350.190000", "110351.190000", "110352.190000", "110353.190000", "110354.190000", "110355.190000", "110356.190000", "110357.190000", "110358.190000", "110359.190000", "110400.190000", "110401.190000", "110402.190000", "110403.190000", "110404.190000", "110405.190000", "110406.190000", "110407.190000", "110408.190000", "110409.190000", "110410.190000", "110411.190000", "110412.190000", "110413.190000", "110414.190000", "110415.190000", "110416.190000", "110417.190000", "110418.190000", "110419.190000", "110420.190000", "110421.190000", "110422.190000", "110423.190000", "110424.190000", "110425.190000", "110426.190000", "110427.190000", "110428.190000", "110429.190000", "110430.190000", "110431.190000", "110432.190000", "110433.190000", "110434.190000", "110435.190000", "110436.190000", "110437.190000", "110438.190000", "110439.190000", "110440.190000", "110441.190000", "110442.190000", "110443.190000", "110444.190000", "110445.190000", "110446.190000", "110447.190000", "110448.190000", "110449.190000", "110450.190000", "110451.190000", "110452.190000", "110453.190000", "110454.190000", "110455.190000", "110456.190000", "110457.190000", "110458.190000", "110459.190000", "110500.190000", "110501.190000", "110502.190000", "110503.190000", "110504.190000", "110505.190000", "110506.190000", "110507.190000", "110508.190000", "110509.190000", "110510.190000", "110511.190000", "110512.190000", "110513.190000", "110514.190000", "110515.190000", "110516.190000", "110517.190000", "110518.190000", "110519.190000", "110520.190000", "110521.190000", "110522.190000", "110523.190000", "110524.190000", "110525.190000", "110526.190000", "110527.190000", "110528.190000", "110529.190000", "110530.190000", "110531.190000", "110532.190000", "110533.190000", "110534.190000", "110535.190000", "110536.190000", "110537.190000", "110538.190000", "110539.190000", "110540.190000", "110541.190000", "110542.190000", "110543.190000", "110544.190000", "110545.190000", "110546.190000", "110547.190000", "110548.190000", "110549.190000", "110550.190000", "110551.190000", "110552.190000", "110553.190000", "110554.190000", "110555.190000", "110556.190000", "110557.190000", "110558.190000", "110559.190000", "110600.190000", "110601.190000", "110602.190000", "110603.190000", "110604.190000", "110605.190000", "110606.190000", "110607.190000", "110608.190000", "110609.190000", "110610.190000", "110611.190000", "110612.190000", "110613.190000", "110614.190000", "110615.190000", "110616.190000", "110617.190000", "110618.190000", "110619.190000", "110620.190000", "110621.190000", "110622.190000", "110623.190000", "110624.190000", "110625.190000", "110626.190000", "110627.190000", "110628.190000", "110629.190000", "110630.190000", "110631.190000", "110632.190000", "110633.190000", "110634.190000", "110635.190000", "110636.190000", "110637.190000", "110638.190000", "110639.190000", "110640.190000", "110641.190000", "110642.190000", "110643.190000", "110644.190000", "110645.190000", "110646.190000", "110647.190000", "110648.190000", "110649.190000", "110650.190000", "110651.190000", "110652.190000", "110653.190000", "110654.190000", "110655.190000", "110656.190000", "110657.190000", "110658.190000", "110659.190000", "110700.190000", "110701.190000", "110702.190000", "110703.190000", "110704.190000", "110705.190000", "110706.190000", "110707.190000", "110708.190000", "110709.190000", "110710.190000", "110711.190000", "110712.190000", "110713.190000"],
      "ContentTime": ["110202.611000", "110202.614000", "110202.616000", "110202.619000", "110202.621000", "110202.624000", "110202.626000", "110202.629000", "110202.631000", "110202.633000", "110202.636000", "110202.639000", "110202.641000", "110202.643000", "110202.646000", "110202.648000", "110202.651000", "110202.653000", "110202.656000", "110202.658000", "110202.661000", "110202.663000", "110202.666000", "110202.672000", "110202.675000", "110202.677000", "110202.680000", "110202.682000", "110202.685000", "110202.687000", "110202.690000", "110202.692000", "110202.695000", "110202.697000", "110202.700000", "110202.702000", "110202.705000", "110202.707000", "110202.710000", "110202.712000", "110202.715000", "110202.717000", "110202.720000", "110202.722000", "110222.580000", "110222.582000", "110222.585000", "110222.587000", "110222.590000", "110222.594000", "110222.596000", "110222.599000", "110222.601000", "110222.604000", "110222.606000", "110222.609000", "110222.611000", "110222.614000", "110222.616000", "110222.619000", "110222.621000", "110222.624000", "110222.626000", "110222.629000", "110242.579000", "110242.582000", "110242.584000", "110242.587000", "110242.589000", "110242.592000", "110242.594000", "110242.597000", "110242.599000", "110242.602000", "110242.604000", "110242.607000", "110242.609000", "110242.612000", "110242.614000", "110242.617000", "110242.619000", "110242.622000", "110242.624000", "110242.626000", "110302.579000", "110302.582000", "110302.584000", "110302.587000", "110302.589000", "110302.592000", "110302.594000", "110302.597000", "110302.599000", "110302.602000", "110302.604000", "110302.607000", "110302.609000", "110302.611000", "110302.614000", "110302.616000", "110302.619000", "110302.621000", "110302.624000", "110302.626000", "110322.580000", "110322.583000", "110322.585000", "110322.588000", "110322.590000", "110322.593000", "110322.595000", "110322.598000", "110322.600000", "110322.603000", "110322.605000", "110322.608000", "110322.610000", "110322.613000", "110322.615000", "110322.617000", "110322.620000", "110322.622000", "110322.625000", "110322.627000", "110342.581000", "110342.583000", "110342.586000", "110342.588000", "110342.591000", "110342.593000", "110342.596000", "110342.598000", "110342.601000", "110342.603000", "110342.606000", "110342.608000", "110342.610000", "110342.613000", "110342.616000", "110342.618000", "110342.620000", "110342.623000", "110342.625000", "110342.628000", "110402.580000", "110402.583000", "110402.586000", "110402.588000", "110402.591000", "110402.593000", "110402.596000", "110402.598000", "110402.601000", "110402.603000", "110402.606000", "110402.608000", "110402.611000", "110402.613000", "110402.615000", "110402.618000", "110402.620000", "110402.623000", "110402.625000", "110402.628000", "110422.580000", "110422.583000", "110422.585000", "110422.588000", "110422.590000", "110422.593000", "110422.595000", "110422.598000", "110422.600000", "110422.603000", "110422.605000", "110422.608000", "110422.610000", "110422.613000", "110422.615000", "110422.617000", "110422.620000", "110422.622000", "110422.625000", "110422.627000", "110442.580000", "110442.582000", "110442.585000", "110442.587000", "110442.590000", "110442.592000", "110442.595000", "110442.597000", "110442.600000", "110442.602000", "110442.605000", "110442.607000", "110442.609000", "110442.612000", "110442.614000", "110442.617000", "110442.633000", "110442.636000", "110442.638000", "110442.641000", "110522.579000", "110522.582000", "110522.585000", "110522.587000", "110522.590000", "110522.592000", "110522.595000", "110522.597000", "110522.600000", "110522.602000", "110522.605000", "110522.607000", "110522.610000", "110522.612000", "110522.615000", "110522.617000", "110522.620000", "110522.622000", "110522.625000", "110522.627000", "110522.630000", "110522.632000", "110522.635000", "110522.637000", "110522.640000", "110522.642000", "110522.645000", "110522.647000", "110522.650000", "110522.652000", "110522.655000", "110522.657000", "110522.660000", "110522.662000", "110522.665000", "110522.668000", "110522.670000", "110522.673000", "110522.675000", "110522.678000", "110542.581000", "110542.583000", "110542.586000", "110542.589000", "110542.591000", "110542.594000", "110542.596000", "110542.599000", "110542.601000", "110542.604000", "110542.606000", "110542.609000", "110542.611000", "110542.614000", "110542.616000", "110542.619000", "110542.621000", "110542.623000", "110542.626000", "110542.628000", "110602.580000", "110602.583000", "110602.585000", "110602.588000", "110602.591000", "110602.593000", "110602.595000", "110602.598000", "110602.600000", "110602.603000", "110602.605000", "110602.608000", "110602.610000", "110602.613000", "110602.615000", "110602.618000", "110602.620000", "110602.623000", "110602.625000", "110602.627000", "110622.581000", "110622.583000", "110622.586000", "110622.588000", "110622.591000", "110622.593000", "110622.596000", "110622.599000", "110622.601000", "110622.604000", "110622.606000", "110622.609000", "110622.611000", "110622.614000", "110622.616000", "110622.619000", "110622.621000", "110622.624000", "110622.626000", "110622.628000", "110642.580000", "110642.583000", "110642.585000", "110642.588000", "110642.591000", "110642.593000", "110642.596000", "110642.598000", "110642.601000", "110642.603000", "110642.606000", "110642.608000", "110642.611000", "110642.613000", "110642.616000", "110642.618000", "110642.621000", "110642.623000", "110642.626000", "110642.628000", "110702.579000", "110702.582000", "110702.585000", "110702.587000", "110702.590000", "110702.592000", "110702.595000", "110702.597000", "110702.600000", "110702.602000", "110702.605000", "110702.607000", "110702.610000", "110702.612000", "110702.615000", "110702.617000", "110702.620000", "110702.622000", "110702.625000", "110702.627000", "110714.567000", "110714.570000", "110714.572000", "110714.576000", "110714.578000", "110714.581000", "110714.583000", "110714.586000", "110714.588000", "110714.591000", "110714.593000", "110714.596000"],
      "InstanceCreationTime": ["110202.611000", "110202.614000", "110202.616000", "110202.619000", "110202.621000", "110202.624000", "110202.626000", "110202.629000", "110202.631000", "110202.633000", "110202.636000", "110202.639000", "110202.641000", "110202.643000", "110202.646000", "110202.648000", "110202.651000", "110202.653000", "110202.656000", "110202.658000", "110202.661000", "110202.663000", "110202.666000", "110202.672000", "110202.675000", "110202.677000", "110202.680000", "110202.682000", "110202.685000", "110202.687000", "110202.690000", "110202.692000", "110202.695000", "110202.697000", "110202.700000", "110202.702000", "110202.705000", "110202.707000", "110202.710000", "110202.712000", "110202.715000", "110202.717000", "110202.720000", "110202.722000", "110222.580000", "110222.582000", "110222.585000", "110222.587000", "110222.590000", "110222.594000", "110222.596000", "110222.599000", "110222.601000", "110222.604000", "110222.606000", "110222.609000", "110222.611000", "110222.614000", "110222.616000", "110222.619000", "110222.621000", "110222.624000", "110222.626000", "110222.629000", "110242.579000", "110242.582000", "110242.584000", "110242.587000", "110242.589000", "110242.592000", "110242.594000", "110242.597000", "110242.599000", "110242.602000", "110242.604000", "110242.607000", "110242.609000", "110242.612000", "110242.614000", "110242.617000", "110242.619000", "110242.622000", "110242.624000", "110242.626000", "110302.579000", "110302.582000", "110302.584000", "110302.587000", "110302.589000", "110302.592000", "110302.594000", "110302.597000", "110302.599000", "110302.602000", "110302.604000", "110302.607000", "110302.609000", "110302.611000", "110302.614000", "110302.616000", "110302.619000", "110302.621000", "110302.624000", "110302.626000", "110322.580000", "110322.583000", "110322.585000", "110322.588000", "110322.590000", "110322.593000", "110322.595000", "110322.598000", "110322.600000", "110322.603000", "110322.605000", "110322.608000", "110322.610000", "110322.613000", "110322.615000", "110322.617000", "110322.620000", "110322.622000", "110322.625000", "110322.627000", "110342.581000", "110342.583000", "110342.586000", "110342.588000", "110342.591000", "110342.593000", "110342.596000", "110342.598000", "110342.601000", "110342.603000", "110342.606000", "110342.608000", "110342.610000", "110342.613000", "110342.616000", "110342.618000", "110342.620000", "110342.623000", "110342.625000", "110342.628000", "110402.580000", "110402.583000", "110402.586000", "110402.588000", "110402.591000", "110402.593000", "110402.596000", "110402.598000", "110402.601000", "110402.603000", "110402.606000", "110402.608000", "110402.611000", "110402.613000", "110402.615000", "110402.618000", "110402.620000", "110402.623000", "110402.625000", "110402.628000", "110422.580000", "110422.583000", "110422.585000", "110422.588000", "110422.590000", "110422.593000", "110422.595000", "110422.598000", "110422.600000", "110422.603000", "110422.605000", "110422.608000", "110422.610000", "110422.613000", "110422.615000", "110422.617000", "110422.620000", "110422.622000", "110422.625000", "110422.627000", "110442.580000", "110442.582000", "110442.585000", "110442.587000", "110442.590000", "110442.592000", "110442.595000", "110442.597000", "110442.600000", "110442.602000", "110442.605000", "110442.607000", "110442.609000", "110442.612000", "110442.614000", "110442.617000", "110442.633000", "110442.636000", "110442.638000", "110442.641000", "110522.579000", "110522.582000", "110522.585000", "110522.587000", "110522.590000", "110522.592000", "110522.595000", "110522.597000", "110522.600000", "110522.602000", "110522.605000", "110522.607000", "110522.610000", "110522.612000", "110522.615000", "110522.617000", "110522.620000", "110522.622000", "110522.625000", "110522.627000", "110522.630000", "110522.632000", "110522.635000", "110522.637000", "110522.640000", "110522.642000", "110522.645000", "110522.647000", "110522.650000", "110522.652000", "110522.655000", "110522.657000", "110522.660000", "110522.662000", "110522.665000", "110522.668000", "110522.670000", "110522.673000", "110522.675000", "110522.678000", "110542.581000", "110542.583000", "110542.586000", "110542.589000", "110542.591000", "110542.594000", "110542.596000", "110542.599000", "110542.601000", "110542.604000", "110542.606000", "110542.609000", "110542.611000", "110542.614000", "110542.616000", "110542.619000", "110542.621000", "110542.623000", "110542.626000", "110542.628000", "110602.580000", "110602.583000", "110602.585000", "110602.588000", "110602.591000", "110602.593000", "110602.595000", "110602.598000", "110602.600000", "110602.603000", "110602.605000", "110602.608000", "110602.610000", "110602.613000", "110602.615000", "110602.618000", "110602.620000", "110602.623000", "110602.625000", "110602.627000", "110622.581000", "110622.583000", "110622.586000", "110622.588000", "110622.591000", "110622.593000", "110622.596000", "110622.599000", "110622.601000", "110622.604000", "110622.606000", "110622.609000", "110622.611000", "110622.614000", "110622.616000", "110622.619000", "110622.621000", "110622.624000", "110622.626000", "110622.628000", "110642.580000", "110642.583000", "110642.585000", "110642.588000", "110642.591000", "110642.593000", "110642.596000", "110642.598000", "110642.601000", "110642.603000", "110642.606000", "110642.608000", "110642.611000", "110642.613000", "110642.616000", "110642.618000", "110642.621000", "110642.623000", "110642.626000", "110642.628000", "110702.579000", "110702.582000", "110702.585000", "110702.587000", "110702.590000", "110702.592000", "110702.595000", "110702.597000", "110702.600000", "110702.602000", "110702.605000", "110702.607000", "110702.610000", "110702.612000", "110702.615000", "110702.617000", "110702.620000", "110702.622000", "110702.625000", "110702.627000", "110714.567000", "110714.570000", "110714.572000", "110714.576000", "110714.578000", "110714.581000", "110714.583000", "110714.586000", "110714.588000", "110714.591000", "110714.593000", "110714.596000"],
      "InstanceNumber": [1, 2, 3, 4, 5, 6, 7, 8, 9, 10, 11, 12, 13, 14, 15, 16, 17, 18, 19, 20, 21, 22, 23, 24, 25, 26, 27, 28, 29, 30, 31, 32, 33, 34, 35, 36, 37, 38, 39, 40, 41, 42, 43, 44, 45, 46, 47, 48, 49, 50, 51, 52, 53, 54, 55, 56, 57, 58, 59, 60, 61, 62, 63, 64, 65, 66, 67, 68, 69, 70, 71, 72, 73, 74, 75, 76, 77, 78, 79, 80, 81, 82, 83, 84, 85, 86, 87, 88, 89, 90, 91, 92, 93, 94, 95, 96, 97, 98, 99, 100, 101, 102, 103, 104, 105, 106, 107, 108, 109, 110, 111, 112, 113, 114, 115, 116, 117, 118, 119, 120, 121, 122, 123, 124, 125, 126, 127, 128, 129, 130, 131, 132, 133, 134, 135, 136, 137, 138, 139, 140, 141, 142, 143, 144, 145, 146, 147, 148, 149, 150, 151, 152, 153, 154, 155, 156, 157, 158, 159, 160, 161, 162, 163, 164, 165, 166, 167, 168, 169, 170, 171, 172, 173, 174, 175, 176, 177, 178, 179, 180, 181, 182, 183, 184, 185, 186, 187, 188, 189, 190, 191, 192, 193, 194, 195, 196, 197, 198, 199, 200, 201, 202, 203, 204, 205, 206, 207, 208, 209, 210, 211, 212, 213, 214, 215, 216, 217, 218, 219, 220, 221, 222, 223, 224, 225, 226, 227, 228, 229, 230, 231, 232, 233, 234, 235, 236, 237, 238, 239, 240, 241, 242, 243, 244, 245, 246, 247, 248, 249, 250, 251, 252, 253, 254, 255, 256, 257, 258, 259, 260, 261, 262, 263, 264, 265, 266, 267, 268, 269, 270, 271, 272, 273, 274, 275, 276, 277, 278, 279, 280, 281, 282, 283, 284, 285, 286, 287, 288, 289, 290, 291, 292, 293, 294, 295, 296, 297, 298, 299, 300, 301, 302, 303, 304, 305, 306, 307, 308, 309, 310, 311, 312, 313, 314, 315, 316, 317, 318, 319, 320, 321, 322, 323, 324, 325, 326, 327, 328, 329, 330, 331, 332, 333, 334, 335, 336, 337, 338, 339, 340, 341, 342, 343, 344, 345, 346, 347, 348, 349, 350, 351, 352, 353, 354, 355, 356],
      "LargestImagePixelValue": [12840, 12431, 12108, 11913, 12051, 12126, 11847, 12028, 12132, 12123, 12041, 12133, 12048, 11975, 11933, 11843, 11928, 11848, 11942, 12049, 12078, 12021, 12254, 11920, 12171, 12053, 11941, 12013, 12003, 11746, 12003, 12252, 12132, 12128, 12212, 11914, 12004, 12140, 11874, 12206, 11982, 11889, 12106, 12056, 11828, 12087, 12056, 12143, 12050, 11856, 11944, 11859, 11755, 11859, 11971, 11907, 12028, 11890, 11918, 12056, 12053, 11887, 12101, 11993, 11968, 12122, 12124, 11873, 11995, 11992, 12107, 12031, 11981, 12130, 11961, 11770, 11843, 12084, 11967, 12247, 12029, 12097, 12089, 11836, 11942, 12104, 11913, 12050, 12085, 11918, 12181, 12092, 11922, 12020, 11977, 11938, 11955, 12008, 12060, 12116, 12004, 12070, 11959, 12134, 11951, 11957, 12039, 11983, 11800, 11782, 11866, 11748, 11599, 11941, 11881, 11938, 11908, 11802, 11855, 11854, 12043, 12058, 11950, 11842, 11932, 11883, 11699, 11793, 11859, 11989, 11881, 11923, 11866, 11962, 11810, 12103, 11975, 11980, 11894, 11842, 11897, 11846, 12106, 12084, 11783, 11976, 11882, 11862, 12025, 12045, 11869, 11980, 11804, 11830, 11920, 12093, 11862, 11730, 11899, 11838, 11793, 11836, 11778, 11817, 11854, 11808, 11981, 11977, 11818, 11832, 11834, 11842, 11770, 11850, 11924, 11824, 11956, 11804, 11882, 11874, 11678, 11759, 11827, 11760, 11820, 11826, 11734, 11838, 11876, 11822, 11790, 11747, 11805, 11885, 11763, 11777, 11817, 11770, 11774, 11755, 11682, 11846, 11849, 11745, 11851, 11949, 11779, 11846, 11877, 11792, 11883, 11896, 12041, 11852, 11885, 11769, 11825, 11865, 11776, 11822, 11884, 11795, 11865, 11948, 11847, 11912, 11810, 11773, 11796, 11871, 11830, 11757, 12213, 12008, 11897, 12022, 12050, 11888, 11838, 11657, 11707, 11658, 11786, 11852, 11872, 11789, 11792, 11690, 11784, 11662, 11760, 11761, 11887, 11877, 11952, 11912, 11951, 11788, 11861, 11969, 11837, 11972, 11945, 11866, 11957, 11960, 11786, 11979, 11823, 11905, 11945, 11862, 11817, 12008, 11888, 11803, 11925, 11946, 12031, 12049, 12003, 11975, 11812, 11831, 11841, 11919, 11898, 11980, 11774, 11944, 11920, 11802, 11777, 11837, 11940, 11865, 11789, 11766, 11886, 11801, 11830, 11830, 11806, 11993, 11834, 12147, 11974, 11859, 11922, 11927, 11796, 11842, 11711, 11759, 11913, 11832, 11891, 11973, 11788, 11818, 11860, 11709, 11937, 11752, 11772, 11877, 11795, 11854, 11863, 11948, 11911, 11866, 11861, 11940, 11927, 11737, 11960, 11934, 11914, 12030, 11895, 11889, 11897, 12026, 11868, 11882, 11978, 12018, 11781, 11864, 11933, 11747, 11937, 12104, 12019, 11854],
