{
  "AcquisitionMatrixPE": 106,
  "AcquisitionNumber": 1,
  "AcquisitionTime": "11:33:39.985000",
  "BandwidthPerPixelPhaseEncode": 13.477,
  "BaseResolution": 106,
  "BodyPartExamined": "BRAIN",
  "CoilCombinationMethod": "Sum of Squares",
  "ConsistencyInfo": "N4_VE11C_LATEST_20160120",
  "ConversionSoftware": "dcm2niix",
  "ConversionSoftwareVersion": "v1.0.20220720",
  "DerivedVendorReportedEchoSpacing": 0.000700005,
  "DeviceSerialNumber": "166108",
  "DwellTime": 2.6e-06,
  "EchoTime": 0.03,
  "EchoTrainLength": 80,
  "EffectiveEchoSpacing": 0.000700005,
  "FlipAngle": 62,
  "HeudiconvVersion": "1.3.0",
  "ImageComments": "Unaliased MB4/PE3/LB",
  "ImageOrientationPatientDICOM": [1, 0, 0, 0, 0.91496, -0.403545],
  "ImageOrientationText": "Tra>Cor(-23.8)",
  "ImageType": [
    "ORIGINAL",
    "PRIMARY",
    "M",
    "MB",
    "ND",
    "MOSAIC"
],
  "ImagingFrequency": 123.244,
  "InPlanePhaseEncodingDirectionDICOM": "COL",
  "InstitutionAddress": "Bedford Way 26,London,London,GB,WC1H 0AP",
  "InstitutionName": "University College",
  "InstitutionalDepartmentName": "Department",
  "MRAcquisitionType": "2D",
  "MagneticFieldStrength": 3,
  "Manufacturer": "Siemens",
  "ManufacturersModelName": "Prisma",
  "MatrixCoilMode": "SENSE",
  "Modality": "MR",
  "MultibandAccelerationFactor": 4,
  "NonlinearGradientCorrection": false,
  "PartialFourier": 0.75,
  "PatientPosition": "HFS",
  "PercentPhaseFOV": 100,
  "PercentSampling": 100,
  "PhaseEncodingDirection": "j-",
  "PhaseEncodingSteps": 80,
  "PhaseResolution": 1,
  "PixelBandwidth": 1815,
  "ProcedureStepDescription": "Egor^MovieProject2",
  "ProtocolName": "func-bold_task-tono_run-02",
  "PulseSequenceDetails": "%CustomerSeq%\\cmrr_mbep2d_bold",
  "ReceiveCoilActiveElements": "HEA;HEP",
  "ReceiveCoilName": "Head_32",
  "ReconMatrixPE": 106,
  "RepetitionTime": 1,
  "SAR": 0.0378366,
  "ScanOptions": "PFP\\FS\\EXT",
  "ScanningSequence": "EP",
  "SequenceName": "epfid2d1_106",
  "SequenceVariant": "SK\\SS",
  "SeriesDescription": "func-bold_task-tono_run-02",
  "SeriesNumber": 20,
  "ShimSetting": [-1588, 646, 7486, 518, -89, 66, 196, -12],
  "SliceThickness": 2,
  "SliceTiming": [0, 0.535, 0.0875, 0.6225, 0.1775, 0.7125, 0.2675, 0.8, 0.355, 0.89, 0.445, 0, 0.535, 0.0875, 0.6225, 0.1775, 0.7125, 0.2675, 0.8, 0.355, 0.89, 0.445, 0, 0.535, 0.0875, 0.6225, 0.1775, 0.7125, 0.2675, 0.8, 0.355, 0.89, 0.445, 0, 0.535, 0.0875, 0.6225, 0.1775, 0.7125, 0.2675, 0.8, 0.355, 0.89, 0.445],
  "SoftwareVersions": "syngo MR E11",
  "SpacingBetweenSlices": 2,
  "StationName": "AWP166108",
  "TaskName": "tonotopy",
  "TotalReadoutTime": 0.0735005,
  "TxRefAmp": 237.05,
  "WipMemBlock": "f04aa2f6-18a1-4414-951a-37ae2a9527b5||Sequence: R016 ve11c/master r/e634e98; Dec 19 2017 11:00:25 by eja",
  "dcmmeta_affine": [
    [-2.0, 0.0, 0.0, 106.0],
    [0.0, 1.8299193382263184, -0.8070906400680542, -66.14573669433594],
    [0.0, 0.8070906400680542, 1.8299193382263184, -62.47882843017578],
    [0.0, 0.0, 0.0, 1.0]
],
  "dcmmeta_reorient_transform": [
    [0.0, -1.0, 0.0, 105.0],
    [1.0, 0.0, 0.0, 0.0],
    [0.0, 0.0, 1.0, 0.0],
    [0.0, 0.0, 0.0, 1.0]
],
  "dcmmeta_shape": [106, 106, 44, 264],
  "dcmmeta_slice_dim": 2,
  "dcmmeta_version": 0.6,
  "global": {
    "const": {
      "AcquisitionMatrix": [106, 0, 0, 106],
      "AngioFlag": "N",
      "BitsAllocated": 16,
      "BitsStored": 16,
      "BodyPartExamined": "BRAIN",
      "CardiacNumberOfImages": 1,
      "Columns": 742,
      "EchoNumbers": 1,
      "EchoTime": 30.0,
      "EchoTrainLength": 80,
      "FlipAngle": 62.0,
      "HighBit": 15,
      "ImageOrientationPatient": [1.0, 0.0, 0.0, 0.0, 0.91495965822336, -0.4035453181785],
      "ImagePositionPatient": [-742.0, -707.91013529517, 278.92051141866],
      "ImageType": [
        "ORIGINAL",
        "PRIMARY",
        "M",
        "MB",
        "ND",
        "MOSAIC"
],
      "ImagedNucleus": "1H",
      "ImagingFrequency": 123.243653,
      "InPlanePhaseEncodingDirection": "COL",
      "MRAcquisitionType": "2D",
      "MagneticFieldStrength": 3.0,
      "Manufacturer": "SIEMENS",
      "ManufacturerModelName": "Prisma",
      "Modality": "MR",
      "NominalInterval": 0,
      "NumberOfAverages": 1.0,
      "NumberOfPhaseEncodingSteps": 80,
      "PercentPhaseFieldOfView": 100.0,
      "PercentSampling": 100.0,
      "PerformedProcedureStepStartTime": "101331.827000",
      "PhotometricInterpretation": "MONOCHROME2",
      "PixelBandwidth": 1815.0,
      "PixelRepresentation": 0,
      "PixelSpacing": [2.0, 2.0],
      "ProtocolName": "func-bold_task-tono_run-02",
      "RepetitionTime": 1000.0,
      "Rows": 742,
      "SAR": 0.03783659969836,
      "SamplesPerPixel": 1,
      "ScanOptions": [
        "PFP",
        "FS",
        "EXT"
],
      "ScanningSequence": "EP",
      "SequenceName": "epfid2d1_106",
      "SequenceVariant": [
        "SK",
        "SS"
],
      "SeriesDescription": "func-bold_task-tono_run-02",
      "SeriesNumber": 20,
      "SeriesTime": "113411.838000",
      "SliceLocation": -30.472804990383,
      "SliceThickness": 2.0,
      "SmallestImagePixelValue": 0,
      "SoftwareVersions": "syngo MR E11",
      "SpacingBetweenSlices": 2.0000000328448,
      "SpecificCharacterSet": "ISO_IR 100",
      "StudyID": "1",
      "StudyTime": "101331.761000",
      "TransmitCoilName": "Body",
      "VariableFlipAngleFlag": "N",
      "WindowCenterWidthExplanation": "Algo1",
      "dBdt": 0.0},
    "slices": {}
  },
  "time": {
    "samples": {
      "AcquisitionNumber": [1, 2, 3, 4, 5, 6, 7, 8, 9, 10, 11, 12, 13, 14, 15, 16, 17, 18, 19, 20, 21, 22, 23, 24, 25, 26, 27, 28, 29, 30, 31, 32, 33, 34, 35, 36, 37, 38, 39, 40, 41, 42, 43, 44, 45, 46, 47, 48, 49, 50, 51, 52, 53, 54, 55, 56, 57, 58, 59, 60, 61, 62, 63, 64, 65, 66, 67, 68, 69, 70, 71, 72, 73, 74, 75, 76, 77, 78, 79, 80, 81, 82, 83, 84, 85, 86, 87, 88, 89, 90, 91, 92, 93, 94, 95, 96, 97, 98, 99, 100, 101, 102, 103, 104, 105, 106, 107, 108, 109, 110, 111, 112, 113, 114, 115, 116, 117, 118, 119, 120, 121, 122, 123, 124, 125, 126, 127, 128, 129, 130, 131, 132, 133, 134, 135, 136, 137, 138, 139, 140, 141, 142, 143, 144, 145, 146, 147, 148, 149, 150, 151, 152, 153, 154, 155, 156, 157, 158, 159, 160, 161, 162, 163, 164, 165, 166, 167, 168, 169, 170, 171, 172, 173, 174, 175, 176, 177, 178, 179, 180, 181, 182, 183, 184, 185, 186, 187, 188, 189, 190, 191, 192, 193, 194, 195, 196, 197, 198, 199, 200, 201, 202, 203, 204, 205, 206, 207, 208, 209, 210, 211, 212, 213, 214, 215, 216, 217, 218, 219, 220, 221, 222, 223, 224, 225, 226, 227, 228, 229, 230, 231, 232, 233, 234, 235, 236, 237, 238, 239, 240, 241, 242, 243, 244, 245, 246, 247, 248, 249, 250, 251, 252, 253, 254, 255, 256, 257, 258, 259, 260, 261, 262, 263, 264],
      "AcquisitionTime": ["113339.985000", "113340.985000", "113341.985000", "113342.985000", "113343.985000", "113344.985000", "113345.985000", "113346.985000", "113347.985000", "113348.985000", "113349.985000", "113350.985000", "113351.985000", "113352.985000", "113353.985000", "113354.985000", "113355.985000", "113356.985000", "113357.985000", "113358.985000", "113359.985000", "113400.985000", "113401.985000", "113402.985000", "113403.985000", "113404.985000", "113405.985000", "113406.985000", "113407.985000", "113408.985000", "113409.985000", "113410.985000", "113411.985000", "113412.985000", "113413.985000", "113414.985000", "113415.985000", "113416.985000", "113417.985000", "113418.985000", "113419.985000", "113420.985000", "113421.985000", "113422.985000", "113423.985000", "113424.985000", "113425.985000", "113426.985000", "113427.985000", "113428.985000", "113429.985000", "113430.985000", "113431.985000", "113432.985000", "113433.985000", "113434.985000", "113435.985000", "113436.985000", "113437.985000", "113438.985000", "113439.985000", "113440.985000", "113441.985000", "113442.985000", "113443.985000", "113444.985000", "113445.985000", "113446.985000", "113447.985000", "113448.985000", "113449.985000", "113450.985000", "113451.985000", "113452.985000", "113453.985000", "113454.985000", "113455.985000", "113456.985000", "113457.985000", "113458.985000", "113459.985000", "113500.985000", "113501.985000", "113502.985000", "113503.985000", "113504.985000", "113505.985000", "113506.985000", "113507.985000", "113508.985000", "113509.985000", "113510.985000", "113511.985000", "113512.985000", "113513.985000", "113514.985000", "113515.985000", "113516.985000", "113517.985000", "113518.985000", "113519.985000", "113520.985000", "113521.985000", "113522.985000", "113523.985000", "113524.985000", "113525.985000", "113526.985000", "113527.985000", "113528.985000", "113529.985000", "113530.985000", "113531.985000", "113532.985000", "113533.985000", "113534.985000", "113535.985000", "113536.985000", "113537.985000", "113538.985000", "113539.985000", "113540.985000", "113541.985000", "113542.985000", "113543.985000", "113544.985000", "113545.985000", "113546.985000", "113547.985000", "113548.985000", "113549.985000", "113550.985000", "113551.985000", "113552.985000", "113553.985000", "113554.985000", "113555.985000", "113556.985000", "113557.985000", "113558.985000", "113559.985000", "113600.985000", "113601.985000", "113602.985000", "113603.985000", "113604.985000", "113605.985000", "113606.985000", "113607.985000", "113608.985000", "113609.985000", "113610.985000", "113611.985000", "113612.985000", "113613.985000", "113614.985000", "113615.985000", "113616.985000", "113617.985000", "113618.985000", "113619.985000", "113620.985000", "113621.985000", "113622.985000", "113623.985000", "113624.985000", "113625.985000", "113626.985000", "113627.985000", "113628.985000", "113629.985000", "113630.985000", "113631.985000", "113632.985000", "113633.985000", "113634.985000", "113635.985000", "113636.985000", "113637.985000", "113638.985000", "113639.985000", "113640.985000", "113641.985000", "113642.985000", "113643.985000", "113644.985000", "113645.985000", "113646.985000", "113647.985000", "113648.985000", "113649.985000", "113650.985000", "113651.985000", "113652.985000", "113653.985000", "113654.985000", "113655.985000", "113656.985000", "113657.985000", "113658.985000", "113659.985000", "113700.985000", "113701.985000", "113702.985000", "113703.985000", "113704.985000", "113705.985000", "113706.985000", "113707.985000", "113708.985000", "113709.985000", "113710.985000", "113711.985000", "113712.985000", "113713.985000", "113714.985000", "113715.985000", "113716.985000", "113717.985000", "113718.985000", "113719.985000", "113720.985000", "113721.985000", "113722.985000", "113723.985000", "113724.985000", "113725.985000", "113726.985000", "113727.985000", "113728.985000", "113729.985000", "113730.985000", "113731.985000", "113732.985000", "113733.985000", "113734.985000", "113735.985000", "113736.985000", "113737.985000", "113738.985000", "113739.985000", "113740.985000", "113741.985000", "113742.985000", "113743.985000", "113744.985000", "113745.985000", "113746.985000", "113747.985000", "113748.985000", "113749.985000", "113750.985000", "113751.985000", "113752.985000", "113753.985000", "113754.985000", "113755.985000", "113756.985000", "113757.985000", "113758.985000", "113759.985000", "113800.985000", "113801.985000", "113802.985000"],
      "ContentTime": ["113411.841000", "113411.853000", "113411.856000", "113411.859000", "113411.862000", "113411.871000", "113411.874000", "113411.878000", "113411.880000", "113411.883000", "113411.885000", "113411.888000", "113411.890000", "113411.904000", "113411.906000", "113411.909000", "113411.911000", "113411.914000", "113411.916000", "113411.919000", "113411.921000", "113411.924000", "113411.926000", "113411.929000", "113411.931000", "113411.934000", "113411.936000", "113411.939000", "113411.941000", "113411.944000", "113431.814000", "113431.817000", "113431.820000", "113431.822000", "113431.825000", "113431.827000", "113431.830000", "113431.832000", "113431.835000", "113431.837000", "113431.840000", "113431.842000", "113431.845000", "113431.847000", "113431.850000", "113431.853000", "113431.856000", "113431.859000", "113431.875000", "113431.878000", "113451.815000", "113451.818000", "113451.820000", "113451.823000", "113451.826000", "113451.828000", "113451.831000", "113451.833000", "113451.836000", "113451.838000", "113451.841000", "113451.843000", "113451.855000", "113451.857000", "113451.861000", "113451.864000", "113451.867000", "113451.869000", "113451.872000", "113451.875000", "113511.815000", "113511.818000", "113511.820000", "113511.823000", "113511.826000", "113511.828000", "113511.830000", "113511.833000", "113511.836000", "113511.838000", "113511.841000", "113511.843000", "113511.846000", "113511.848000", "113511.850000", "113511.853000", "113511.855000", "113511.858000", "113511.860000", "113511.863000", "113531.815000", "113531.818000", "113531.820000", "113531.823000", "113531.825000", "113531.828000", "113531.830000", "113531.833000", "113531.835000", "113531.838000", "113531.840000", "113531.842000", "113531.845000", "113531.847000", "113531.850000", "113531.852000", "113531.855000", "113531.857000", "113531.860000", "113531.863000", "113551.814000", "113551.817000", "113551.820000", "113551.822000", "113551.825000", "113551.827000", "113551.830000", "113551.832000", "113551.834000", "113551.837000", "113551.839000", "113551.842000", "113551.844000", "113551.847000", "113551.849000", "113551.851000", "113551.854000", "113551.856000", "113551.859000", "113551.862000", "113611.814000", "113611.817000", "113611.820000", "113611.822000", "113611.824000", "113611.827000", "113611.829000", "113611.832000", "113611.835000", "113611.837000", "113611.840000", "113611.842000", "113611.844000", "113611.847000", "113611.849000", "113611.852000", "113611.854000", "113611.857000", "113611.860000", "113611.862000", "113631.814000", "113631.817000", "113631.819000", "113631.822000", "113631.824000", "113631.827000", "113631.829000", "113631.832000", "113631.834000", "113631.836000", "113631.839000", "113631.841000", "113631.844000", "113631.846000", "113631.849000", "113631.852000", "113631.855000", "113631.858000", "113631.860000", "113631.864000", "113651.814000", "113651.817000", "113651.819000", "113651.822000", "113651.824000", "113651.827000", "113651.829000", "113651.832000", "113651.834000", "113651.837000", "113651.839000", "113651.842000", "113651.844000", "113651.847000", "113651.849000", "113651.852000", "113651.854000", "113651.857000", "113651.859000", "113651.862000", "113711.815000", "113711.818000", "113711.820000", "113711.823000", "113711.825000", "113711.828000", "113711.830000", "113711.833000", "113711.835000", "113711.838000", "113711.840000", "113711.842000", "113711.845000", "113711.847000", "113711.850000", "113711.852000", "113711.855000", "113711.857000", "113711.860000", "113711.862000", "113731.818000", "113731.820000", "113731.823000", "113731.825000", "113731.828000", "113731.830000", "113731.833000", "113731.835000", "113731.838000", "113731.840000", "113731.843000", "113731.845000", "113731.847000", "113731.850000", "113731.852000", "113731.855000", "113731.857000", "113731.860000", "113731.862000", "113731.865000", "113751.815000", "113751.818000", "113751.821000", "113751.823000", "113751.826000", "113751.829000", "113751.831000", "113751.834000", "113751.836000", "113751.839000", "113751.841000", "113751.844000", "113751.846000", "113751.849000", "113751.852000", "113751.855000", "113751.858000", "113751.861000", "113751.863000", "113751.866000", "113804.917000", "113804.920000", "113804.923000", "113804.925000", "113804.928000", "113804.931000", "113804.933000", "113804.936000", "113804.940000", "113804.943000", "113804.946000", "113804.948000", "113804.951000", "113804.955000"],
      "InstanceCreationTime": ["113411.841000", "113411.853000", "113411.856000", "113411.859000", "113411.862000", "113411.871000", "113411.874000", "113411.878000", "113411.880000", "113411.883000", "113411.885000", "113411.888000", "113411.890000", "113411.904000", "113411.906000", "113411.909000", "113411.911000", "113411.914000", "113411.916000", "113411.919000", "113411.921000", "113411.924000", "113411.926000", "113411.929000", "113411.931000", "113411.934000", "113411.936000", "113411.939000", "113411.941000", "113411.944000", "113431.814000", "113431.817000", "113431.820000", "113431.822000", "113431.825000", "113431.827000", "113431.830000", "113431.832000", "113431.835000", "113431.837000", "113431.840000", "113431.842000", "113431.845000", "113431.847000", "113431.850000", "113431.853000", "113431.856000", "113431.859000", "113431.875000", "113431.878000", "113451.815000", "113451.818000", "113451.820000", "113451.823000", "113451.826000", "113451.828000", "113451.831000", "113451.833000", "113451.836000", "113451.838000", "113451.841000", "113451.843000", "113451.855000", "113451.857000", "113451.861000", "113451.864000", "113451.867000", "113451.869000", "113451.872000", "113451.875000", "113511.815000", "113511.818000", "113511.820000", "113511.823000", "113511.826000", "113511.828000", "113511.830000", "113511.833000", "113511.836000", "113511.838000", "113511.841000", "113511.843000", "113511.846000", "113511.848000", "113511.850000", "113511.853000", "113511.855000", "113511.858000", "113511.860000", "113511.863000", "113531.815000", "113531.818000", "113531.820000", "113531.823000", "113531.825000", "113531.828000", "113531.830000", "113531.833000", "113531.835000", "113531.838000", "113531.840000", "113531.842000", "113531.845000", "113531.847000", "113531.850000", "113531.852000", "113531.855000", "113531.857000", "113531.860000", "113531.863000", "113551.814000", "113551.817000", "113551.820000", "113551.822000", "113551.825000", "113551.827000", "113551.830000", "113551.832000", "113551.834000", "113551.837000", "113551.839000", "113551.842000", "113551.844000", "113551.847000", "113551.849000", "113551.851000", "113551.854000", "113551.856000", "113551.859000", "113551.862000", "113611.814000", "113611.817000", "113611.820000", "113611.822000", "113611.824000", "113611.827000", "113611.829000", "113611.832000", "113611.835000", "113611.837000", "113611.840000", "113611.842000", "113611.844000", "113611.847000", "113611.849000", "113611.852000", "113611.854000", "113611.857000", "113611.860000", "113611.862000", "113631.814000", "113631.817000", "113631.819000", "113631.822000", "113631.824000", "113631.827000", "113631.829000", "113631.832000", "113631.834000", "113631.836000", "113631.839000", "113631.841000", "113631.844000", "113631.846000", "113631.849000", "113631.852000", "113631.855000", "113631.858000", "113631.860000", "113631.864000", "113651.814000", "113651.817000", "113651.819000", "113651.822000", "113651.824000", "113651.827000", "113651.829000", "113651.832000", "113651.834000", "113651.837000", "113651.839000", "113651.842000", "113651.844000", "113651.847000", "113651.849000", "113651.852000", "113651.854000", "113651.857000", "113651.859000", "113651.862000", "113711.815000", "113711.818000", "113711.820000", "113711.823000", "113711.825000", "113711.828000", "113711.830000", "113711.833000", "113711.835000", "113711.838000", "113711.840000", "113711.842000", "113711.845000", "113711.847000", "113711.850000", "113711.852000", "113711.855000", "113711.857000", "113711.860000", "113711.862000", "113731.818000", "113731.820000", "113731.823000", "113731.825000", "113731.828000", "113731.830000", "113731.833000", "113731.835000", "113731.838000", "113731.840000", "113731.843000", "113731.845000", "113731.847000", "113731.850000", "113731.852000", "113731.855000", "113731.857000", "113731.860000", "113731.862000", "113731.865000", "113751.815000", "113751.818000", "113751.821000", "113751.823000", "113751.826000", "113751.829000", "113751.831000", "113751.834000", "113751.836000", "113751.839000", "113751.841000", "113751.844000", "113751.846000", "113751.849000", "113751.852000", "113751.855000", "113751.858000", "113751.861000", "113751.863000", "113751.866000", "113804.917000", "113804.920000", "113804.923000", "113804.925000", "113804.928000", "113804.931000", "113804.933000", "113804.936000", "113804.940000", "113804.943000", "113804.946000", "113804.948000", "113804.951000", "113804.955000"],
      "InstanceNumber": [1, 2, 3, 4, 5, 6, 7, 8, 9, 10, 11, 12, 13, 14, 15, 16, 17, 18, 19, 20, 21, 22, 23, 24, 25, 26, 27, 28, 29, 30, 31, 32, 33, 34, 35, 36, 37, 38, 39, 40, 41, 42, 43, 44, 45, 46, 47, 48, 49, 50, 51, 52, 53, 54, 55, 56, 57, 58, 59, 60, 61, 62, 63, 64, 65, 66, 67, 68, 69, 70, 71, 72, 73, 74, 75, 76, 77, 78, 79, 80, 81, 82, 83, 84, 85, 86, 87, 88, 89, 90, 91, 92, 93, 94, 95, 96, 97, 98, 99, 100, 101, 102, 103, 104, 105, 106, 107, 108, 109, 110, 111, 112, 113, 114, 115, 116, 117, 118, 119, 120, 121, 122, 123, 124, 125, 126, 127, 128, 129, 130, 131, 132, 133, 134, 135, 136, 137, 138, 139, 140, 141, 142, 143, 144, 145, 146, 147, 148, 149, 150, 151, 152, 153, 154, 155, 156, 157, 158, 159, 160, 161, 162, 163, 164, 165, 166, 167, 168, 169, 170, 171, 172, 173, 174, 175, 176, 177, 178, 179, 180, 181, 182, 183, 184, 185, 186, 187, 188, 189, 190, 191, 192, 193, 194, 195, 196, 197, 198, 199, 200, 201, 202, 203, 204, 205, 206, 207, 208, 209, 210, 211, 212, 213, 214, 215, 216, 217, 218, 219, 220, 221, 222, 223, 224, 225, 226, 227, 228, 229, 230, 231, 232, 233, 234, 235, 236, 237, 238, 239, 240, 241, 242, 243, 244, 245, 246, 247, 248, 249, 250, 251, 252, 253, 254, 255, 256, 257, 258, 259, 260, 261, 262, 263, 264],
      "LargestImagePixelValue": [12503, 12082, 12020, 11893, 11881, 11897, 11840, 11850, 11940, 11718, 11771, 11843, 11833, 11760, 11781, 11817, 11720, 11713, 11732, 11709, 11763, 11668, 11631, 11688, 11717, 11555, 11720, 11525, 11665, 11611, 11449, 11510, 11739, 11471, 11591, 11581, 11551, 11621, 11518, 11453, 11566, 11369, 11511, 11716, 11284, 11316, 11615, 11182, 11407, 11280, 11463, 11400, 11251, 11530, 11462, 11229, 11505, 11337, 11401, 11459, 11383, 11586, 11235, 11469, 11183, 11280, 11534, 11240, 11343, 11448, 11327, 12032, 11587, 11620, 11603, 11396, 11662, 11614, 11541, 11691, 11532, 11537, 11591, 11324, 11558, 11346, 11145, 11512, 11212, 11686, 11323, 11399, 11738, 11361, 11425, 11572, 11244, 11668, 11410, 11445, 11735, 11569, 11650, 11692, 11216, 11682, 11227, 11273, 11738, 11383, 11516, 11725, 11368, 11665, 11463, 11138, 11852, 11634, 11263, 11339, 11280, 11374, 11686, 11412, 11834, 11567, 11582, 11783, 11401, 11660, 11490, 11664, 11363, 11654, 11170, 11674, 11392, 11500, 11496, 11249, 11671, 11295, 11811, 11345, 11761, 11187, 11587, 11514, 11726, 11482, 11314, 11915, 11262, 11308, 11547, 11366, 11641, 11795, 11326, 11619, 11291, 11339, 11644, 11245, 11357, 11447, 11259, 11361, 11358, 11236, 11484, 11380, 11543, 11241, 11107, 11229, 11241, 11552, 11239, 11288, 11710, 11161, 11365, 11302, 11556, 11344, 11472, 11659, 11331, 11372, 11263, 11316, 11506, 11295, 11340, 11530, 11576, 11686, 11434, 14020, 20966, 15936, 13182, 11968, 11232, 11218, 11281, 11341, 11260, 11217, 11187, 11347, 11484, 11578, 11672, 11651, 11697, 11517, 11524, 11502, 11681, 11737, 11651, 11726, 11618, 11685, 11523, 11612, 11701, 11644, 11550, 11681, 11662, 11655, 11657, 11598, 11681, 11664, 11762, 11721, 11710, 11529, 11487, 11563, 11608, 11571, 11622, 11492, 11553, 11730, 11293, 11476, 11509, 11390, 11573, 11510, 11619, 11616, 11595, 11595, 11565, 11404, 11569, 11562],
      "TriggerTime": [8100.0, 9100.0, 10100.0, 11100.0, 12100.0, 13100.0, 14100.0, 15100.0, 16100.0, 17100.0, 18100.0, 19100.0, 20100.0, 21100.0, 22100.0, 23100.0, 24100.0, 25100.0, 26100.0, 27100.0, 28100.0, 29100.0, 30100.0, 31100.0, 32100.0, 33100.0, 34100.0, 35100.0, 36100.0, 37100.0, 38100.0, 39100.0, 40100.0, 41100.0, 42100.0, 43100.0, 44100.0, 45100.0, 46100.0, 47100.0, 48100.0, 49100.0, 50100.0, 51100.0, 52100.0, 53100.0, 54100.0, 55100.0, 56100.0, 57100.0, 58100.0, 59100.0, 60100.0, 61100.0, 62100.0, 63100.0, 64100.0, 65100.0, 66100.0, 67100.0, 68100.0, 69100.0, 70100.0, 71100.0, 72100.0, 73100.0, 74100.0, 75100.0, 76100.0, 77100.0, 78100.0, 79100.0, 80100.0, 81100.0, 82100.0, 83100.0, 84100.0, 85100.0, 86100.0, 87100.0, 88100.0, 89100.0, 90100.0, 91100.0, 92100.0, 93100.0, 94100.0, 95100.0, 96100.0, 97100.0, 98100.0, 99100.0, 100100.0, 101100.0, 102100.0, 103100.0, 104100.0, 105100.0, 106100.0, 107100.0, 108100.0, 109100.0, 110100.0, 111100.0, 112100.0, 113100.0, 114100.0, 115100.0, 116100.0, 117100.0, 118100.0, 119100.0, 120100.0, 121100.0, 122100.0, 123100.0, 124100.0, 125100.0, 126100.0, 127100.0, 128100.0, 129100.0, 130100.0, 131100.0, 132100.0, 133100.0, 134100.0, 135100.0, 136100.0, 137100.0, 138100.0, 139100.0, 140100.0, 141100.0, 142100.0, 143100.0, 144100.0, 145100.0, 146100.0, 147100.0, 148100.0, 149100.0, 150100.0, 151100.0, 152100.0, 153100.0, 154100.0, 155100.0, 156100.0, 157100.0, 158100.0, 159100.0, 160100.0, 161100.0, 162100.0, 163100.0, 164100.0, 165100.0, 166100.0, 167100.0, 168100.0, 169100.0, 170100.0, 171100.0, 172100.0, 173100.0, 174100.0, 175100.0, 176100.0, 177100.0, 178100.0, 179100.0, 180100.0, 181100.0, 182100.0, 183100.0, 184100.0, 185100.0, 186100.0, 187100.0, 188100.0, 189100.0, 190100.0, 191100.0, 192100.0, 193100.0, 194100.0, 195100.0, 196100.0, 197100.0, 198100.0, 199100.0, 200100.0, 201100.0, 202100.0, 203100.0, 204100.0, 205100.0, 206100.0, 207100.0, 208100.0, 209100.0, 210100.0, 211100.0, 212100.0, 213100.0, 214100.0, 215100.0, 216100.0, 217100.0, 218100.0, 219100.0, 220100.0, 221100.0, 222100.0, 223100.0, 224100.0, 225100.0, 226100.0, 227100.0, 228100.0, 229100.0, 230100.0, 231100.0, 232100.0, 233100.0, 234100.0, 235100.0, 236100.0, 237100.0, 238100.0, 239100.0, 240100.0, 241100.0, 242100.0, 243100.0, 244100.0, 245100.0, 246100.0, 247100.0, 248100.0, 249100.0, 250100.0, 251100.0, 252100.0, 253100.0, 254100.0, 255100.0, 256100.0, 257100.0, 258100.0, 259100.0, 260100.0, 261100.0, 262100.0, 263100.0, 264100.0, 265100.0, 266100.0, 267100.0, 268100.0, 269100.0, 270100.0, 271100.0],
      "WindowCenter": [4379.0, 4365.0, 4353.0, 4348.0, 4351.0, 4353.0, 4353.0, 4355.0, 4351.0, 4351.0, 4350.0, 4348.0, 4339.0, 4338.0, 4348.0, 4335.0, 4350.0, 4352.0, 4351.0, 4352.0, 4352.0, 4353.0, 4341.0, 4347.0, 4350.0, 4353.0, 4351.0, 4352.0, 4351.0, 4353.0, 4351.0, 4350.0, 4362.0, 4353.0, 4354.0, 4351.0, 4350.0, 4353.0, 4350.0, 4350.0, 4339.0, 4341.0, 4336.0, 4336.0, 4325.0, 4312.0, 4322.0, 4321.0, 4327.0, 4324.0, 4323.0, 4322.0, 4312.0, 4322.0, 4325.0, 4325.0, 4339.0, 4327.0, 4338.0, 4338.0, 4335.0, 4336.0, 4325.0, 4325.0, 4325.0, 4321.0, 4337.0, 4327.0, 4328.0, 4337.0, 4324.0, 4361.0, 4336.0, 4334.0, 4334.0, 4335.0, 4334.0, 4336.0, 4335.0, 4347.0, 4337.0, 4339.0, 4335.0, 4327.0, 4322.0, 4312.0, 4311.0, 4324.0, 4313.0, 4334.0, 4326.0, 4324.0, 4334.0, 4324.0, 4321.0, 4323.0, 4313.0, 4324.0, 4321.0, 4324.0, 4334.0, 4335.0, 4337.0, 4338.0, 4324.0, 4331.0, 4324.0, 4324.0, 4337.0, 4332.0, 4334.0, 4334.0, 4334.0, 4338.0, 4325.0, 4327.0, 4336.0, 4335.0, 4326.0, 4324.0, 4325.0, 4337.0, 4333.0, 4324.0, 4334.0, 4322.0, 4325.0, 4334.0, 4323.0, 4333.0, 4333.0, 4336.0, 4339.0, 4336.0, 4322.0, 4336.0, 4325.0, 4324.0, 4335.0, 4323.0, 4334.0, 4326.0, 4345.0, 4324.0, 4347.0, 4340.0, 4352.0, 4338.0, 4348.0, 4337.0, 4337.0, 4348.0, 4336.0, 4342.0, 4338.0, 4340.0, 4342.0, 4352.0, 4328.0, 4339.0, 4328.0, 4328.0, 4341.0, 4329.0, 4328.0, 4336.0, 4327.0, 4336.0, 4323.0, 4322.0, 4337.0, 4336.0, 4335.0, 4323.0, 4321.0, 4323.0, 4324.0, 4336.0, 4327.0, 4324.0, 4336.0, 4323.0, 4333.0, 4331.0, 4336.0, 4328.0, 4338.0, 4336.0, 4337.0, 4337.0, 4341.0, 4337.0, 4338.0, 4341.0, 4340.0, 4340.0, 4342.0, 4349.0, 4338.0, 4361.0, 4461.0, 4411.0, 4363.0, 4345.0, 4320.0, 4308.0, 4307.0, 4309.0, 4318.0, 4319.0, 4317.0, 4323.0, 4328.0, 4318.0, 4318.0, 4317.0, 4314.0, 4315.0, 4320.0, 4330.0, 4333.0, 4341.0, 4332.0, 4346.0, 4334.0, 4346.0, 4346.0, 4346.0, 4357.0, 4350.0, 4361.0, 4362.0, 4354.0, 4361.0, 4349.0, 4348.0, 4363.0, 4349.0, 4362.0, 4360.0, 4357.0, 4356.0, 4344.0, 4341.0, 4347.0, 4341.0, 4342.0, 4346.0, 4345.0, 4341.0, 4337.0, 4343.0, 4343.0, 4344.0, 4332.0, 4333.0, 4344.0, 4345.0, 4343.0, 4340.0, 4343.0, 4343.0, 4329.0, 4340.0],
