{
  "AcquisitionMatrixPE": 106,
  "AcquisitionNumber": 1,
  "AcquisitionTime": "19:10:27.097500",
  "BandwidthPerPixelPhaseEncode": 13.477,
  "BaseResolution": 106,
  "BodyPartExamined": "BRAIN",
  "CoilCombinationMethod": "Sum of Squares",
  "ConsistencyInfo": "N4_VE11C_LATEST_20160120",
  "ConversionSoftware": "dcm2niix",
  "ConversionSoftwareVersion": "v1.0.20220720",
  "DerivedVendorReportedEchoSpacing": 0.000700005,
  "DeviceSerialNumber": "166108",
  "DwellTime": 2.6e-06,
  "EchoTime": 0.03,
  "EchoTrainLength": 80,
  "EffectiveEchoSpacing": 0.000700005,
  "FlipAngle": 62,
  "HeudiconvVersion": "1.3.0",
  "ImageComments": "Unaliased MB4/PE3/LB",
  "ImageOrientationPatientDICOM": [1, 0, 0, 0, 0.959805, -0.280667],
  "ImageOrientationText": "Tra>Cor(-16.3)",
  "ImageType": [
    "ORIGINAL",
    "PRIMARY",
    "M",
    "MB",
    "ND",
    "MOSAIC"
],
  "ImagingFrequency": 123.244,
  "InPlanePhaseEncodingDirectionDICOM": "COL",
  "InstitutionAddress": "Bedford Way 26,London,London,GB,WC1H 0AP",
  "InstitutionName": "University College",
  "InstitutionalDepartmentName": "Department",
  "MRAcquisitionType": "2D",
  "MagneticFieldStrength": 3,
  "Manufacturer": "Siemens",
  "ManufacturersModelName": "Prisma",
  "MatrixCoilMode": "SENSE",
  "Modality": "MR",
  "MultibandAccelerationFactor": 4,
  "NonlinearGradientCorrection": false,
  "PartialFourier": 0.75,
  "PatientPosition": "HFS",
  "PercentPhaseFOV": 100,
  "PercentSampling": 100,
  "PhaseEncodingDirection": "j-",
  "PhaseEncodingSteps": 80,
  "PhaseResolution": 1,
  "PixelBandwidth": 1815,
  "ProcedureStepDescription": "Egor^MovieProject2",
  "ProtocolName": "func-bold_task-tono_run-02",
  "PulseSequenceDetails": "%CustomerSeq%\\cmrr_mbep2d_bold",
  "ReceiveCoilActiveElements": "HEA;HEP",
  "ReceiveCoilName": "Head_32",
  "ReconMatrixPE": 106,
  "RepetitionTime": 1,
  "SAR": 0.0422491,
  "ScanOptions": "PFP\\FS\\EXT",
  "ScanningSequence": "EP",
  "SequenceName": "epfid2d1_106",
  "SequenceVariant": "SK\\SS",
  "SeriesDescription": "func-bold_task-tono_run-02",
  "SeriesNumber": 23,
  "ShimSetting": [-1613, 686, 7364, 269, -148, 355, -58, -7],
  "SliceThickness": 2,
  "SliceTiming": [0, 0.535, 0.09, 0.625, 0.1775, 0.7125, 0.2675, 0.8025, 0.3575, 0.8925, 0.445, 0, 0.535, 0.09, 0.625, 0.1775, 0.7125, 0.2675, 0.8025, 0.3575, 0.8925, 0.445, 0, 0.535, 0.09, 0.625, 0.1775, 0.7125, 0.2675, 0.8025, 0.3575, 0.8925, 0.445, 0, 0.535, 0.09, 0.625, 0.1775, 0.7125, 0.2675, 0.8025, 0.3575, 0.8925, 0.445],
  "SoftwareVersions": "syngo MR E11",
  "SpacingBetweenSlices": 2,
  "StationName": "AWP166108",
  "TaskName": "tonotopy",
  "TotalReadoutTime": 0.0735005,
  "TxRefAmp": 245.203,
  "WipMemBlock": "aa96d864-d269-457a-82e6-f19441ed2439||Sequence: R016 ve11c/master r/e634e98; Dec 19 2017 11:00:25 by eja",
  "dcmmeta_affine": [
    [-2.0, 0.0, 0.0, 106.0],
    [0.0, 1.919610619544983, -0.561333417892456, -78.01634979248047],
    [0.0, 0.561333417892456, 1.9196105003356934, -40.153114318847656],
    [0.0, 0.0, 0.0, 1.0]
],
  "dcmmeta_reorient_transform": [
    [0.0, -1.0, 0.0, 105.0],
    [1.0, 0.0, 0.0, 0.0],
    [0.0, 0.0, 1.0, 0.0],
    [0.0, 0.0, 0.0, 1.0]
],
  "dcmmeta_shape": [106, 106, 44, 264],
  "dcmmeta_slice_dim": 2,
  "dcmmeta_version": 0.6,
  "global": {
    "const": {
      "AcquisitionMatrix": [106, 0, 0, 106],
      "AngioFlag": "N",
      "BitsAllocated": 16,
      "BitsStored": 16,
      "BodyPartExamined": "BRAIN",
      "CardiacNumberOfImages": 1,
      "Columns": 742,
      "EchoNumbers": 1,
      "EchoTime": 30.0,
      "EchoTrainLength": 80,
      "FlipAngle": 62.0,
      "HighBit": 15,
      "ImageOrientationPatient": [1.0, 0.0, 0.0, 0.0, 0.95980529137369, -0.2806667109777],
      "ImagePositionPatient": [-742.0, -733.9789243316, 197.29092200337],
      "ImageType": [
        "ORIGINAL",
        "PRIMARY",
        "M",
        "MB",
        "ND",
        "MOSAIC"
],
      "ImagedNucleus": "1H",
      "ImagingFrequency": 123.243695,
      "InPlanePhaseEncodingDirection": "COL",
      "MRAcquisitionType": "2D",
      "MagneticFieldStrength": 3.0,
      "Manufacturer": "SIEMENS",
      "ManufacturerModelName": "Prisma",
      "Modality": "MR",
      "NominalInterval": 0,
      "NumberOfAverages": 1.0,
      "NumberOfPhaseEncodingSteps": 80,
      "PercentPhaseFieldOfView": 100.0,
      "PercentSampling": 100.0,
      "PerformedProcedureStepStartTime": "174506.183000",
      "PhotometricInterpretation": "MONOCHROME2",
      "PixelBandwidth": 1815.0,
      "PixelRepresentation": 0,
      "PixelSpacing": [2.0, 2.0],
      "ProtocolName": "func-bold_task-tono_run-02",
      "RepetitionTime": 1000.0,
      "Rows": 742,
      "SAR": 0.04224906864672,
      "SamplesPerPixel": 1,
      "ScanOptions": [
        "PFP",
        "FS",
        "EXT"
],
      "ScanningSequence": "EP",
      "SequenceName": "epfid2d1_106",
      "SequenceVariant": [
        "SK",
        "SS"
],
      "SeriesDescription": "func-bold_task-tono_run-02",
      "SeriesNumber": 23,
      "SeriesTime": "191059.736000",
      "SliceLocation": -16.642579740303,
      "SliceThickness": 2.0,
      "SmallestImagePixelValue": 0,
      "SoftwareVersions": "syngo MR E11",
      "SpacingBetweenSlices": 1.999999951691,
      "SpecificCharacterSet": "ISO_IR 100",
      "StudyID": "1",
      "StudyTime": "174506.122000",
      "TransmitCoilName": "Body",
      "VariableFlipAngleFlag": "N",
      "WindowCenterWidthExplanation": "Algo1",
      "dBdt": 0.0},
    "slices": {}
  },
  "time": {
    "samples": {
      "AcquisitionNumber": [1, 2, 3, 4, 5, 6, 7, 8, 9, 10, 11, 12, 13, 14, 15, 16, 17, 18, 19, 20, 21, 22, 23, 24, 25, 26, 27, 28, 29, 30, 31, 32, 33, 34, 35, 36, 37, 38, 39, 40, 41, 42, 43, 44, 45, 46, 47, 48, 49, 50, 51, 52, 53, 54, 55, 56, 57, 58, 59, 60, 61, 62, 63, 64, 65, 66, 67, 68, 69, 70, 71, 72, 73, 74, 75, 76, 77, 78, 79, 80, 81, 82, 83, 84, 85, 86, 87, 88, 89, 90, 91, 92, 93, 94, 95, 96, 97, 98, 99, 100, 101, 102, 103, 104, 105, 106, 107, 108, 109, 110, 111, 112, 113, 114, 115, 116, 117, 118, 119, 120, 121, 122, 123, 124, 125, 126, 127, 128, 129, 130, 131, 132, 133, 134, 135, 136, 137, 138, 139, 140, 141, 142, 143, 144, 145, 146, 147, 148, 149, 150, 151, 152, 153, 154, 155, 156, 157, 158, 159, 160, 161, 162, 163, 164, 165, 166, 167, 168, 169, 170, 171, 172, 173, 174, 175, 176, 177, 178, 179, 180, 181, 182, 183, 184, 185, 186, 187, 188, 189, 190, 191, 192, 193, 194, 195, 196, 197, 198, 199, 200, 201, 202, 203, 204, 205, 206, 207, 208, 209, 210, 211, 212, 213, 214, 215, 216, 217, 218, 219, 220, 221, 222, 223, 224, 225, 226, 227, 228, 229, 230, 231, 232, 233, 234, 235, 236, 237, 238, 239, 240, 241, 242, 243, 244, 245, 246, 247, 248, 249, 250, 251, 252, 253, 254, 255, 256, 257, 258, 259, 260, 261, 262, 263, 264],
      "AcquisitionTime": ["191027.097500", "191028.097500", "191029.097500", "191030.097500", "191031.097500", "191032.097500", "191033.097500", "191034.097500", "191035.097500", "191036.097500", "191037.097500", "191038.097500", "191039.097500", "191040.097500", "191041.097500", "191042.097500", "191043.097500", "191044.097500", "191045.097500", "191046.097500", "191047.097500", "191048.097500", "191049.097500", "191050.097500", "191051.097500", "191052.097500", "191053.097500", "191054.097500", "191055.097500", "191056.097500", "191057.097500", "191058.097500", "191059.097500", "191100.097500", "191101.097500", "191102.097500", "191103.097500", "191104.097500", "191105.097500", "191106.097500", "191107.097500", "191108.097500", "191109.097500", "191110.097500", "191111.097500", "191112.097500", "191113.097500", "191114.097500", "191115.097500", "191116.097500", "191117.097500", "191118.097500", "191119.097500", "191120.097500", "191121.097500", "191122.097500", "191123.097500", "191124.097500", "191125.097500", "191126.097500", "191127.097500", "191128.097500", "191129.097500", "191130.097500", "191131.097500", "191132.097500", "191133.097500", "191134.097500", "191135.097500", "191136.097500", "191137.097500", "191138.097500", "191139.097500", "191140.097500", "191141.097500", "191142.097500", "191143.097500", "191144.097500", "191145.097500", "191146.097500", "191147.097500", "191148.097500", "191149.097500", "191150.097500", "191151.097500", "191152.097500", "191153.097500", "191154.097500", "191155.097500", "191156.097500", "191157.097500", "191158.097500", "191159.097500", "191200.097500", "191201.097500", "191202.097500", "191203.097500", "191204.097500", "191205.097500", "191206.097500", "191207.097500", "191208.097500", "191209.097500", "191210.097500", "191211.097500", "191212.097500", "191213.097500", "191214.097500", "191215.097500", "191216.097500", "191217.097500", "191218.097500", "191219.097500", "191220.097500", "191221.097500", "191222.097500", "191223.097500", "191224.097500", "191225.097500", "191226.097500", "191227.097500", "191228.097500", "191229.097500", "191230.097500", "191231.097500", "191232.097500", "191233.097500", "191234.097500", "191235.097500", "191236.097500", "191237.097500", "191238.097500", "191239.097500", "191240.097500", "191241.097500", "191242.097500", "191243.097500", "191244.097500", "191245.097500", "191246.097500", "191247.097500", "191248.097500", "191249.097500", "191250.097500", "191251.097500", "191252.097500", "191253.097500", "191254.097500", "191255.097500", "191256.097500", "191257.097500", "191258.097500", "191259.097500", "191300.097500", "191301.097500", "191302.097500", "191303.097500", "191304.097500", "191305.097500", "191306.097500", "191307.097500", "191308.097500", "191309.097500", "191310.097500", "191311.097500", "191312.097500", "191313.097500", "191314.097500", "191315.097500", "191316.097500", "191317.097500", "191318.097500", "191319.097500", "191320.097500", "191321.097500", "191322.097500", "191323.097500", "191324.097500", "191325.097500", "191326.097500", "191327.097500", "191328.097500", "191329.097500", "191330.097500", "191331.097500", "191332.097500", "191333.097500", "191334.097500", "191335.097500", "191336.097500", "191337.097500", "191338.097500", "191339.097500", "191340.097500", "191341.097500", "191342.097500", "191343.097500", "191344.097500", "191345.097500", "191346.097500", "191347.097500", "191348.097500", "191349.097500", "191350.097500", "191351.097500", "191352.097500", "191353.097500", "191354.097500", "191355.097500", "191356.097500", "191357.097500", "191358.097500", "191359.097500", "191400.097500", "191401.097500", "191402.097500", "191403.097500", "191404.097500", "191405.097500", "191406.097500", "191407.097500", "191408.097500", "191409.097500", "191410.097500", "191411.097500", "191412.097500", "191413.097500", "191414.097500", "191415.097500", "191416.097500", "191417.097500", "191418.097500", "191419.097500", "191420.097500", "191421.097500", "191422.097500", "191423.097500", "191424.097500", "191425.097500", "191426.097500", "191427.097500", "191428.097500", "191429.097500", "191430.097500", "191431.097500", "191432.097500", "191433.097500", "191434.097500", "191435.097500", "191436.097500", "191437.097500", "191438.097500", "191439.097500", "191440.097500", "191441.097500", "191442.097500", "191443.097500", "191444.097500", "191445.097500", "191446.097500", "191447.097500", "191448.097500", "191449.097500", "191450.097500"],
      "ContentTime": ["191059.739000", "191059.742000", "191059.744000", "191059.747000", "191059.755000", "191059.760000", "191059.762000", "191059.765000", "191059.767000", "191059.770000", "191059.772000", "191059.775000", "191059.790000", "191059.792000", "191059.795000", "191059.797000", "191059.800000", "191059.802000", "191059.804000", "191059.807000", "191059.809000", "191059.812000", "191059.814000", "191059.817000", "191059.819000", "191059.822000", "191059.824000", "191059.827000", "191059.829000", "191059.831000", "191059.834000", "191119.709000", "191119.711000", "191119.714000", "191119.716000", "191119.718000", "191119.721000", "191119.723000", "191119.726000", "191119.728000", "191119.730000", "191119.733000", "191119.735000", "191119.738000", "191119.740000", "191119.743000", "191119.745000", "191119.749000", "191119.751000", "191119.754000", "191119.756000", "191139.708000", "191139.711000", "191139.713000", "191139.716000", "191139.718000", "191139.721000", "191139.723000", "191139.725000", "191139.728000", "191139.730000", "191139.733000", "191139.735000", "191139.738000", "191139.740000", "191139.743000", "191139.745000", "191139.748000", "191139.751000", "191139.753000", "191139.755000", "191159.709000", "191159.712000", "191159.714000", "191159.717000", "191159.719000", "191159.730000", "191159.733000", "191159.736000", "191159.738000", "191159.740000", "191159.743000", "191159.746000", "191159.749000", "191159.751000", "191159.753000", "191159.756000", "191159.758000", "191159.761000", "191159.763000", "191159.766000", "191219.710000", "191219.712000", "191219.715000", "191219.717000", "191219.720000", "191219.722000", "191219.725000", "191219.727000", "191219.729000", "191219.732000", "191219.734000", "191219.737000", "191219.739000", "191219.742000", "191219.745000", "191219.748000", "191219.750000", "191219.753000", "191219.755000", "191219.758000", "191239.709000", "191239.712000", "191239.714000", "191239.717000", "191239.719000", "191239.722000", "191239.724000", "191239.727000", "191239.729000", "191239.731000", "191239.734000", "191239.736000", "191239.739000", "191239.741000", "191239.744000", "191239.747000", "191239.749000", "191239.752000", "191239.754000", "191239.757000", "191259.708000", "191259.711000", "191259.713000", "191259.716000", "191259.718000", "191259.721000", "191259.723000", "191259.726000", "191259.728000", "191259.731000", "191259.733000", "191259.736000", "191259.738000", "191259.741000", "191259.743000", "191259.746000", "191259.749000", "191259.751000", "191259.754000", "191259.756000", "191319.708000", "191319.711000", "191319.714000", "191319.716000", "191319.718000", "191319.721000", "191319.723000", "191319.726000", "191319.728000", "191319.731000", "191319.733000", "191319.736000", "191319.749000", "191319.751000", "191319.754000", "191319.756000", "191319.759000", "191319.761000", "191319.764000", "191319.766000", "191339.708000", "191339.711000", "191339.713000", "191339.716000", "191339.718000", "191339.721000", "191339.723000", "191339.726000", "191339.728000", "191339.731000", "191339.733000", "191339.735000", "191339.738000", "191339.740000", "191339.743000", "191339.746000", "191339.748000", "191339.751000", "191339.753000", "191339.756000", "191359.709000", "191359.711000", "191359.714000", "191359.716000", "191359.718000", "191359.721000", "191359.723000", "191359.726000", "191359.728000", "191359.731000", "191359.734000", "191359.737000", "191359.739000", "191359.742000", "191359.745000", "191359.748000", "191359.750000", "191359.753000", "191359.755000", "191359.757000", "191419.709000", "191419.712000", "191419.714000", "191419.717000", "191419.719000", "191419.722000", "191419.724000", "191419.726000", "191419.729000", "191419.731000", "191419.734000", "191419.737000", "191419.740000", "191419.742000", "191419.746000", "191419.749000", "191419.751000", "191419.753000", "191419.756000", "191419.773000", "191439.709000", "191439.712000", "191439.715000", "191439.717000", "191439.719000", "191439.722000", "191439.724000", "191439.727000", "191439.729000", "191439.731000", "191439.734000", "191439.736000", "191439.739000", "191439.741000", "191439.744000", "191439.747000", "191439.749000", "191439.752000", "191439.754000", "191439.757000", "191451.794000", "191451.798000", "191451.801000", "191451.803000", "191451.806000", "191451.809000", "191451.812000", "191451.815000", "191451.818000", "191451.821000", "191451.824000", "191451.827000", "191451.829000"],
      "InstanceCreationTime": ["191059.739000", "191059.742000", "191059.744000", "191059.747000", "191059.755000", "191059.760000", "191059.762000", "191059.765000", "191059.767000", "191059.770000", "191059.772000", "191059.775000", "191059.790000", "191059.792000", "191059.795000", "191059.797000", "191059.800000", "191059.802000", "191059.804000", "191059.807000", "191059.809000", "191059.812000", "191059.814000", "191059.817000", "191059.819000", "191059.822000", "191059.824000", "191059.827000", "191059.829000", "191059.831000", "191059.834000", "191119.709000", "191119.711000", "191119.714000", "191119.716000", "191119.718000", "191119.721000", "191119.723000", "191119.726000", "191119.728000", "191119.730000", "191119.733000", "191119.735000", "191119.738000", "191119.740000", "191119.743000", "191119.745000", "191119.749000", "191119.751000", "191119.754000", "191119.756000", "191139.708000", "191139.711000", "191139.713000", "191139.716000", "191139.718000", "191139.721000", "191139.723000", "191139.725000", "191139.728000", "191139.730000", "191139.733000", "191139.735000", "191139.738000", "191139.740000", "191139.743000", "191139.745000", "191139.748000", "191139.751000", "191139.753000", "191139.755000", "191159.709000", "191159.712000", "191159.714000", "191159.717000", "191159.719000", "191159.730000", "191159.733000", "191159.736000", "191159.738000", "191159.740000", "191159.743000", "191159.746000", "191159.749000", "191159.751000", "191159.753000", "191159.756000", "191159.758000", "191159.761000", "191159.763000", "191159.766000", "191219.710000", "191219.712000", "191219.715000", "191219.717000", "191219.720000", "191219.722000", "191219.725000", "191219.727000", "191219.729000", "191219.732000", "191219.734000", "191219.737000", "191219.739000", "191219.742000", "191219.745000", "191219.748000", "191219.750000", "191219.753000", "191219.755000", "191219.758000", "191239.709000", "191239.712000", "191239.714000", "191239.717000", "191239.719000", "191239.722000", "191239.724000", "191239.727000", "191239.729000", "191239.731000", "191239.734000", "191239.736000", "191239.739000", "191239.741000", "191239.744000", "191239.747000", "191239.749000", "191239.752000", "191239.754000", "191239.757000", "191259.708000", "191259.711000", "191259.713000", "191259.716000", "191259.718000", "191259.721000", "191259.723000", "191259.726000", "191259.728000", "191259.731000", "191259.733000", "191259.736000", "191259.738000", "191259.741000", "191259.743000", "191259.746000", "191259.749000", "191259.751000", "191259.754000", "191259.756000", "191319.708000", "191319.711000", "191319.714000", "191319.716000", "191319.718000", "191319.721000", "191319.723000", "191319.726000", "191319.728000", "191319.731000", "191319.733000", "191319.736000", "191319.749000", "191319.751000", "191319.754000", "191319.756000", "191319.759000", "191319.761000", "191319.764000", "191319.766000", "191339.708000", "191339.711000", "191339.713000", "191339.716000", "191339.718000", "191339.721000", "191339.723000", "191339.726000", "191339.728000", "191339.731000", "191339.733000", "191339.735000", "191339.738000", "191339.740000", "191339.743000", "191339.746000", "191339.748000", "191339.751000", "191339.753000", "191339.756000", "191359.709000", "191359.711000", "191359.714000", "191359.716000", "191359.718000", "191359.721000", "191359.723000", "191359.726000", "191359.728000", "191359.731000", "191359.734000", "191359.737000", "191359.739000", "191359.742000", "191359.745000", "191359.748000", "191359.750000", "191359.753000", "191359.755000", "191359.757000", "191419.709000", "191419.712000", "191419.714000", "191419.717000", "191419.719000", "191419.722000", "191419.724000", "191419.726000", "191419.729000", "191419.731000", "191419.734000", "191419.737000", "191419.740000", "191419.742000", "191419.746000", "191419.749000", "191419.751000", "191419.753000", "191419.756000", "191419.773000", "191439.709000", "191439.712000", "191439.715000", "191439.717000", "191439.719000", "191439.722000", "191439.724000", "191439.727000", "191439.729000", "191439.731000", "191439.734000", "191439.736000", "191439.739000", "191439.741000", "191439.744000", "191439.747000", "191439.749000", "191439.752000", "191439.754000", "191439.757000", "191451.794000", "191451.798000", "191451.801000", "191451.803000", "191451.806000", "191451.809000", "191451.812000", "191451.815000", "191451.818000", "191451.821000", "191451.824000", "191451.827000", "191451.829000"],
      "InstanceNumber": [1, 2, 3, 4, 5, 6, 7, 8, 9, 10, 11, 12, 13, 14, 15, 16, 17, 18, 19, 20, 21, 22, 23, 24, 25, 26, 27, 28, 29, 30, 31, 32, 33, 34, 35, 36, 37, 38, 39, 40, 41, 42, 43, 44, 45, 46, 47, 48, 49, 50, 51, 52, 53, 54, 55, 56, 57, 58, 59, 60, 61, 62, 63, 64, 65, 66, 67, 68, 69, 70, 71, 72, 73, 74, 75, 76, 77, 78, 79, 80, 81, 82, 83, 84, 85, 86, 87, 88, 89, 90, 91, 92, 93, 94, 95, 96, 97, 98, 99, 100, 101, 102, 103, 104, 105, 106, 107, 108, 109, 110, 111, 112, 113, 114, 115, 116, 117, 118, 119, 120, 121, 122, 123, 124, 125, 126, 127, 128, 129, 130, 131, 132, 133, 134, 135, 136, 137, 138, 139, 140, 141, 142, 143, 144, 145, 146, 147, 148, 149, 150, 151, 152, 153, 154, 155, 156, 157, 158, 159, 160, 161, 162, 163, 164, 165, 166, 167, 168, 169, 170, 171, 172, 173, 174, 175, 176, 177, 178, 179, 180, 181, 182, 183, 184, 185, 186, 187, 188, 189, 190, 191, 192, 193, 194, 195, 196, 197, 198, 199, 200, 201, 202, 203, 204, 205, 206, 207, 208, 209, 210, 211, 212, 213, 214, 215, 216, 217, 218, 219, 220, 221, 222, 223, 224, 225, 226, 227, 228, 229, 230, 231, 232, 233, 234, 235, 236, 237, 238, 239, 240, 241, 242, 243, 244, 245, 246, 247, 248, 249, 250, 251, 252, 253, 254, 255, 256, 257, 258, 259, 260, 261, 262, 263, 264],
      "LargestImagePixelValue": [13824, 12330, 11664, 11357, 11361, 11566, 11551, 11577, 11508, 11635, 11580, 11673, 11562, 11510, 11374, 11281, 11336, 11276, 11326, 11356, 11304, 11395, 11453, 11352, 11348, 11325, 11409, 11456, 11493, 11548, 11485, 11402, 11768, 11876, 11488, 11820, 11674, 11603, 11469, 11460, 11649, 11571, 11495, 11616, 11590, 11720, 11665, 11795, 11712, 11668, 11715, 11916, 11554, 11494, 11632, 11527, 11323, 11409, 11399, 11332, 11523, 11462, 11445, 11498, 11637, 11488, 11391, 11528, 11567, 11437, 11511, 11686, 11390, 11391, 11581, 11484, 11343, 11291, 11458, 11386, 11390, 11601, 11453, 11370, 11529, 11734, 11508, 11366, 11395, 11581, 11441, 11309, 11343, 11487, 11447, 11305, 11358, 11527, 11433, 11268, 11525, 11613, 11460, 11368, 11496, 11654, 11497, 11422, 11393, 11563, 11359, 11329, 11481, 11540, 11378, 11365, 11532, 11437, 11400, 11525, 11671, 11399, 11473, 11510, 11600, 11428, 11316, 11582, 11391, 11307, 11406, 11527, 11334, 11308, 11558, 11495, 11404, 11453, 11612, 11549, 11376, 11467, 11508, 11390, 11536, 11720, 11485, 11438, 11791, 11579, 11432, 11814, 11653, 11518, 11511, 11730, 11472, 11484, 11661, 11490, 11316, 11431, 11390, 11343, 11602, 11551, 11382, 11419, 11691, 11558, 11469, 11504, 11720, 11520, 11501, 11647, 11571, 11430, 11507, 11728, 11494, 11430, 11528, 11469, 11320, 11530, 11632, 11551, 11552, 11740, 11731, 11607, 11366, 11477, 11433, 11305, 11387, 11631, 11545, 11403, 11545, 11501, 11450, 11317, 11395, 11395, 11544, 11375, 11462, 11577, 11407, 11530, 11681, 11570, 11446, 11481, 11659, 11598, 11352, 11414, 11488, 11470, 11398, 11389, 11451, 11426, 11393, 11549, 11569, 11376, 11354, 11492, 11352, 11272, 11468, 11503, 11372, 11544, 11597, 11363, 11396, 11675, 11631, 11558, 11528, 11838, 11713, 11556, 11644, 11650, 11409, 11491, 11611, 11580, 11346, 11586, 11528, 11525, 11689, 11792, 11494, 11423, 11398, 11378],
      "TriggerTime": [8102.5, 9102.5, 10102.5, 11102.5, 12102.5, 13102.5, 14102.5, 15102.5, 16102.5, 17102.5, 18102.5, 19102.5, 20102.5, 21102.5, 22102.5, 23102.5, 24102.5, 25102.5, 26102.5, 27102.5, 28102.5, 29102.5, 30102.5, 31102.5, 32102.5, 33102.5, 34102.5, 35102.5, 36102.5, 37102.5, 38102.5, 39102.5, 40102.5, 41102.5, 42102.5, 43102.5, 44102.5, 45102.5, 46102.5, 47102.5, 48102.5, 49102.5, 50102.5, 51102.5, 52102.5, 53102.5, 54102.5, 55102.5, 56102.5, 57102.5, 58102.5, 59102.5, 60102.5, 61102.5, 62102.5, 63102.5, 64102.5, 65102.5, 66102.5, 67102.5, 68102.5, 69102.5, 70102.5, 71102.5, 72102.5, 73102.5, 74102.5, 75102.5, 76102.5, 77102.5, 78102.5, 79102.5, 80102.5, 81102.5, 82102.5, 83102.5, 84102.5, 85102.5, 86102.5, 87102.5, 88102.5, 89102.5, 90102.5, 91102.5, 92102.5, 93102.5, 94102.5, 95102.5, 96102.5, 97102.5, 98102.5, 99102.5, 100102.5, 101102.5, 102102.5, 103102.5, 104102.5, 105102.5, 106102.5, 107102.5, 108102.5, 109102.5, 110102.5, 111102.5, 112102.5, 113102.5, 114102.5, 115102.5, 116102.5, 117102.5, 118102.5, 119102.5, 120102.5, 121102.5, 122102.5, 123102.5, 124102.5, 125102.5, 126102.5, 127102.5, 128102.5, 129102.5, 130102.5, 131102.5, 132102.5, 133102.5, 134102.5, 135102.5, 136102.5, 137102.5, 138102.5, 139102.5, 140102.5, 141102.5, 142102.5, 143102.5, 144102.5, 145102.5, 146102.5, 147102.5, 148102.5, 149102.5, 150102.5, 151102.5, 152102.5, 153102.5, 154102.5, 155102.5, 156102.5, 157102.5, 158102.5, 159102.5, 160102.5, 161102.5, 162102.5, 163102.5, 164102.5, 165102.5, 166102.5, 167102.5, 168102.5, 169102.5, 170102.5, 171102.5, 172102.5, 173102.5, 174102.5, 175102.5, 176102.5, 177102.5, 178102.5, 179102.5, 180102.5, 181102.5, 182102.5, 183102.5, 184102.5, 185102.5, 186102.5, 187102.5, 188102.5, 189102.5, 190102.5, 191102.5, 192102.5, 193102.5, 194102.5, 195102.5, 196102.5, 197102.5, 198102.5, 199102.5, 200102.5, 201102.5, 202102.5, 203102.5, 204102.5, 205102.5, 206102.5, 207102.5, 208102.5, 209102.5, 210102.5, 211102.5, 212102.5, 213102.5, 214102.5, 215102.5, 216102.5, 217102.5, 218102.5, 219102.5, 220102.5, 221102.5, 222102.5, 223102.5, 224102.5, 225102.5, 226102.5, 227102.5, 228102.5, 229102.5, 230102.5, 231102.5, 232102.5, 233102.5, 234102.5, 235102.5, 236102.5, 237102.5, 238102.5, 239102.5, 240102.5, 241102.5, 242102.5, 243102.5, 244102.5, 245102.5, 246102.5, 247102.5, 248102.5, 249102.5, 250102.5, 251102.5, 252102.5, 253102.5, 254102.5, 255102.5, 256102.5, 257102.5, 258102.5, 259102.5, 260102.5, 261102.5, 262102.5, 263102.5, 264102.5, 265102.5, 266102.5, 267102.5, 268102.5, 269102.5, 270102.5, 271102.5],
      "WindowCenter": [4579.0, 4557.0, 4527.0, 4536.0, 4546.0, 4544.0, 4542.0, 4543.0, 4547.0, 4547.0, 4548.0, 4543.0, 4545.0, 4544.0, 4544.0, 4546.0, 4550.0, 4553.0, 4547.0, 4551.0, 4551.0, 4560.0, 4562.0, 4549.0, 4559.0, 4550.0, 4562.0, 4574.0, 4573.0, 4563.0, 4576.0, 4576.0, 4585.0, 4574.0, 4563.0, 4570.0, 4575.0, 4584.0, 4587.0, 4589.0, 4580.0, 4589.0, 4587.0, 4576.0, 4586.0, 4584.0, 4576.0, 4574.0, 4586.0, 4577.0, 4575.0, 4581.0, 4573.0, 4570.0, 4569.0, 4570.0, 4562.0, 4554.0, 4562.0, 4550.0, 4554.0, 4560.0, 4554.0, 4555.0, 4562.0, 4560.0, 4560.0, 4558.0, 4559.0, 4544.0, 4549.0, 4557.0, 4544.0, 4542.0, 4547.0, 4548.0, 4543.0, 4548.0, 4554.0, 4548.0, 4547.0, 4559.0, 4559.0, 4542.0, 4556.0, 4560.0, 4556.0, 4561.0, 4561.0, 4555.0, 4559.0, 4551.0, 4548.0, 4560.0, 4559.0, 4548.0, 4562.0, 4574.0, 4562.0, 4562.0, 4561.0, 4571.0, 4560.0, 4572.0, 4572.0, 4575.0, 4571.0, 4562.0, 4559.0, 4574.0, 4558.0, 4559.0, 4559.0, 4566.0, 4562.0, 4563.0, 4574.0, 4564.0, 4570.0, 4570.0, 4572.0, 4574.0, 4578.0, 4574.0, 4570.0, 4563.0, 4561.0, 4560.0, 4561.0, 4563.0, 4561.0, 4574.0, 4558.0, 4561.0, 4563.0, 4571.0, 4562.0, 4558.0, 4569.0, 4555.0, 4558.0, 4562.0, 4561.0, 4557.0, 4563.0, 4574.0, 4562.0, 4563.0, 4572.0, 4563.0, 4557.0, 4573.0, 4564.0, 4563.0, 4565.0, 4572.0, 4562.0, 4562.0, 4562.0, 4561.0, 4563.0, 4559.0, 4572.0, 4563.0, 4562.0, 4572.0, 4553.0, 4557.0, 4569.0, 4540.0, 4537.0, 4544.0, 4556.0, 4545.0, 4545.0, 4542.0, 4546.0, 4543.0, 4543.0, 4556.0, 4545.0, 4549.0, 4547.0, 4547.0, 4549.0, 4547.0, 4551.0, 4560.0, 4554.0, 4561.0, 4561.0, 4559.0, 4555.0, 4558.0, 4554.0, 4545.0, 4558.0, 4562.0, 4558.0, 4573.0, 4573.0, 4573.0, 4560.0, 4558.0, 4561.0, 4568.0, 4556.0, 4571.0, 4572.0, 4574.0, 4562.0, 4555.0, 4572.0, 4557.0, 4571.0, 4573.0, 4573.0, 4567.0, 4564.0, 4576.0, 4587.0, 4576.0, 4578.0, 4577.0, 4587.0, 4589.0, 4580.0, 4581.0, 4574.0, 4574.0, 4557.0, 4575.0, 4562.0, 4562.0, 4560.0, 4558.0, 4572.0, 4572.0, 4576.0, 4571.0, 4572.0, 4574.0, 4573.0, 4580.0, 4577.0, 4585.0, 4571.0, 4564.0, 4563.0, 4564.0, 4563.0, 4562.0, 4574.0, 4559.0, 4564.0, 4564.0, 4562.0, 4564.0, 4573.0, 4569.0, 4563.0, 4559.0, 4562.0, 4562.0],
