{
  "AcquisitionMatrixPE": 106,
  "AcquisitionNumber": 1,
  "AcquisitionTime": "18:09:43.705000",
  "BandwidthPerPixelPhaseEncode": 13.477,
  "BaseResolution": 106,
  "BodyPartExamined": "BRAIN",
  "CoilCombinationMethod": "Sum of Squares",
  "ConsistencyInfo": "N4_VE11C_LATEST_20160120",
  "ConversionSoftware": "dcm2niix",
  "ConversionSoftwareVersion": "v1.0.20220720",
  "DerivedVendorReportedEchoSpacing": 0.000700005,
  "DeviceSerialNumber": "166108",
  "DwellTime": 2.6e-06,
  "EchoTime": 0.03,
  "EchoTrainLength": 80,
  "EffectiveEchoSpacing": 0.000700005,
  "FlipAngle": 62,
  "HeudiconvVersion": "1.3.0",
  "ImageComments": "Unaliased MB4/PE3/LB",
  "ImageOrientationPatientDICOM": [1, 0, 0, 0, 0.976296, -0.21644],
  "ImageOrientationText": "Tra>Cor(-12.5)",
  "ImageType": [
    "ORIGINAL",
    "PRIMARY",
    "M",
    "MB",
    "ND",
    "MOSAIC"
],
  "ImagingFrequency": 123.244,
  "InPlanePhaseEncodingDirectionDICOM": "COL",
  "InstitutionAddress": "Bedford Way 26,London,London,GB,WC1H 0AP",
  "InstitutionName": "University College",
  "InstitutionalDepartmentName": "Department",
  "MRAcquisitionType": "2D",
  "MagneticFieldStrength": 3,
  "Manufacturer": "Siemens",
  "ManufacturersModelName": "Prisma",
  "MatrixCoilMode": "SENSE",
  "Modality": "MR",
  "MultibandAccelerationFactor": 4,
  "NonlinearGradientCorrection": false,
  "PartialFourier": 0.75,
  "PatientPosition": "HFS",
  "PercentPhaseFOV": 100,
  "PercentSampling": 100,
  "PhaseEncodingDirection": "j-",
  "PhaseEncodingSteps": 80,
  "PhaseResolution": 1,
  "PixelBandwidth": 1815,
  "ProcedureStepDescription": "Egor^MovieProject2",
  "ProtocolName": "func-bold_task-motor_run-02",
  "PulseSequenceDetails": "%CustomerSeq%\\cmrr_mbep2d_bold",
  "ReceiveCoilActiveElements": "HEA;HEP",
  "ReceiveCoilName": "Head_32",
  "ReconMatrixPE": 106,
  "RepetitionTime": 1,
  "SAR": 0.0373234,
  "ScanOptions": "PFP\\FS\\EXT",
  "ScanningSequence": "EP",
  "SequenceName": "epfid2d1_106",
  "SequenceVariant": "SK\\SS",
  "SeriesDescription": "func-bold_task-motor_run-02",
  "SeriesNumber": 4,
  "ShimSetting": [-1617, 669, 7376, 261, -77, 344, -69, 7],
  "SliceThickness": 2,
  "SliceTiming": [0, 0.535, 0.09, 0.625, 0.18, 0.7125, 0.2675, 0.8025, 0.3575, 0.8925, 0.445, 0, 0.535, 0.09, 0.625, 0.18, 0.7125, 0.2675, 0.8025, 0.3575, 0.8925, 0.445, 0, 0.535, 0.09, 0.625, 0.18, 0.7125, 0.2675, 0.8025, 0.3575, 0.8925, 0.445, 0, 0.535, 0.09, 0.625, 0.18, 0.7125, 0.2675, 0.8025, 0.3575, 0.8925, 0.445],
  "SoftwareVersions": "syngo MR E11",
  "SpacingBetweenSlices": 2,
  "StationName": "AWP166108",
  "TaskName": "somatotopy",
  "TotalReadoutTime": 0.0735005,
  "TxRefAmp": 237.551,
  "WipMemBlock": "d02baf83-6676-4e35-99f2-7260d8f259e9||Sequence: R016 ve11c/master r/e634e98; Dec 19 2017 11:00:25 by eja",
  "dcmmeta_affine": [
    [-2.0, 0.0, 0.0, 106.0],
    [0.0, 1.9525920152664185, -0.432879239320755, -91.70278930664062],
    [0.0, 0.432879239320755, 1.9525920152664185, -29.209104537963867],
    [0.0, 0.0, 0.0, 1.0]
],
  "dcmmeta_reorient_transform": [
    [0.0, -1.0, 0.0, 105.0],
    [1.0, 0.0, 0.0, 0.0],
    [0.0, 0.0, 1.0, 0.0],
    [0.0, 0.0, 0.0, 1.0]
],
  "dcmmeta_shape": [106, 106, 44, 469],
  "dcmmeta_slice_dim": 2,
  "dcmmeta_version": 0.6,
  "global": {
    "const": {
      "AcquisitionMatrix": [106, 0, 0, 106],
      "AngioFlag": "N",
      "BitsAllocated": 16,
      "BitsStored": 16,
      "BodyPartExamined": "BRAIN",
      "CardiacNumberOfImages": 1,
      "Columns": 742,
      "EchoNumbers": 1,
      "EchoTime": 30.0,
      "EchoTrainLength": 80,
      "FlipAngle": 62.0,
      "HighBit": 15,
      "ImageOrientationPatient": [1.0, 0.0, 0.0, 0.0, 0.97629600560084, -0.2164396207903],
      "ImagePositionPatient": [-742.0, -734.2436311662, 153.89881441392],
      "ImageType": [
        "ORIGINAL",
        "PRIMARY",
        "M",
        "MB",
        "ND",
        "MOSAIC"
],
      "ImagedNucleus": "1H",
      "ImagingFrequency": 123.24368,
      "InPlanePhaseEncodingDirection": "COL",
      "MRAcquisitionType": "2D",
      "MagneticFieldStrength": 3.0,
      "Manufacturer": "SIEMENS",
      "ManufacturerModelName": "Prisma",
      "Modality": "MR",
      "NominalInterval": 0,
      "NumberOfAverages": 1.0,
      "NumberOfPhaseEncodingSteps": 80,
      "PercentPhaseFieldOfView": 100.0,
      "PercentSampling": 100.0,
      "PerformedProcedureStepStartTime": "174506.183000",
      "PhotometricInterpretation": "MONOCHROME2",
      "PixelBandwidth": 1815.0,
      "PixelRepresentation": 0,
      "PixelSpacing": [2.0, 2.0],
      "ProtocolName": "func-bold_task-motor_run-02",
      "RepetitionTime": 1000.0,
      "Rows": 742,
      "SAR": 0.03732336613621,
      "SamplesPerPixel": 1,
      "ScanOptions": [
        "PFP",
        "FS",
        "EXT"
],
      "ScanningSequence": "EP",
      "SequenceName": "epfid2d1_106",
      "SequenceVariant": [
        "SK",
        "SS"
],
      "SeriesDescription": "func-bold_task-motor_run-02",
      "SeriesNumber": 4,
      "SeriesTime": "181018.920000",
      "SliceLocation": -8.6686153183011,
      "SliceThickness": 2.0,
      "SmallestImagePixelValue": 0,
      "SoftwareVersions": "syngo MR E11",
      "SpacingBetweenSlices": 1.9999999431777,
      "SpecificCharacterSet": "ISO_IR 100",
      "StudyID": "1",
      "StudyTime": "174506.122000",
      "TransmitCoilName": "Body",
      "VariableFlipAngleFlag": "N",
      "WindowCenterWidthExplanation": "Algo1",
      "dBdt": 0.0},
    "slices": {}
  },
  "time": {
    "samples": {
      "AcquisitionNumber": [1, 2, 3, 4, 5, 6, 7, 8, 9, 10, 11, 12, 13, 14, 15, 16, 17, 18, 19, 20, 21, 22, 23, 24, 25, 26, 27, 28, 29, 30, 31, 32, 33, 34, 35, 36, 37, 38, 39, 40, 41, 42, 43, 44, 45, 46, 47, 48, 49, 50, 51, 52, 53, 54, 55, 56, 57, 58, 59, 60, 61, 62, 63, 64, 65, 66, 67, 68, 69, 70, 71, 72, 73, 74, 75, 76, 77, 78, 79, 80, 81, 82, 83, 84, 85, 86, 87, 88, 89, 90, 91, 92, 93, 94, 95, 96, 97, 98, 99, 100, 101, 102, 103, 104, 105, 106, 107, 108, 109, 110, 111, 112, 113, 114, 115, 116, 117, 118, 119, 120, 121, 122, 123, 124, 125, 126, 127, 128, 129, 130, 131, 132, 133, 134, 135, 136, 137, 138, 139, 140, 141, 142, 143, 144, 145, 146, 147, 148, 149, 150, 151, 152, 153, 154, 155, 156, 157, 158, 159, 160, 161, 162, 163, 164, 165, 166, 167, 168, 169, 170, 171, 172, 173, 174, 175, 176, 177, 178, 179, 180, 181, 182, 183, 184, 185, 186, 187, 188, 189, 190, 191, 192, 193, 194, 195, 196, 197, 198, 199, 200, 201, 202, 203, 204, 205, 206, 207, 208, 209, 210, 211, 212, 213, 214, 215, 216, 217, 218, 219, 220, 221, 222, 223, 224, 225, 226, 227, 228, 229, 230, 231, 232, 233, 234, 235, 236, 237, 238, 239, 240, 241, 242, 243, 244, 245, 246, 247, 248, 249, 250, 251, 252, 253, 254, 255, 256, 257, 258, 259, 260, 261, 262, 263, 264, 265, 266, 267, 268, 269, 270, 271, 272, 273, 274, 275, 276, 277, 278, 279, 280, 281, 282, 283, 284, 285, 286, 287, 288, 289, 290, 291, 292, 293, 294, 295, 296, 297, 298, 299, 300, 301, 302, 303, 304, 305, 306, 307, 308, 309, 310, 311, 312, 313, 314, 315, 316, 317, 318, 319, 320, 321, 322, 323, 324, 325, 326, 327, 328, 329, 330, 331, 332, 333, 334, 335, 336, 337, 338, 339, 340, 341, 342, 343, 344, 345, 346, 347, 348, 349, 350, 351, 352, 353, 354, 355, 356, 357, 358, 359, 360, 361, 362, 363, 364, 365, 366, 367, 368, 369, 370, 371, 372, 373, 374, 375, 376, 377, 378, 379, 380, 381, 382, 383, 384, 385, 386, 387, 388, 389, 390, 391, 392, 393, 394, 395, 396, 397, 398, 399, 400, 401, 402, 403, 404, 405, 406, 407, 408, 409, 410, 411, 412, 413, 414, 415, 416, 417, 418, 419, 420, 421, 422, 423, 424, 425, 426, 427, 428, 429, 430, 431, 432, 433, 434, 435, 436, 437, 438, 439, 440, 441, 442, 443, 444, 445, 446, 447, 448, 449, 450, 451, 452, 453, 454, 455, 456, 457, 458, 459, 460, 461, 462, 463, 464, 465, 466, 467, 468, 469],
      "AcquisitionTime": ["180943.705000", "180944.705000", "180945.705000", "180946.705000", "180947.705000", "180948.705000", "180949.705000", "180950.705000", "180951.705000", "180952.705000", "180953.705000", "180954.705000", "180955.705000", "180956.705000", "180957.705000", "180958.705000", "180959.705000", "181000.705000", "181001.705000", "181002.705000", "181003.705000", "181004.705000", "181005.705000", "181006.705000", "181007.705000", "181008.705000", "181009.705000", "181010.705000", "181011.705000", "181012.705000", "181013.705000", "181014.705000", "181015.705000", "181016.705000", "181017.705000", "181018.705000", "181019.705000", "181020.705000", "181021.705000", "181022.705000", "181023.705000", "181024.705000", "181025.705000", "181026.705000", "181027.705000", "181028.705000", "181029.705000", "181030.705000", "181031.705000", "181032.705000", "181033.705000", "181034.705000", "181035.705000", "181036.705000", "181037.705000", "181038.705000", "181039.705000", "181040.705000", "181041.705000", "181042.705000", "181043.705000", "181044.705000", "181045.705000", "181046.705000", "181047.705000", "181048.705000", "181049.705000", "181050.705000", "181051.705000", "181052.705000", "181053.705000", "181054.705000", "181055.705000", "181056.705000", "181057.705000", "181058.705000", "181059.705000", "181100.705000", "181101.705000", "181102.705000", "181103.705000", "181104.705000", "181105.705000", "181106.705000", "181107.705000", "181108.705000", "181109.705000", "181110.705000", "181111.705000", "181112.705000", "181113.705000", "181114.705000", "181115.705000", "181116.705000", "181117.705000", "181118.705000", "181119.705000", "181120.705000", "181121.705000", "181122.705000", "181123.705000", "181124.705000", "181125.705000", "181126.705000", "181127.705000", "181128.705000", "181129.705000", "181130.705000", "181131.705000", "181132.705000", "181133.705000", "181134.705000", "181135.705000", "181136.705000", "181137.705000", "181138.705000", "181139.705000", "181140.705000", "181141.705000", "181142.705000", "181143.705000", "181144.705000", "181145.705000", "181146.705000", "181147.705000", "181148.705000", "181149.705000", "181150.705000", "181151.705000", "181152.705000", "181153.705000", "181154.705000", "181155.705000", "181156.705000", "181157.705000", "181158.705000", "181159.705000", "181200.705000", "181201.705000", "181202.705000", "181203.705000", "181204.705000", "181205.705000", "181206.705000", "181207.705000", "181208.705000", "181209.705000", "181210.705000", "181211.705000", "181212.705000", "181213.705000", "181214.705000", "181215.705000", "181216.705000", "181217.705000", "181218.705000", "181219.705000", "181220.705000", "181221.705000", "181222.705000", "181223.705000", "181224.705000", "181225.705000", "181226.705000", "181227.705000", "181228.705000", "181229.705000", "181230.705000", "181231.705000", "181232.705000", "181233.705000", "181234.705000", "181235.705000", "181236.705000", "181237.705000", "181238.705000", "181239.705000", "181240.705000", "181241.705000", "181242.705000", "181243.705000", "181244.705000", "181245.705000", "181246.705000", "181247.705000", "181248.705000", "181249.705000", "181250.705000", "181251.705000", "181252.705000", "181253.705000", "181254.705000", "181255.705000", "181256.705000", "181257.705000", "181258.705000", "181259.705000", "181300.705000", "181301.705000", "181302.705000", "181303.705000", "181304.705000", "181305.705000", "181306.705000", "181307.705000", "181308.705000", "181309.705000", "181310.705000", "181311.705000", "181312.705000", "181313.705000", "181314.705000", "181315.705000", "181316.705000", "181317.705000", "181318.705000", "181319.705000", "181320.705000", "181321.705000", "181322.705000", "181323.705000", "181324.705000", "181325.705000", "181326.705000", "181327.705000", "181328.705000", "181329.705000", "181330.705000", "181331.705000", "181332.705000", "181333.705000", "181334.705000", "181335.705000", "181336.705000", "181337.705000", "181338.705000", "181339.705000", "181340.705000", "181341.705000", "181342.705000", "181343.705000", "181344.705000", "181345.705000", "181346.705000", "181347.705000", "181348.705000", "181349.705000", "181350.705000", "181351.705000", "181352.705000", "181353.705000", "181354.705000", "181355.705000", "181356.705000", "181357.705000", "181358.705000", "181359.705000", "181400.705000", "181401.705000", "181402.705000", "181403.705000", "181404.705000", "181405.705000", "181406.705000", "181407.705000", "181408.705000", "181409.705000", "181410.705000", "181411.705000", "181412.705000", "181413.705000", "181414.705000", "181415.705000", "181416.705000", "181417.705000", "181418.705000", "181419.705000", "181420.705000", "181421.705000", "181422.705000", "181423.705000", "181424.705000", "181425.705000", "181426.705000", "181427.705000", "181428.705000", "181429.705000", "181430.705000", "181431.705000", "181432.705000", "181433.705000", "181434.705000", "181435.705000", "181436.705000", "181437.705000", "181438.705000", "181439.705000", "181440.705000", "181441.705000", "181442.705000", "181443.705000", "181444.705000", "181445.705000", "181446.705000", "181447.705000", "181448.705000", "181449.705000", "181450.705000", "181451.705000", "181452.705000", "181453.705000", "181454.705000", "181455.705000", "181456.705000", "181457.705000", "181458.705000", "181459.705000", "181500.705000", "181501.705000", "181502.705000", "181503.705000", "181504.705000", "181505.705000", "181506.705000", "181507.705000", "181508.705000", "181509.705000", "181510.705000", "181511.705000", "181512.705000", "181513.705000", "181514.705000", "181515.705000", "181516.705000", "181517.705000", "181518.705000", "181519.705000", "181520.705000", "181521.705000", "181522.705000", "181523.705000", "181524.705000", "181525.705000", "181526.705000", "181527.705000", "181528.705000", "181529.705000", "181530.705000", "181531.705000", "181532.705000", "181533.705000", "181534.705000", "181535.705000", "181536.705000", "181537.705000", "181538.705000", "181539.705000", "181540.705000", "181541.705000", "181542.705000", "181543.705000", "181544.705000", "181545.705000", "181546.705000", "181547.705000", "181548.705000", "181549.705000", "181550.705000", "181551.705000", "181552.705000", "181553.705000", "181554.705000", "181555.705000", "181556.705000", "181557.705000", "181558.705000", "181559.705000", "181600.705000", "181601.705000", "181602.705000", "181603.705000", "181604.705000", "181605.705000", "181606.705000", "181607.705000", "181608.705000", "181609.705000", "181610.705000", "181611.705000", "181612.705000", "181613.705000", "181614.705000", "181615.705000", "181616.705000", "181617.705000", "181618.705000", "181619.705000", "181620.705000", "181621.705000", "181622.705000", "181623.705000", "181624.705000", "181625.705000", "181626.705000", "181627.705000", "181628.705000", "181629.705000", "181630.705000", "181631.705000", "181632.705000", "181633.705000", "181634.705000", "181635.705000", "181636.705000", "181637.705000", "181638.705000", "181639.705000", "181640.705000", "181641.705000", "181642.705000", "181643.705000", "181644.705000", "181645.705000", "181646.705000", "181647.705000", "181648.705000", "181649.705000", "181650.705000", "181651.705000", "181652.705000", "181653.705000", "181654.705000", "181655.705000", "181656.705000", "181657.705000", "181658.705000", "181659.705000", "181700.705000", "181701.705000", "181702.705000", "181703.705000", "181704.705000", "181705.705000", "181706.705000", "181707.705000", "181708.705000", "181709.705000", "181710.705000", "181711.705000", "181712.705000", "181713.705000", "181714.705000", "181715.705000", "181716.705000", "181717.705000", "181718.705000", "181719.705000", "181720.705000", "181721.705000", "181722.705000", "181723.705000", "181724.705000", "181725.705000", "181726.705000", "181727.705000", "181728.705000", "181729.705000", "181730.705000", "181731.705000"],
      "ContentTime": ["181018.922000", "181018.925000", "181018.928000", "181018.930000", "181018.932000", "181018.935000", "181018.937000", "181018.940000", "181018.942000", "181018.944000", "181018.947000", "181018.949000", "181018.952000", "181018.954000", "181018.957000", "181018.959000", "181018.967000", "181018.970000", "181018.972000", "181018.974000", "181018.977000", "181018.979000", "181018.982000", "181018.984000", "181018.987000", "181018.989000", "181018.991000", "181018.994000", "181018.996000", "181019.000000", "181019.002000", "181019.005000", "181019.007000", "181019.010000", "181038.891000", "181038.893000", "181038.896000", "181038.898000", "181038.901000", "181038.903000", "181038.905000", "181038.908000", "181038.910000", "181038.913000", "181038.915000", "181038.917000", "181038.920000", "181038.922000", "181038.925000", "181038.927000", "181038.930000", "181038.932000", "181038.934000", "181038.937000", "181058.890000", "181058.893000", "181058.895000", "181058.898000", "181058.900000", "181058.903000", "181058.905000", "181058.908000", "181058.910000", "181058.912000", "181058.915000", "181058.917000", "181058.920000", "181058.922000", "181058.925000", "181058.927000", "181058.929000", "181058.932000", "181058.934000", "181058.937000", "181118.890000", "181118.893000", "181118.896000", "181118.898000", "181118.901000", "181118.903000", "181118.905000", "181118.908000", "181118.910000", "181118.913000", "181118.915000", "181118.918000", "181118.920000", "181118.922000", "181118.925000", "181118.927000", "181118.930000", "181118.932000", "181118.934000", "181118.937000", "181138.890000", "181138.893000", "181138.896000", "181138.898000", "181138.900000", "181138.903000", "181138.905000", "181138.908000", "181138.910000", "181138.913000", "181138.915000", "181138.917000", "181138.920000", "181138.922000", "181138.925000", "181138.927000", "181138.929000", "181138.932000", "181138.934000", "181138.937000", "181158.891000", "181158.894000", "181158.896000", "181158.899000", "181158.901000", "181158.904000", "181158.906000", "181158.908000", "181158.911000", "181158.913000", "181158.916000", "181158.918000", "181158.920000", "181158.923000", "181158.925000", "181158.928000", "181158.930000", "181158.933000", "181158.935000", "181158.937000", "181218.891000", "181218.894000", "181218.897000", "181218.899000", "181218.902000", "181218.904000", "181218.906000", "181218.909000", "181218.911000", "181218.914000", "181218.916000", "181218.919000", "181218.921000", "181218.924000", "181218.926000", "181218.928000", "181218.931000", "181218.933000", "181218.936000", "181218.938000", "181238.891000", "181238.893000", "181238.896000", "181238.898000", "181238.901000", "181238.903000", "181238.905000", "181238.908000", "181238.910000", "181238.913000", "181238.915000", "181238.925000", "181238.928000", "181238.930000", "181238.932000", "181238.935000", "181238.937000", "181238.940000", "181238.942000", "181238.944000", "181258.890000", "181258.893000", "181258.895000", "181258.898000", "181258.900000", "181258.903000", "181258.905000", "181258.908000", "181258.910000", "181258.913000", "181258.915000", "181258.917000", "181258.920000", "181258.922000", "181258.925000", "181258.927000", "181258.929000", "181258.932000", "181258.934000", "181258.937000", "181318.890000", "181318.893000", "181318.896000", "181318.898000", "181318.900000", "181318.903000", "181318.905000", "181318.908000", "181318.910000", "181318.912000", "181318.915000", "181318.917000", "181318.920000", "181318.922000", "181318.925000", "181318.927000", "181318.929000", "181318.932000", "181318.934000", "181318.937000", "181338.890000", "181338.893000", "181338.896000", "181338.898000", "181338.900000", "181338.903000", "181338.905000", "181338.908000", "181338.910000", "181338.913000", "181338.915000", "181338.917000", "181338.920000", "181338.922000", "181338.925000", "181338.927000", "181338.930000", "181338.932000", "181338.935000", "181338.937000", "181358.890000", "181358.893000", "181358.895000", "181358.898000", "181358.900000", "181358.903000", "181358.905000", "181358.908000", "181358.910000", "181358.912000", "181358.915000", "181358.917000", "181358.920000", "181358.922000", "181358.925000", "181358.927000", "181358.930000", "181358.932000", "181358.935000", "181358.937000", "181418.891000", "181418.894000", "181418.897000", "181418.899000", "181418.901000", "181418.904000", "181418.906000", "181418.909000", "181418.911000", "181418.914000", "181418.916000", "181418.919000", "181418.921000", "181418.924000", "181418.926000", "181418.928000", "181418.931000", "181418.933000", "181418.936000", "181418.938000", "181438.891000", "181438.894000", "181438.897000", "181438.899000", "181438.902000", "181438.904000", "181438.906000", "181438.909000", "181438.911000", "181438.914000", "181438.916000", "181438.919000", "181438.921000", "181438.923000", "181438.926000", "181438.928000", "181438.931000", "181438.933000", "181438.936000", "181438.938000", "181458.890000", "181458.893000", "181458.896000", "181458.898000", "181458.901000", "181458.903000", "181458.906000", "181458.908000", "181458.910000", "181458.913000", "181458.915000", "181458.918000", "181458.920000", "181458.922000", "181458.925000", "181458.927000", "181458.930000", "181458.932000", "181458.935000", "181458.937000", "181518.890000", "181518.893000", "181518.895000", "181518.898000", "181518.900000", "181518.903000", "181518.905000", "181518.908000", "181518.916000", "181518.919000", "181518.921000", "181518.924000", "181518.926000", "181518.928000", "181518.931000", "181518.933000", "181518.936000", "181518.938000", "181518.941000", "181518.943000", "181538.890000", "181538.893000", "181538.896000", "181538.898000", "181538.900000", "181538.903000", "181538.905000", "181538.908000", "181538.910000", "181538.913000", "181538.915000", "181538.918000", "181538.920000", "181538.922000", "181538.925000", "181538.927000", "181538.930000", "181538.932000", "181538.935000", "181538.937000", "181558.890000", "181558.893000", "181558.896000", "181558.898000", "181558.900000", "181558.903000", "181558.905000", "181558.918000", "181558.921000", "181558.923000", "181558.926000", "181558.928000", "181558.930000", "181558.933000", "181558.935000", "181558.938000", "181558.940000", "181558.943000", "181558.945000", "181558.947000", "181618.890000", "181618.893000", "181618.896000", "181618.898000", "181618.901000", "181618.903000", "181618.906000", "181618.908000", "181618.910000", "181618.913000", "181618.915000", "181618.918000", "181618.920000", "181618.923000", "181618.925000", "181618.927000", "181618.930000", "181618.932000", "181618.935000", "181618.937000", "181638.891000", "181638.894000", "181638.897000", "181638.899000", "181638.902000", "181638.904000", "181638.906000", "181638.909000", "181638.911000", "181638.914000", "181638.916000", "181638.919000", "181638.921000", "181638.924000", "181638.926000", "181638.928000", "181638.931000", "181638.933000", "181638.936000", "181638.938000", "181658.892000", "181658.894000", "181658.897000", "181658.899000", "181658.902000", "181658.904000", "181658.907000", "181658.909000", "181658.912000", "181658.914000", "181658.916000", "181658.919000", "181658.921000", "181658.924000", "181658.926000", "181658.929000", "181658.931000", "181658.934000", "181658.936000", "181658.938000", "181718.890000", "181718.893000", "181718.896000", "181718.898000", "181718.900000", "181718.903000", "181718.905000", "181718.908000", "181718.910000", "181718.913000", "181718.915000", "181718.918000", "181718.920000", "181718.923000", "181718.925000", "181718.928000", "181718.930000", "181718.932000", "181718.935000", "181718.937000", "181733.701000", "181733.704000", "181733.706000", "181733.708000", "181733.711000", "181733.714000", "181733.716000", "181733.719000", "181733.721000", "181733.723000", "181733.726000", "181733.728000", "181733.731000", "181733.733000", "181733.736000"],
