{
  "AcquisitionMatrixPE": 106,
  "AcquisitionNumber": 1,
  "AcquisitionTime": "18:49:4.772500",
  "BandwidthPerPixelPhaseEncode": 16.846,
  "BaseResolution": 106,
  "BodyPartExamined": "BRAIN",
  "CoilCombinationMethod": "Sum of Squares",
  "ConsistencyInfo": "N4_VE11C_LATEST_20160120",
  "ConversionSoftware": "dcm2niix",
  "ConversionSoftwareVersion": "v1.0.20220720",
  "DerivedVendorReportedEchoSpacing": 0.000560012,
  "DeviceSerialNumber": "166108",
  "DwellTime": 1.8e-06,
  "EchoTime": 0.0352,
  "EchoTrainLength": 106,
  "EffectiveEchoSpacing": 0.000560012,
  "FlipAngle": 60,
  "HeudiconvVersion": "1.3.0",
  "ImageComments": "Unaliased MB4/PE3/LB",
  "ImageOrientationPatientDICOM": [1, 0, 0, 0, 0.913545, -0.406737],
  "ImageOrientationText": "Tra>Cor(-24.0)",
  "ImageType": [
    "ORIGINAL",
    "PRIMARY",
    "M",
    "MB",
    "ND",
    "MOSAIC"
],
  "ImagingFrequency": 123.244,
  "InPlanePhaseEncodingDirectionDICOM": "COL",
  "InstitutionAddress": "Bedford Way 26,London,London,GB,WC1H 0AP",
  "InstitutionName": "University College",
  "InstitutionalDepartmentName": "Department",
  "MRAcquisitionType": "2D",
  "MagneticFieldStrength": 3,
  "Manufacturer": "Siemens",
  "ManufacturersModelName": "Prisma",
  "MatrixCoilMode": "SENSE",
  "Modality": "MR",
  "MultibandAccelerationFactor": 4,
  "NonlinearGradientCorrection": false,
  "PartialFourier": 1,
  "PatientPosition": "HFS",
  "PercentPhaseFOV": 100,
  "PercentSampling": 100,
  "PhaseEncodingDirection": "j-",
  "PhaseEncodingSteps": 106,
  "PhaseResolution": 1,
  "PixelBandwidth": 2620,
  "ProcedureStepDescription": "Egor^MovieProject2",
  "ProtocolName": "func-bold_task-pRF_run-03",
  "PulseSequenceDetails": "%CustomerSeq%\\cmrr_mbep2d_bold",
  "ReceiveCoilActiveElements": "HEA;HEP",
  "ReceiveCoilName": "Head_32",
  "ReconMatrixPE": 106,
  "RepetitionTime": 1,
  "SAR": 0.0668559,
  "ScanOptions": "FS\\EXT",
  "ScanningSequence": "EP",
  "SequenceName": "epfid2d1_106",
  "SequenceVariant": "SK\\SS",
  "SeriesDescription": "func-bold_task-pRF_run-03",
  "SeriesNumber": 16,
  "ShimSetting": [-1602, 679, 7402, 331, -13, 355, -32, 29],
  "SliceThickness": 2,
  "SliceTiming": [0, 0.4075, 0.815, 0.245, 0.6525, 0.08, 0.49, 0.8975, 0.325, 0.735, 0.1625, 0.57, 0, 0.4075, 0.815, 0.245, 0.6525, 0.08, 0.49, 0.8975, 0.325, 0.735, 0.1625, 0.57, 0, 0.4075, 0.815, 0.245, 0.6525, 0.08, 0.49, 0.8975, 0.325, 0.735, 0.1625, 0.57, 0, 0.4075, 0.815, 0.245, 0.6525, 0.08, 0.49, 0.8975, 0.325, 0.735, 0.1625, 0.57],
  "SoftwareVersions": "syngo MR E11",
  "SpacingBetweenSlices": 2,
  "StationName": "AWP166108",
  "TaskName": "retinotopy",
  "TotalReadoutTime": 0.0588013,
  "TxRefAmp": 237.551,
  "WipMemBlock": "f2e8829f-5e15-4105-9f43-3fa13225e5e1||Sequence: R016 ve11c/master r/e634e98; Dec 19 2017 11:00:25 by eja",
  "dcmmeta_affine": [
    [-2.0, 0.0, 0.0, 106.0],
    [0.0, 1.827090859413147, -0.8134732842445374, -77.12583923339844],
    [0.0, 0.8134732842445374, 1.827090859413147, -55.0107421875],
    [0.0, 0.0, 0.0, 1.0]
],
  "dcmmeta_reorient_transform": [
    [0.0, -1.0, 0.0, 105.0],
    [1.0, 0.0, 0.0, 0.0],
    [0.0, 0.0, 1.0, 0.0],
    [0.0, 0.0, 0.0, 1.0]
],
  "dcmmeta_shape": [106, 106, 48, 356],
  "dcmmeta_slice_dim": 2,
  "dcmmeta_version": 0.6,
  "global": {
    "const": {
      "AcquisitionMatrix": [106, 0, 0, 106],
      "AngioFlag": "N",
      "BitsAllocated": 16,
      "BitsStored": 16,
      "BodyPartExamined": "BRAIN",
      "CardiacNumberOfImages": 1,
      "Columns": 742,
      "EchoNumbers": 1,
      "EchoTime": 35.2,
      "EchoTrainLength": 106,
      "FlipAngle": 60.0,
      "HighBit": 15,
      "ImageOrientationPatient": [1.0, 0.0, 0.0, 0.0, 0.91354545891661, -0.4067366402143],
      "ImagePositionPatient": [-742.0, -695.73361740272, 289.08845634751],
      "ImageType": [
        "ORIGINAL",
        "PRIMARY",
        "M",
        "MB",
        "ND",
        "MOSAIC"
],
      "ImagedNucleus": "1H",
      "ImagingFrequency": 123.243689,
      "InPlanePhaseEncodingDirection": "COL",
      "MRAcquisitionType": "2D",
      "MagneticFieldStrength": 3.0,
      "Manufacturer": "SIEMENS",
      "ManufacturerModelName": "Prisma",
      "Modality": "MR",
      "NominalInterval": 0,
      "NumberOfAverages": 1.0,
      "NumberOfPhaseEncodingSteps": 106,
      "PercentPhaseFieldOfView": 100.0,
      "PercentSampling": 100.0,
      "PerformedProcedureStepStartTime": "174506.183000",
      "PhotometricInterpretation": "MONOCHROME2",
      "PixelBandwidth": 2620.0,
      "PixelRepresentation": 0,
      "PixelSpacing": [2.0, 2.0],
      "ProtocolName": "func-bold_task-pRF_run-03",
      "RepetitionTime": 1000.0,
      "Rows": 742,
      "SAR": 0.06685587431025,
      "SamplesPerPixel": 1,
      "ScanOptions": [
        "FS",
        "EXT"
],
      "ScanningSequence": "EP",
      "SequenceName": "epfid2d1_106",
      "SequenceVariant": [
        "SK",
        "SS"
],
      "SeriesDescription": "func-bold_task-pRF_run-03",
      "SeriesNumber": 16,
      "SeriesTime": "184938.922000",
      "SliceLocation": -18.88490750507,
      "SliceThickness": 2.0,
      "SmallestImagePixelValue": 0,
      "SoftwareVersions": "syngo MR E11",
      "SpacingBetweenSlices": 1.9999999376207,
      "SpecificCharacterSet": "ISO_IR 100",
      "StudyID": "1",
      "StudyTime": "174506.122000",
      "TransmitCoilName": "Body",
      "VariableFlipAngleFlag": "N",
      "WindowCenterWidthExplanation": "Algo1",
      "dBdt": 0.0},
    "slices": {}
  },
  "time": {
    "samples": {
      "AcquisitionNumber": [1, 2, 3, 4, 5, 6, 7, 8, 9, 10, 11, 12, 13, 14, 15, 16, 17, 18, 19, 20, 21, 22, 23, 24, 25, 26, 27, 28, 29, 30, 31, 32, 33, 34, 35, 36, 37, 38, 39, 40, 41, 42, 43, 44, 45, 46, 47, 48, 49, 50, 51, 52, 53, 54, 55, 56, 57, 58, 59, 60, 61, 62, 63, 64, 65, 66, 67, 68, 69, 70, 71, 72, 73, 74, 75, 76, 77, 78, 79, 80, 81, 82, 83, 84, 85, 86, 87, 88, 89, 90, 91, 92, 93, 94, 95, 96, 97, 98, 99, 100, 101, 102, 103, 104, 105, 106, 107, 108, 109, 110, 111, 112, 113, 114, 115, 116, 117, 118, 119, 120, 121, 122, 123, 124, 125, 126, 127, 128, 129, 130, 131, 132, 133, 134, 135, 136, 137, 138, 139, 140, 141, 142, 143, 144, 145, 146, 147, 148, 149, 150, 151, 152, 153, 154, 155, 156, 157, 158, 159, 160, 161, 162, 163, 164, 165, 166, 167, 168, 169, 170, 171, 172, 173, 174, 175, 176, 177, 178, 179, 180, 181, 182, 183, 184, 185, 186, 187, 188, 189, 190, 191, 192, 193, 194, 195, 196, 197, 198, 199, 200, 201, 202, 203, 204, 205, 206, 207, 208, 209, 210, 211, 212, 213, 214, 215, 216, 217, 218, 219, 220, 221, 222, 223, 224, 225, 226, 227, 228, 229, 230, 231, 232, 233, 234, 235, 236, 237, 238, 239, 240, 241, 242, 243, 244, 245, 246, 247, 248, 249, 250, 251, 252, 253, 254, 255, 256, 257, 258, 259, 260, 261, 262, 263, 264, 265, 266, 267, 268, 269, 270, 271, 272, 273, 274, 275, 276, 277, 278, 279, 280, 281, 282, 283, 284, 285, 286, 287, 288, 289, 290, 291, 292, 293, 294, 295, 296, 297, 298, 299, 300, 301, 302, 303, 304, 305, 306, 307, 308, 309, 310, 311, 312, 313, 314, 315, 316, 317, 318, 319, 320, 321, 322, 323, 324, 325, 326, 327, 328, 329, 330, 331, 332, 333, 334, 335, 336, 337, 338, 339, 340, 341, 342, 343, 344, 345, 346, 347, 348, 349, 350, 351, 352, 353, 354, 355, 356],
      "AcquisitionTime": ["184904.772500", "184905.772500", "184906.772500", "184907.772500", "184908.772500", "184909.772500", "184910.772500", "184911.772500", "184912.772500", "184913.772500", "184914.772500", "184915.772500", "184916.772500", "184917.772500", "184918.772500", "184919.772500", "184920.772500", "184921.772500", "184922.772500", "184923.772500", "184924.772500", "184925.772500", "184926.772500", "184927.772500", "184928.772500", "184929.772500", "184930.772500", "184931.772500", "184932.772500", "184933.772500", "184934.772500", "184935.772500", "184936.772500", "184937.772500", "184938.772500", "184939.772500", "184940.772500", "184941.772500", "184942.772500", "184943.772500", "184944.772500", "184945.772500", "184946.772500", "184947.772500", "184948.772500", "184949.772500", "184950.772500", "184951.772500", "184952.772500", "184953.772500", "184954.772500", "184955.772500", "184956.772500", "184957.772500", "184958.772500", "184959.772500", "185000.772500", "185001.772500", "185002.772500", "185003.772500", "185004.772500", "185005.772500", "185006.772500", "185007.772500", "185008.772500", "185009.772500", "185010.772500", "185011.772500", "185012.772500", "185013.772500", "185014.772500", "185015.772500", "185016.772500", "185017.772500", "185018.772500", "185019.772500", "185020.772500", "185021.772500", "185022.772500", "185023.772500", "185024.772500", "185025.772500", "185026.772500", "185027.772500", "185028.772500", "185029.772500", "185030.772500", "185031.772500", "185032.772500", "185033.772500", "185034.772500", "185035.772500", "185036.772500", "185037.772500", "185038.772500", "185039.772500", "185040.772500", "185041.772500", "185042.772500", "185043.772500", "185044.772500", "185045.772500", "185046.772500", "185047.772500", "185048.772500", "185049.772500", "185050.772500", "185051.772500", "185052.772500", "185053.772500", "185054.772500", "185055.772500", "185056.772500", "185057.772500", "185058.772500", "185059.772500", "185100.772500", "185101.772500", "185102.772500", "185103.772500", "185104.772500", "185105.772500", "185106.772500", "185107.772500", "185108.772500", "185109.772500", "185110.772500", "185111.772500", "185112.772500", "185113.772500", "185114.772500", "185115.772500", "185116.772500", "185117.772500", "185118.772500", "185119.772500", "185120.772500", "185121.772500", "185122.772500", "185123.772500", "185124.772500", "185125.772500", "185126.772500", "185127.772500", "185128.772500", "185129.772500", "185130.772500", "185131.772500", "185132.772500", "185133.772500", "185134.772500", "185135.772500", "185136.772500", "185137.772500", "185138.772500", "185139.772500", "185140.772500", "185141.772500", "185142.772500", "185143.772500", "185144.772500", "185145.772500", "185146.772500", "185147.772500", "185148.772500", "185149.772500", "185150.772500", "185151.772500", "185152.772500", "185153.772500", "185154.772500", "185155.772500", "185156.772500", "185157.772500", "185158.772500", "185159.772500", "185200.772500", "185201.772500", "185202.772500", "185203.772500", "185204.772500", "185205.772500", "185206.772500", "185207.772500", "185208.772500", "185209.772500", "185210.772500", "185211.772500", "185212.772500", "185213.772500", "185214.772500", "185215.772500", "185216.772500", "185217.772500", "185218.772500", "185219.772500", "185220.772500", "185221.772500", "185222.772500", "185223.772500", "185224.772500", "185225.772500", "185226.772500", "185227.772500", "185228.772500", "185229.772500", "185230.772500", "185231.772500", "185232.772500", "185233.772500", "185234.772500", "185235.772500", "185236.772500", "185237.772500", "185238.772500", "185239.772500", "185240.772500", "185241.772500", "185242.772500", "185243.772500", "185244.772500", "185245.772500", "185246.772500", "185247.772500", "185248.772500", "185249.772500", "185250.772500", "185251.772500", "185252.772500", "185253.772500", "185254.772500", "185255.772500", "185256.772500", "185257.772500", "185258.772500", "185259.772500", "185300.772500", "185301.772500", "185302.772500", "185303.772500", "185304.772500", "185305.772500", "185306.772500", "185307.772500", "185308.772500", "185309.772500", "185310.772500", "185311.772500", "185312.772500", "185313.772500", "185314.772500", "185315.772500", "185316.772500", "185317.772500", "185318.772500", "185319.772500", "185320.772500", "185321.772500", "185322.772500", "185323.772500", "185324.772500", "185325.772500", "185326.772500", "185327.772500", "185328.772500", "185329.772500", "185330.772500", "185331.772500", "185332.772500", "185333.772500", "185334.772500", "185335.772500", "185336.772500", "185337.772500", "185338.772500", "185339.772500", "185340.772500", "185341.772500", "185342.772500", "185343.772500", "185344.772500", "185345.772500", "185346.772500", "185347.772500", "185348.772500", "185349.772500", "185350.772500", "185351.772500", "185352.772500", "185353.772500", "185354.772500", "185355.772500", "185356.772500", "185357.772500", "185358.772500", "185359.772500", "185400.772500", "185401.772500", "185402.772500", "185403.772500", "185404.772500", "185405.772500", "185406.772500", "185407.772500", "185408.772500", "185409.772500", "185410.772500", "185411.772500", "185412.772500", "185413.772500", "185414.772500", "185415.772500", "185416.772500", "185417.772500", "185418.772500", "185419.772500", "185420.772500", "185421.772500", "185422.772500", "185423.772500", "185424.772500", "185425.772500", "185426.772500", "185427.772500", "185428.772500", "185429.772500", "185430.772500", "185431.772500", "185432.772500", "185433.772500", "185434.772500", "185435.772500", "185436.772500", "185437.772500", "185438.772500", "185439.772500", "185440.772500", "185441.772500", "185442.772500", "185443.772500", "185444.772500", "185445.772500", "185446.772500", "185447.772500", "185448.772500", "185449.772500", "185450.772500", "185451.772500", "185452.772500", "185453.772500", "185454.772500", "185455.772500", "185456.772500", "185457.772500", "185458.772500", "185459.772500"],
      "ContentTime": ["184938.925000", "184938.928000", "184938.930000", "184938.933000", "184938.936000", "184938.938000", "184938.941000", "184938.944000", "184938.947000", "184938.950000", "184938.952000", "184938.955000", "184938.957000", "184938.960000", "184938.970000", "184938.973000", "184938.976000", "184938.984000", "184938.986000", "184938.989000", "184938.991000", "184938.994000", "184938.996000", "184938.999000", "184939.001000", "184939.004000", "184939.007000", "184939.009000", "184939.012000", "184939.014000", "184939.017000", "184939.020000", "184939.022000", "184958.890000", "184958.893000", "184958.902000", "184958.905000", "184958.907000", "184958.910000", "184958.912000", "184958.915000", "184958.917000", "184958.920000", "184958.922000", "184958.925000", "184958.927000", "184958.929000", "184958.932000", "184958.934000", "184958.937000", "184958.939000", "184958.942000", "184958.944000", "185018.890000", "185018.893000", "185018.895000", "185018.898000", "185018.900000", "185018.903000", "185018.905000", "185018.908000", "185018.910000", "185018.913000", "185018.915000", "185018.917000", "185018.920000", "185018.922000", "185018.925000", "185018.927000", "185018.930000", "185018.932000", "185018.934000", "185018.937000", "185038.890000", "185038.893000", "185038.895000", "185038.898000", "185038.900000", "185038.903000", "185038.905000", "185038.908000", "185038.910000", "185038.913000", "185038.915000", "185038.917000", "185038.920000", "185038.922000", "185038.925000", "185038.927000", "185038.930000", "185038.932000", "185038.935000", "185038.937000", "185058.891000", "185058.893000", "185058.896000", "185058.898000", "185058.901000", "185058.903000", "185058.905000", "185058.908000", "185058.910000", "185058.913000", "185058.915000", "185058.917000", "185058.920000", "185058.922000", "185058.925000", "185058.927000", "185058.930000", "185058.932000", "185058.934000", "185058.937000", "185118.891000", "185118.894000", "185118.897000", "185118.899000", "185118.902000", "185118.904000", "185118.907000", "185118.909000", "185118.912000", "185118.914000", "185118.916000", "185118.919000", "185118.921000", "185118.924000", "185118.926000", "185118.929000", "185118.931000", "185118.933000", "185118.944000", "185118.946000", "185138.891000", "185138.894000", "185138.896000", "185138.899000", "185138.901000", "185138.904000", "185138.906000", "185138.909000", "185138.911000", "185138.914000", "185138.916000", "185138.919000", "185138.921000", "185138.924000", "185138.926000", "185138.928000", "185138.931000", "185138.933000", "185138.936000", "185138.938000", "185158.890000", "185158.893000", "185158.896000", "185158.903000", "185158.906000", "185158.909000", "185158.911000", "185158.913000", "185158.916000", "185158.918000", "185158.921000", "185158.923000", "185158.926000", "185158.929000", "185158.931000", "185158.934000", "185158.937000", "185158.939000", "185158.942000", "185158.945000", "185218.890000", "185218.893000", "185218.896000", "185218.898000", "185218.900000", "185218.903000", "185218.905000", "185218.908000", "185218.910000", "185218.913000", "185218.915000", "185218.918000", "185218.920000", "185218.922000", "185218.925000", "185218.927000", "185218.930000", "185218.932000", "185218.935000", "185218.937000", "185238.890000", "185238.893000", "185238.896000", "185238.898000", "185238.900000", "185238.903000", "185238.905000", "185238.908000", "185238.910000", "185238.913000", "185238.915000", "185238.918000", "185238.920000", "185238.923000", "185238.925000", "185238.927000", "185238.930000", "185238.932000", "185238.935000", "185238.937000", "185258.890000", "185258.893000", "185258.896000", "185258.898000", "185258.901000", "185258.903000", "185258.906000", "185258.908000", "185258.910000", "185258.913000", "185258.915000", "185258.918000", "185258.920000", "185258.923000", "185258.925000", "185258.928000", "185258.930000", "185258.946000", "185258.949000", "185258.951000", "185318.890000", "185318.893000", "185318.896000", "185318.898000", "185318.901000", "185318.903000", "185318.905000", "185318.908000", "185318.910000", "185318.913000", "185318.915000", "185318.918000", "185318.920000", "185318.923000", "185318.925000", "185318.927000", "185318.930000", "185318.932000", "185318.935000", "185318.937000", "185338.891000", "185338.903000", "185338.906000", "185338.909000", "185338.911000", "185338.914000", "185338.916000", "185338.919000", "185338.921000", "185338.924000", "185338.926000", "185338.929000", "185338.931000", "185338.933000", "185338.936000", "185338.938000", "185338.941000", "185338.943000", "185338.946000", "185338.948000", "185358.891000", "185358.894000", "185358.897000", "185358.899000", "185358.902000", "185358.904000", "185358.907000", "185358.909000", "185358.912000", "185358.914000", "185358.917000", "185358.919000", "185358.921000", "185358.924000", "185358.926000", "185358.929000", "185358.931000", "185358.934000", "185358.936000", "185358.939000", "185418.890000", "185418.893000", "185418.896000", "185418.898000", "185418.901000", "185418.903000", "185418.906000", "185418.908000", "185418.911000", "185418.913000", "185418.916000", "185418.918000", "185418.921000", "185418.923000", "185418.926000", "185418.928000", "185418.931000", "185418.933000", "185418.936000", "185418.938000", "185438.890000", "185438.893000", "185438.896000", "185438.898000", "185438.901000", "185438.903000", "185438.906000", "185438.908000", "185438.911000", "185438.913000", "185438.916000", "185438.918000", "185438.921000", "185438.923000", "185438.926000", "185438.928000", "185438.931000", "185438.933000", "185438.935000", "185438.938000", "185458.891000", "185458.893000", "185458.896000", "185458.898000", "185458.911000", "185458.914000", "185458.916000", "185458.919000", "185458.921000", "185458.924000", "185458.926000", "185458.929000", "185458.931000", "185458.933000", "185458.936000", "185458.938000", "185458.941000", "185458.943000", "185458.946000", "185458.948000", "185501.621000", "185501.625000", "185501.628000"],
      "InstanceCreationTime": ["184938.925000", "184938.928000", "184938.930000", "184938.933000", "184938.936000", "184938.938000", "184938.941000", "184938.944000", "184938.947000", "184938.950000", "184938.952000", "184938.955000", "184938.957000", "184938.960000", "184938.970000", "184938.973000", "184938.976000", "184938.984000", "184938.986000", "184938.989000", "184938.991000", "184938.994000", "184938.996000", "184938.999000", "184939.001000", "184939.004000", "184939.007000", "184939.009000", "184939.012000", "184939.014000", "184939.017000", "184939.020000", "184939.022000", "184958.890000", "184958.893000", "184958.902000", "184958.905000", "184958.907000", "184958.910000", "184958.912000", "184958.915000", "184958.917000", "184958.920000", "184958.922000", "184958.925000", "184958.927000", "184958.929000", "184958.932000", "184958.934000", "184958.937000", "184958.939000", "184958.942000", "184958.944000", "185018.890000", "185018.893000", "185018.895000", "185018.898000", "185018.900000", "185018.903000", "185018.905000", "185018.908000", "185018.910000", "185018.913000", "185018.915000", "185018.917000", "185018.920000", "185018.922000", "185018.925000", "185018.927000", "185018.930000", "185018.932000", "185018.934000", "185018.937000", "185038.890000", "185038.893000", "185038.895000", "185038.898000", "185038.900000", "185038.903000", "185038.905000", "185038.908000", "185038.910000", "185038.913000", "185038.915000", "185038.917000", "185038.920000", "185038.922000", "185038.925000", "185038.927000", "185038.930000", "185038.932000", "185038.935000", "185038.937000", "185058.891000", "185058.893000", "185058.896000", "185058.898000", "185058.901000", "185058.903000", "185058.905000", "185058.908000", "185058.910000", "185058.913000", "185058.915000", "185058.917000", "185058.920000", "185058.922000", "185058.925000", "185058.927000", "185058.930000", "185058.932000", "185058.934000", "185058.937000", "185118.891000", "185118.894000", "185118.897000", "185118.899000", "185118.902000", "185118.904000", "185118.907000", "185118.909000", "185118.912000", "185118.914000", "185118.916000", "185118.919000", "185118.921000", "185118.924000", "185118.926000", "185118.929000", "185118.931000", "185118.933000", "185118.944000", "185118.946000", "185138.891000", "185138.894000", "185138.896000", "185138.899000", "185138.901000", "185138.904000", "185138.906000", "185138.909000", "185138.911000", "185138.914000", "185138.916000", "185138.919000", "185138.921000", "185138.924000", "185138.926000", "185138.928000", "185138.931000", "185138.933000", "185138.936000", "185138.938000", "185158.890000", "185158.893000", "185158.896000", "185158.903000", "185158.906000", "185158.909000", "185158.911000", "185158.913000", "185158.916000", "185158.918000", "185158.921000", "185158.923000", "185158.926000", "185158.929000", "185158.931000", "185158.934000", "185158.937000", "185158.939000", "185158.942000", "185158.945000", "185218.890000", "185218.893000", "185218.896000", "185218.898000", "185218.900000", "185218.903000", "185218.905000", "185218.908000", "185218.910000", "185218.913000", "185218.915000", "185218.918000", "185218.920000", "185218.922000", "185218.925000", "185218.927000", "185218.930000", "185218.932000", "185218.935000", "185218.937000", "185238.890000", "185238.893000", "185238.896000", "185238.898000", "185238.900000", "185238.903000", "185238.905000", "185238.908000", "185238.910000", "185238.913000", "185238.915000", "185238.918000", "185238.920000", "185238.923000", "185238.925000", "185238.927000", "185238.930000", "185238.932000", "185238.935000", "185238.937000", "185258.890000", "185258.893000", "185258.896000", "185258.898000", "185258.901000", "185258.903000", "185258.906000", "185258.908000", "185258.910000", "185258.913000", "185258.915000", "185258.918000", "185258.920000", "185258.923000", "185258.925000", "185258.928000", "185258.930000", "185258.946000", "185258.949000", "185258.951000", "185318.890000", "185318.893000", "185318.896000", "185318.898000", "185318.901000", "185318.903000", "185318.905000", "185318.908000", "185318.910000", "185318.913000", "185318.915000", "185318.918000", "185318.920000", "185318.923000", "185318.925000", "185318.927000", "185318.930000", "185318.932000", "185318.935000", "185318.937000", "185338.891000", "185338.903000", "185338.906000", "185338.909000", "185338.911000", "185338.914000", "185338.916000", "185338.919000", "185338.921000", "185338.924000", "185338.926000", "185338.929000", "185338.931000", "185338.933000", "185338.936000", "185338.938000", "185338.941000", "185338.943000", "185338.946000", "185338.948000", "185358.891000", "185358.894000", "185358.897000", "185358.899000", "185358.902000", "185358.904000", "185358.907000", "185358.909000", "185358.912000", "185358.914000", "185358.917000", "185358.919000", "185358.921000", "185358.924000", "185358.926000", "185358.929000", "185358.931000", "185358.934000", "185358.936000", "185358.939000", "185418.890000", "185418.893000", "185418.896000", "185418.898000", "185418.901000", "185418.903000", "185418.906000", "185418.908000", "185418.911000", "185418.913000", "185418.916000", "185418.918000", "185418.921000", "185418.923000", "185418.926000", "185418.928000", "185418.931000", "185418.933000", "185418.936000", "185418.938000", "185438.890000", "185438.893000", "185438.896000", "185438.898000", "185438.901000", "185438.903000", "185438.906000", "185438.908000", "185438.911000", "185438.913000", "185438.916000", "185438.918000", "185438.921000", "185438.923000", "185438.926000", "185438.928000", "185438.931000", "185438.933000", "185438.935000", "185438.938000", "185458.891000", "185458.893000", "185458.896000", "185458.898000", "185458.911000", "185458.914000", "185458.916000", "185458.919000", "185458.921000", "185458.924000", "185458.926000", "185458.929000", "185458.931000", "185458.933000", "185458.936000", "185458.938000", "185458.941000", "185458.943000", "185458.946000", "185458.948000", "185501.621000", "185501.625000", "185501.628000"],
      "InstanceNumber": [1, 2, 3, 4, 5, 6, 7, 8, 9, 10, 11, 12, 13, 14, 15, 16, 17, 18, 19, 20, 21, 22, 23, 24, 25, 26, 27, 28, 29, 30, 31, 32, 33, 34, 35, 36, 37, 38, 39, 40, 41, 42, 43, 44, 45, 46, 47, 48, 49, 50, 51, 52, 53, 54, 55, 56, 57, 58, 59, 60, 61, 62, 63, 64, 65, 66, 67, 68, 69, 70, 71, 72, 73, 74, 75, 76, 77, 78, 79, 80, 81, 82, 83, 84, 85, 86, 87, 88, 89, 90, 91, 92, 93, 94, 95, 96, 97, 98, 99, 100, 101, 102, 103, 104, 105, 106, 107, 108, 109, 110, 111, 112, 113, 114, 115, 116, 117, 118, 119, 120, 121, 122, 123, 124, 125, 126, 127, 128, 129, 130, 131, 132, 133, 134, 135, 136, 137, 138, 139, 140, 141, 142, 143, 144, 145, 146, 147, 148, 149, 150, 151, 152, 153, 154, 155, 156, 157, 158, 159, 160, 161, 162, 163, 164, 165, 166, 167, 168, 169, 170, 171, 172, 173, 174, 175, 176, 177, 178, 179, 180, 181, 182, 183, 184, 185, 186, 187, 188, 189, 190, 191, 192, 193, 194, 195, 196, 197, 198, 199, 200, 201, 202, 203, 204, 205, 206, 207, 208, 209, 210, 211, 212, 213, 214, 215, 216, 217, 218, 219, 220, 221, 222, 223, 224, 225, 226, 227, 228, 229, 230, 231, 232, 233, 234, 235, 236, 237, 238, 239, 240, 241, 242, 243, 244, 245, 246, 247, 248, 249, 250, 251, 252, 253, 254, 255, 256, 257, 258, 259, 260, 261, 262, 263, 264, 265, 266, 267, 268, 269, 270, 271, 272, 273, 274, 275, 276, 277, 278, 279, 280, 281, 282, 283, 284, 285, 286, 287, 288, 289, 290, 291, 292, 293, 294, 295, 296, 297, 298, 299, 300, 301, 302, 303, 304, 305, 306, 307, 308, 309, 310, 311, 312, 313, 314, 315, 316, 317, 318, 319, 320, 321, 322, 323, 324, 325, 326, 327, 328, 329, 330, 331, 332, 333, 334, 335, 336, 337, 338, 339, 340, 341, 342, 343, 344, 345, 346, 347, 348, 349, 350, 351, 352, 353, 354, 355, 356],
      "LargestImagePixelValue": [12756, 12183, 11735, 11855, 11950, 11563, 11760, 11690, 11372, 11454, 11784, 11479, 11460, 11741, 11616, 11569, 11806, 11422, 11433, 11415, 11520, 11378, 11446, 11812, 11438, 11542, 11750, 11590, 11689, 11739, 11873, 11554, 11512, 11653, 11429, 11503, 11499, 11819, 11465, 11640, 11715, 11460, 11490, 11547, 11394, 11385, 11780, 11515, 11565, 11930, 11566, 11666, 11799, 11564, 11606, 11660, 11574, 11507, 11664, 11687, 11521, 11538, 11573, 11749, 11525, 11433, 11549, 11496, 11394, 11477, 11826, 11573, 11542, 11690, 11579, 11606, 11636, 11724, 11533, 11584, 11919, 11613, 11598, 11669, 11548, 11485, 11505, 11740, 11540, 11462, 11641, 11423, 11501, 11556, 11511, 11438, 11505, 11586, 11481, 11421, 11563, 11579, 11509, 11616, 11643, 11554, 11548, 11729, 11520, 11507, 11710, 11539, 11481, 11551, 11697, 11516, 11520, 11648, 11471, 11544, 11682, 11555, 11518, 11530, 11436, 11506, 11514, 11679, 11526, 11459, 11704, 11772, 11547, 11505, 11645, 11560, 11603, 11733, 11759, 11543, 11639, 11660, 11483, 11618, 11637, 11597, 11603, 11561, 11525, 11508, 11472, 11619, 11676, 11493, 11754, 11590, 11544, 11484, 11566, 11701, 11593, 11642, 11485, 11388, 11520, 11685, 11463, 11434, 11658, 11637, 11415, 11538, 11552, 11492, 11423, 11519, 11464, 11411, 11437, 11628, 11522, 11563, 11572, 11654, 11513, 11504, 11602, 11634, 11507, 11476, 11621, 11460, 11551, 11720, 11579, 11496, 11617, 11624, 11434, 11526, 11720, 11571, 11515, 11816, 11501, 11487, 11477, 11806, 11484, 11615, 11582, 11743, 11614, 11583, 11681, 11813, 11632, 11610, 11902, 11585, 11654, 11748, 11685, 11658, 11618, 11870, 11748, 11687, 11717, 11838, 11637, 11733, 11898, 11620, 11556, 11796, 11602, 11643, 11615, 11858, 11927, 11901, 11908, 11683, 11658, 11800, 11971, 11758, 11612, 12082, 11859, 11752, 11638, 11982, 11827, 11727, 11906, 11828, 11496, 11906, 11549, 11442, 11585, 11501, 11404, 11565, 11813, 11563, 11458, 11716, 11510, 11867, 11265, 11456, 11621, 11454, 11421, 11528, 11595, 11499, 11579, 11652, 11608, 11520, 11490, 11657, 11518, 11457, 11715, 11553, 11500, 11505, 11667, 11332, 11566, 11617, 11529, 11499, 11511, 11677, 11546, 11535, 11748, 11604, 11533, 11721, 11486, 11622, 11647, 11715, 11515, 11546, 11865, 11665, 11563, 11654, 11618, 11714, 11731, 11942, 11730, 11765, 11757, 11884, 11569, 11589, 11961, 11665, 11656, 11918, 11752, 11664, 11647, 11603, 11620, 11591, 11808, 11587, 11516, 11832, 11607, 11519, 11814, 11607, 11582, 11483, 11805, 11636, 11456, 11535, 11538, 11601, 11567, 11691, 11546, 11537],
