{
  "AcquisitionMatrixPE": 106,
  "AcquisitionNumber": 1,
  "AcquisitionTime": "10:51:2.832500",
  "BandwidthPerPixelPhaseEncode": 16.846,
  "BaseResolution": 106,
  "BodyPartExamined": "BRAIN",
  "CoilCombinationMethod": "Sum of Squares",
  "ConsistencyInfo": "N4_VE11C_LATEST_20160120",
  "ConversionSoftware": "dcm2niix",
  "ConversionSoftwareVersion": "v1.0.20220720",
  "DerivedVendorReportedEchoSpacing": 0.000560012,
  "DeviceSerialNumber": "166108",
  "DwellTime": 1.8e-06,
  "EchoTime": 0.0352,
  "EchoTrainLength": 106,
  "EffectiveEchoSpacing": 0.000560012,
  "FlipAngle": 60,
  "HeudiconvVersion": "1.3.0",
  "ImageComments": "Unaliased MB4/PE3/LB",
  "ImageOrientationPatientDICOM": [1, 0, 0, 0, 0.897258, -0.441506],
  "ImageOrientationText": "Tra>Cor(-26.2)",
  "ImageType": [
    "ORIGINAL",
    "PRIMARY",
    "M",
    "MB",
    "ND",
    "MOSAIC"
],
  "ImagingFrequency": 123.244,
  "InPlanePhaseEncodingDirectionDICOM": "COL",
  "InstitutionAddress": "Bedford Way 26,London,London,GB,WC1H 0AP",
  "InstitutionName": "University College",
  "InstitutionalDepartmentName": "Department",
  "MRAcquisitionType": "2D",
  "MagneticFieldStrength": 3,
  "Manufacturer": "Siemens",
  "ManufacturersModelName": "Prisma",
  "MatrixCoilMode": "SENSE",
  "Modality": "MR",
  "MultibandAccelerationFactor": 4,
  "NonlinearGradientCorrection": false,
  "PartialFourier": 1,
  "PatientPosition": "HFS",
  "PercentPhaseFOV": 100,
  "PercentSampling": 100,
  "PhaseEncodingDirection": "j-",
  "PhaseEncodingSteps": 106,
  "PhaseResolution": 1,
  "PixelBandwidth": 2620,
  "ProcedureStepDescription": "Egor^MovieProject2",
  "ProtocolName": "func-bold_task-pRF_run-01",
  "PulseSequenceDetails": "%CustomerSeq%\\cmrr_mbep2d_bold",
  "ReceiveCoilActiveElements": "HEA;HEP",
  "ReceiveCoilName": "Head_32",
  "ReconMatrixPE": 106,
  "RepetitionTime": 1,
  "SAR": 0.0771911,
  "ScanOptions": "FS\\EXT",
  "ScanningSequence": "EP",
  "SequenceName": "epfid2d1_106",
  "SequenceVariant": "SK\\SS",
  "SeriesDescription": "func-bold_task-pRF_run-01",
  "SeriesNumber": 10,
  "ShimSetting": [-1583, 653, 7406, 249, 17, 11, -75, 4],
  "SliceThickness": 2,
  "SliceTiming": [0, 0.4075, 0.815, 0.245, 0.6525, 0.08, 0.49, 0.8975, 0.325, 0.735, 0.1625, 0.57, 0, 0.4075, 0.815, 0.245, 0.6525, 0.08, 0.49, 0.8975, 0.325, 0.735, 0.1625, 0.57, 0, 0.4075, 0.815, 0.245, 0.6525, 0.08, 0.49, 0.8975, 0.325, 0.735, 0.1625, 0.57, 0, 0.4075, 0.815, 0.245, 0.6525, 0.08, 0.49, 0.8975, 0.325, 0.735, 0.1625, 0.57],
  "SoftwareVersions": "syngo MR E11",
  "SpacingBetweenSlices": 2,
  "StationName": "AWP166108",
  "TaskName": "retinotopy",
  "TotalReadoutTime": 0.0588013,
  "TxRefAmp": 238.66,
  "WipMemBlock": "9625c27c-3c7b-4188-9d42-371a530b7002||Sequence: R016 ve11c/master r/e634e98; Dec 19 2017 11:00:25 by eja",
  "dcmmeta_affine": [
    [-2.0, 0.0, 0.0, 106.0],
    [0.0, 1.794516682624817, -0.8830116987228394, -63.31108093261719],
    [0.0, 0.8830116987228394, 1.794516682624817, -50.45883560180664],
    [0.0, 0.0, 0.0, 1.0]
],
  "dcmmeta_reorient_transform": [
    [0.0, -1.0, 0.0, 105.0],
    [1.0, 0.0, 0.0, 0.0],
    [0.0, 0.0, 1.0, 0.0],
    [0.0, 0.0, 0.0, 1.0]
],
  "dcmmeta_shape": [106, 106, 48, 356],
  "dcmmeta_slice_dim": 2,
  "dcmmeta_version": 0.6,
  "global": {
    "const": {
      "AcquisitionMatrix": [106, 0, 0, 106],
      "AngioFlag": "N",
      "BitsAllocated": 16,
      "BitsStored": 16,
      "BodyPartExamined": "BRAIN",
      "CardiacNumberOfImages": 1,
      "Columns": 742,
      "EchoNumbers": 1,
      "EchoTime": 35.2,
      "EchoTrainLength": 106,
      "FlipAngle": 60.0,
      "HighBit": 15,
      "ImageOrientationPatient": [1.0, 0.0, 0.0, 0.0, 0.8972583668213, -0.4415058585899],
      "ImagePositionPatient": [-742.0, -695.76949617579, 323.05511932863],
      "ImageType": [
        "ORIGINAL",
        "PRIMARY",
        "M",
        "MB",
        "ND",
        "MOSAIC"
],
      "ImagedNucleus": "1H",
      "ImagingFrequency": 123.243677,
      "InPlanePhaseEncodingDirection": "COL",
      "MRAcquisitionType": "2D",
      "MagneticFieldStrength": 3.0,
      "Manufacturer": "SIEMENS",
      "ManufacturerModelName": "Prisma",
      "Modality": "MR",
      "NominalInterval": 0,
      "NumberOfAverages": 1.0,
      "NumberOfPhaseEncodingSteps": 106,
      "PercentPhaseFieldOfView": 100.0,
      "PercentSampling": 100.0,
      "PerformedProcedureStepStartTime": "100135.233000",
      "PhotometricInterpretation": "MONOCHROME2",
      "PixelBandwidth": 2620.0,
      "PixelRepresentation": 0,
      "PixelSpacing": [2.0, 2.0],
      "ProtocolName": "func-bold_task-pRF_run-01",
      "RepetitionTime": 1000.0,
      "Rows": 742,
      "SAR": 0.07719111721032,
      "SamplesPerPixel": 1,
      "ScanOptions": [
        "FS",
        "EXT"
],
      "ScanningSequence": "EP",
      "SequenceName": "epfid2d1_106",
      "SequenceVariant": [
        "SK",
        "SS"
],
      "SeriesDescription": "func-bold_task-pRF_run-01",
      "SeriesNumber": 10,
      "SeriesTime": "105139.752000",
      "SliceLocation": -17.322400027669,
      "SliceThickness": 2.0,
      "SmallestImagePixelValue": 0,
      "SoftwareVersions": "syngo MR E11",
      "SpacingBetweenSlices": 1.9999999561896,
      "SpecificCharacterSet": "ISO_IR 100",
      "StudyID": "1",
      "StudyTime": "100135.184000",
      "TransmitCoilName": "Body",
      "VariableFlipAngleFlag": "N",
      "WindowCenterWidthExplanation": "Algo1",
      "dBdt": 0.0},
    "slices": {}
  },
  "time": {
    "samples": {
      "AcquisitionNumber": [1, 2, 3, 4, 5, 6, 7, 8, 9, 10, 11, 12, 13, 14, 15, 16, 17, 18, 19, 20, 21, 22, 23, 24, 25, 26, 27, 28, 29, 30, 31, 32, 33, 34, 35, 36, 37, 38, 39, 40, 41, 42, 43, 44, 45, 46, 47, 48, 49, 50, 51, 52, 53, 54, 55, 56, 57, 58, 59, 60, 61, 62, 63, 64, 65, 66, 67, 68, 69, 70, 71, 72, 73, 74, 75, 76, 77, 78, 79, 80, 81, 82, 83, 84, 85, 86, 87, 88, 89, 90, 91, 92, 93, 94, 95, 96, 97, 98, 99, 100, 101, 102, 103, 104, 105, 106, 107, 108, 109, 110, 111, 112, 113, 114, 115, 116, 117, 118, 119, 120, 121, 122, 123, 124, 125, 126, 127, 128, 129, 130, 131, 132, 133, 134, 135, 136, 137, 138, 139, 140, 141, 142, 143, 144, 145, 146, 147, 148, 149, 150, 151, 152, 153, 154, 155, 156, 157, 158, 159, 160, 161, 162, 163, 164, 165, 166, 167, 168, 169, 170, 171, 172, 173, 174, 175, 176, 177, 178, 179, 180, 181, 182, 183, 184, 185, 186, 187, 188, 189, 190, 191, 192, 193, 194, 195, 196, 197, 198, 199, 200, 201, 202, 203, 204, 205, 206, 207, 208, 209, 210, 211, 212, 213, 214, 215, 216, 217, 218, 219, 220, 221, 222, 223, 224, 225, 226, 227, 228, 229, 230, 231, 232, 233, 234, 235, 236, 237, 238, 239, 240, 241, 242, 243, 244, 245, 246, 247, 248, 249, 250, 251, 252, 253, 254, 255, 256, 257, 258, 259, 260, 261, 262, 263, 264, 265, 266, 267, 268, 269, 270, 271, 272, 273, 274, 275, 276, 277, 278, 279, 280, 281, 282, 283, 284, 285, 286, 287, 288, 289, 290, 291, 292, 293, 294, 295, 296, 297, 298, 299, 300, 301, 302, 303, 304, 305, 306, 307, 308, 309, 310, 311, 312, 313, 314, 315, 316, 317, 318, 319, 320, 321, 322, 323, 324, 325, 326, 327, 328, 329, 330, 331, 332, 333, 334, 335, 336, 337, 338, 339, 340, 341, 342, 343, 344, 345, 346, 347, 348, 349, 350, 351, 352, 353, 354, 355, 356],
      "AcquisitionTime": ["105102.832500", "105103.832500", "105104.832500", "105105.832500", "105106.832500", "105107.832500", "105108.832500", "105109.832500", "105110.832500", "105111.832500", "105112.832500", "105113.832500", "105114.832500", "105115.832500", "105116.832500", "105117.832500", "105118.832500", "105119.832500", "105120.832500", "105121.832500", "105122.832500", "105123.832500", "105124.832500", "105125.832500", "105126.832500", "105127.832500", "105128.832500", "105129.832500", "105130.832500", "105131.832500", "105132.832500", "105133.832500", "105134.832500", "105135.832500", "105136.832500", "105137.832500", "105138.832500", "105139.832500", "105140.832500", "105141.832500", "105142.832500", "105143.832500", "105144.832500", "105145.832500", "105146.832500", "105147.832500", "105148.832500", "105149.832500", "105150.832500", "105151.832500", "105152.832500", "105153.832500", "105154.832500", "105155.832500", "105156.832500", "105157.832500", "105158.832500", "105159.832500", "105200.832500", "105201.832500", "105202.832500", "105203.832500", "105204.832500", "105205.832500", "105206.832500", "105207.832500", "105208.832500", "105209.832500", "105210.832500", "105211.832500", "105212.832500", "105213.832500", "105214.832500", "105215.832500", "105216.832500", "105217.832500", "105218.832500", "105219.832500", "105220.832500", "105221.832500", "105222.832500", "105223.832500", "105224.832500", "105225.832500", "105226.832500", "105227.832500", "105228.832500", "105229.832500", "105230.832500", "105231.832500", "105232.832500", "105233.832500", "105234.832500", "105235.832500", "105236.832500", "105237.832500", "105238.832500", "105239.832500", "105240.832500", "105241.832500", "105242.832500", "105243.832500", "105244.832500", "105245.832500", "105246.832500", "105247.832500", "105248.832500", "105249.832500", "105250.832500", "105251.832500", "105252.832500", "105253.832500", "105254.832500", "105255.832500", "105256.832500", "105257.832500", "105258.832500", "105259.832500", "105300.832500", "105301.832500", "105302.832500", "105303.832500", "105304.832500", "105305.832500", "105306.832500", "105307.832500", "105308.832500", "105309.832500", "105310.832500", "105311.832500", "105312.832500", "105313.832500", "105314.832500", "105315.832500", "105316.832500", "105317.832500", "105318.832500", "105319.832500", "105320.832500", "105321.832500", "105322.832500", "105323.832500", "105324.832500", "105325.832500", "105326.832500", "105327.832500", "105328.832500", "105329.832500", "105330.832500", "105331.832500", "105332.832500", "105333.832500", "105334.832500", "105335.832500", "105336.832500", "105337.832500", "105338.832500", "105339.832500", "105340.832500", "105341.832500", "105342.832500", "105343.832500", "105344.832500", "105345.832500", "105346.832500", "105347.832500", "105348.832500", "105349.832500", "105350.832500", "105351.832500", "105352.832500", "105353.832500", "105354.832500", "105355.832500", "105356.832500", "105357.832500", "105358.832500", "105359.832500", "105400.832500", "105401.832500", "105402.832500", "105403.832500", "105404.832500", "105405.832500", "105406.832500", "105407.832500", "105408.832500", "105409.832500", "105410.832500", "105411.832500", "105412.832500", "105413.832500", "105414.832500", "105415.832500", "105416.832500", "105417.832500", "105418.832500", "105419.832500", "105420.832500", "105421.832500", "105422.832500", "105423.832500", "105424.832500", "105425.832500", "105426.832500", "105427.832500", "105428.832500", "105429.832500", "105430.832500", "105431.832500", "105432.832500", "105433.832500", "105434.832500", "105435.832500", "105436.832500", "105437.832500", "105438.832500", "105439.832500", "105440.832500", "105441.832500", "105442.832500", "105443.832500", "105444.832500", "105445.832500", "105446.832500", "105447.832500", "105448.832500", "105449.832500", "105450.832500", "105451.832500", "105452.832500", "105453.832500", "105454.832500", "105455.832500", "105456.832500", "105457.832500", "105458.832500", "105459.832500", "105500.832500", "105501.832500", "105502.832500", "105503.832500", "105504.832500", "105505.832500", "105506.832500", "105507.832500", "105508.832500", "105509.832500", "105510.832500", "105511.832500", "105512.832500", "105513.832500", "105514.832500", "105515.832500", "105516.832500", "105517.832500", "105518.832500", "105519.832500", "105520.832500", "105521.832500", "105522.832500", "105523.832500", "105524.832500", "105525.832500", "105526.832500", "105527.832500", "105528.832500", "105529.832500", "105530.832500", "105531.832500", "105532.832500", "105533.832500", "105534.832500", "105535.832500", "105536.832500", "105537.832500", "105538.832500", "105539.832500", "105540.832500", "105541.832500", "105542.832500", "105543.832500", "105544.832500", "105545.832500", "105546.832500", "105547.832500", "105548.832500", "105549.832500", "105550.832500", "105551.832500", "105552.832500", "105553.832500", "105554.832500", "105555.832500", "105556.832500", "105557.832500", "105558.832500", "105559.832500", "105600.832500", "105601.832500", "105602.832500", "105603.832500", "105604.832500", "105605.832500", "105606.832500", "105607.832500", "105608.832500", "105609.832500", "105610.832500", "105611.832500", "105612.832500", "105613.832500", "105614.832500", "105615.832500", "105616.832500", "105617.832500", "105618.832500", "105619.832500", "105620.832500", "105621.832500", "105622.832500", "105623.832500", "105624.832500", "105625.832500", "105626.832500", "105627.832500", "105628.832500", "105629.832500", "105630.832500", "105631.832500", "105632.832500", "105633.832500", "105634.832500", "105635.832500", "105636.832500", "105637.832500", "105638.832500", "105639.832500", "105640.832500", "105641.832500", "105642.832500", "105643.832500", "105644.832500", "105645.832500", "105646.832500", "105647.832500", "105648.832500", "105649.832500", "105650.832500", "105651.832500", "105652.832500", "105653.832500", "105654.832500", "105655.832500", "105656.832500", "105657.832500"],
      "ContentTime": ["105139.754000", "105139.757000", "105139.760000", "105139.762000", "105139.764000", "105139.767000", "105139.770000", "105139.772000", "105139.775000", "105139.777000", "105139.780000", "105139.782000", "105139.785000", "105139.787000", "105139.790000", "105139.792000", "105139.795000", "105139.797000", "105139.800000", "105139.802000", "105139.805000", "105139.807000", "105139.810000", "105139.812000", "105139.815000", "105139.818000", "105139.820000", "105139.822000", "105139.825000", "105139.828000", "105139.830000", "105139.833000", "105139.835000", "105139.837000", "105139.840000", "105139.842000", "105159.699000", "105159.702000", "105159.704000", "105159.707000", "105159.710000", "105159.712000", "105159.714000", "105159.717000", "105159.719000", "105159.722000", "105159.724000", "105159.727000", "105159.729000", "105159.732000", "105159.734000", "105159.737000", "105159.739000", "105159.742000", "105159.744000", "105159.758000", "105219.699000", "105219.702000", "105219.704000", "105219.707000", "105219.710000", "105219.712000", "105219.723000", "105219.725000", "105219.728000", "105219.730000", "105219.733000", "105219.735000", "105219.738000", "105219.740000", "105219.743000", "105219.745000", "105219.747000", "105219.750000", "105219.752000", "105219.755000", "105239.699000", "105239.702000", "105239.704000", "105239.707000", "105239.709000", "105239.712000", "105239.714000", "105239.717000", "105239.719000", "105239.722000", "105239.724000", "105239.727000", "105239.729000", "105239.732000", "105239.734000", "105239.736000", "105239.739000", "105239.741000", "105239.744000", "105239.746000", "105259.699000", "105259.702000", "105259.704000", "105259.707000", "105259.709000", "105259.711000", "105259.714000", "105259.716000", "105259.719000", "105259.721000", "105259.724000", "105259.726000", "105259.729000", "105259.731000", "105259.734000", "105259.736000", "105259.738000", "105259.741000", "105259.748000", "105259.750000", "105319.699000", "105319.702000", "105319.705000", "105319.710000", "105319.712000", "105319.715000", "105319.717000", "105319.719000", "105319.722000", "105319.724000", "105319.727000", "105319.729000", "105319.732000", "105319.734000", "105319.737000", "105319.739000", "105319.741000", "105319.744000", "105319.746000", "105319.749000", "105339.699000", "105339.702000", "105339.705000", "105339.707000", "105339.709000", "105339.712000", "105339.714000", "105339.717000", "105339.719000", "105339.722000", "105339.724000", "105339.727000", "105339.729000", "105339.731000", "105339.734000", "105339.736000", "105339.739000", "105339.741000", "105339.744000", "105339.746000", "105359.699000", "105359.702000", "105359.704000", "105359.707000", "105359.709000", "105359.712000", "105359.714000", "105359.717000", "105359.719000", "105359.722000", "105359.724000", "105359.727000", "105359.729000", "105359.732000", "105359.734000", "105359.743000", "105359.746000", "105359.748000", "105359.751000", "105359.753000", "105419.699000", "105419.702000", "105419.704000", "105419.707000", "105419.709000", "105419.712000", "105419.714000", "105419.717000", "105419.719000", "105419.722000", "105419.724000", "105419.727000", "105419.729000", "105419.732000", "105419.734000", "105419.736000", "105419.739000", "105419.741000", "105419.744000", "105419.746000", "105439.699000", "105439.702000", "105439.704000", "105439.707000", "105439.717000", "105439.719000", "105439.722000", "105439.724000", "105439.727000", "105439.729000", "105439.732000", "105439.734000", "105439.737000", "105439.739000", "105439.741000", "105439.744000", "105439.746000", "105439.749000", "105439.751000", "105439.754000", "105459.699000", "105459.702000", "105459.704000", "105459.707000", "105459.709000", "105459.712000", "105459.714000", "105459.717000", "105459.719000", "105459.721000", "105459.724000", "105459.726000", "105459.729000", "105459.731000", "105459.734000", "105459.736000", "105459.739000", "105459.741000", "105459.744000", "105459.746000", "105519.699000", "105519.702000", "105519.705000", "105519.707000", "105519.719000", "105519.721000", "105519.724000", "105519.726000", "105519.728000", "105519.731000", "105519.733000", "105519.736000", "105519.738000", "105519.741000", "105519.743000", "105519.746000", "105519.748000", "105519.751000", "105519.753000", "105519.755000", "105539.699000", "105539.702000", "105539.704000", "105539.707000", "105539.709000", "105539.712000", "105539.714000", "105539.717000", "105539.719000", "105539.722000", "105539.724000", "105539.727000", "105539.729000", "105539.732000", "105539.734000", "105539.736000", "105539.739000", "105539.741000", "105539.744000", "105539.746000", "105559.699000", "105559.702000", "105559.704000", "105559.707000", "105559.717000", "105559.720000", "105559.722000", "105559.725000", "105559.727000", "105559.730000", "105559.732000", "105559.735000", "105559.737000", "105559.739000", "105559.742000", "105559.744000", "105559.747000", "105559.750000", "105559.752000", "105559.755000", "105619.700000", "105619.702000", "105619.705000", "105619.707000", "105619.710000", "105619.712000", "105619.715000", "105619.717000", "105619.720000", "105619.722000", "105619.725000", "105619.727000", "105619.729000", "105619.732000", "105619.734000", "105619.737000", "105619.739000", "105619.742000", "105619.744000", "105619.747000", "105639.699000", "105639.702000", "105639.705000", "105639.707000", "105639.710000", "105639.712000", "105639.715000", "105639.717000", "105639.720000", "105639.722000", "105639.725000", "105639.727000", "105639.730000", "105639.732000", "105639.734000", "105639.737000", "105639.739000", "105639.742000", "105639.744000", "105639.747000", "105659.662000", "105659.664000", "105659.667000", "105659.669000", "105659.672000", "105659.674000", "105659.677000", "105659.680000", "105659.682000", "105659.685000", "105659.687000", "105659.690000", "105659.692000", "105659.695000", "105659.697000", "105659.700000", "105659.702000", "105659.704000", "105659.707000", "105659.709000"],
      "InstanceCreationTime": ["105139.754000", "105139.757000", "105139.760000", "105139.762000", "105139.764000", "105139.767000", "105139.770000", "105139.772000", "105139.775000", "105139.777000", "105139.780000", "105139.782000", "105139.785000", "105139.787000", "105139.790000", "105139.792000", "105139.795000", "105139.797000", "105139.800000", "105139.802000", "105139.805000", "105139.807000", "105139.810000", "105139.812000", "105139.815000", "105139.818000", "105139.820000", "105139.822000", "105139.825000", "105139.828000", "105139.830000", "105139.833000", "105139.835000", "105139.837000", "105139.840000", "105139.842000", "105159.699000", "105159.702000", "105159.704000", "105159.707000", "105159.710000", "105159.712000", "105159.714000", "105159.717000", "105159.719000", "105159.722000", "105159.724000", "105159.727000", "105159.729000", "105159.732000", "105159.734000", "105159.737000", "105159.739000", "105159.742000", "105159.744000", "105159.758000", "105219.699000", "105219.702000", "105219.704000", "105219.707000", "105219.710000", "105219.712000", "105219.723000", "105219.725000", "105219.728000", "105219.730000", "105219.733000", "105219.735000", "105219.738000", "105219.740000", "105219.743000", "105219.745000", "105219.747000", "105219.750000", "105219.752000", "105219.755000", "105239.699000", "105239.702000", "105239.704000", "105239.707000", "105239.709000", "105239.712000", "105239.714000", "105239.717000", "105239.719000", "105239.722000", "105239.724000", "105239.727000", "105239.729000", "105239.732000", "105239.734000", "105239.736000", "105239.739000", "105239.741000", "105239.744000", "105239.746000", "105259.699000", "105259.702000", "105259.704000", "105259.707000", "105259.709000", "105259.711000", "105259.714000", "105259.716000", "105259.719000", "105259.721000", "105259.724000", "105259.726000", "105259.729000", "105259.731000", "105259.734000", "105259.736000", "105259.738000", "105259.741000", "105259.748000", "105259.750000", "105319.699000", "105319.702000", "105319.705000", "105319.710000", "105319.712000", "105319.715000", "105319.717000", "105319.719000", "105319.722000", "105319.724000", "105319.727000", "105319.729000", "105319.732000", "105319.734000", "105319.737000", "105319.739000", "105319.741000", "105319.744000", "105319.746000", "105319.749000", "105339.699000", "105339.702000", "105339.705000", "105339.707000", "105339.709000", "105339.712000", "105339.714000", "105339.717000", "105339.719000", "105339.722000", "105339.724000", "105339.727000", "105339.729000", "105339.731000", "105339.734000", "105339.736000", "105339.739000", "105339.741000", "105339.744000", "105339.746000", "105359.699000", "105359.702000", "105359.704000", "105359.707000", "105359.709000", "105359.712000", "105359.714000", "105359.717000", "105359.719000", "105359.722000", "105359.724000", "105359.727000", "105359.729000", "105359.732000", "105359.734000", "105359.743000", "105359.746000", "105359.748000", "105359.751000", "105359.753000", "105419.699000", "105419.702000", "105419.704000", "105419.707000", "105419.709000", "105419.712000", "105419.714000", "105419.717000", "105419.719000", "105419.722000", "105419.724000", "105419.727000", "105419.729000", "105419.732000", "105419.734000", "105419.736000", "105419.739000", "105419.741000", "105419.744000", "105419.746000", "105439.699000", "105439.702000", "105439.704000", "105439.707000", "105439.717000", "105439.719000", "105439.722000", "105439.724000", "105439.727000", "105439.729000", "105439.732000", "105439.734000", "105439.737000", "105439.739000", "105439.741000", "105439.744000", "105439.746000", "105439.749000", "105439.751000", "105439.754000", "105459.699000", "105459.702000", "105459.704000", "105459.707000", "105459.709000", "105459.712000", "105459.714000", "105459.717000", "105459.719000", "105459.721000", "105459.724000", "105459.726000", "105459.729000", "105459.731000", "105459.734000", "105459.736000", "105459.739000", "105459.741000", "105459.744000", "105459.746000", "105519.699000", "105519.702000", "105519.705000", "105519.707000", "105519.719000", "105519.721000", "105519.724000", "105519.726000", "105519.728000", "105519.731000", "105519.733000", "105519.736000", "105519.738000", "105519.741000", "105519.743000", "105519.746000", "105519.748000", "105519.751000", "105519.753000", "105519.755000", "105539.699000", "105539.702000", "105539.704000", "105539.707000", "105539.709000", "105539.712000", "105539.714000", "105539.717000", "105539.719000", "105539.722000", "105539.724000", "105539.727000", "105539.729000", "105539.732000", "105539.734000", "105539.736000", "105539.739000", "105539.741000", "105539.744000", "105539.746000", "105559.699000", "105559.702000", "105559.704000", "105559.707000", "105559.717000", "105559.720000", "105559.722000", "105559.725000", "105559.727000", "105559.730000", "105559.732000", "105559.735000", "105559.737000", "105559.739000", "105559.742000", "105559.744000", "105559.747000", "105559.750000", "105559.752000", "105559.755000", "105619.700000", "105619.702000", "105619.705000", "105619.707000", "105619.710000", "105619.712000", "105619.715000", "105619.717000", "105619.720000", "105619.722000", "105619.725000", "105619.727000", "105619.729000", "105619.732000", "105619.734000", "105619.737000", "105619.739000", "105619.742000", "105619.744000", "105619.747000", "105639.699000", "105639.702000", "105639.705000", "105639.707000", "105639.710000", "105639.712000", "105639.715000", "105639.717000", "105639.720000", "105639.722000", "105639.725000", "105639.727000", "105639.730000", "105639.732000", "105639.734000", "105639.737000", "105639.739000", "105639.742000", "105639.744000", "105639.747000", "105659.662000", "105659.664000", "105659.667000", "105659.669000", "105659.672000", "105659.674000", "105659.677000", "105659.680000", "105659.682000", "105659.685000", "105659.687000", "105659.690000", "105659.692000", "105659.695000", "105659.697000", "105659.700000", "105659.702000", "105659.704000", "105659.707000", "105659.709000"],
      "InstanceNumber": [1, 2, 3, 4, 5, 6, 7, 8, 9, 10, 11, 12, 13, 14, 15, 16, 17, 18, 19, 20, 21, 22, 23, 24, 25, 26, 27, 28, 29, 30, 31, 32, 33, 34, 35, 36, 37, 38, 39, 40, 41, 42, 43, 44, 45, 46, 47, 48, 49, 50, 51, 52, 53, 54, 55, 56, 57, 58, 59, 60, 61, 62, 63, 64, 65, 66, 67, 68, 69, 70, 71, 72, 73, 74, 75, 76, 77, 78, 79, 80, 81, 82, 83, 84, 85, 86, 87, 88, 89, 90, 91, 92, 93, 94, 95, 96, 97, 98, 99, 100, 101, 102, 103, 104, 105, 106, 107, 108, 109, 110, 111, 112, 113, 114, 115, 116, 117, 118, 119, 120, 121, 122, 123, 124, 125, 126, 127, 128, 129, 130, 131, 132, 133, 134, 135, 136, 137, 138, 139, 140, 141, 142, 143, 144, 145, 146, 147, 148, 149, 150, 151, 152, 153, 154, 155, 156, 157, 158, 159, 160, 161, 162, 163, 164, 165, 166, 167, 168, 169, 170, 171, 172, 173, 174, 175, 176, 177, 178, 179, 180, 181, 182, 183, 184, 185, 186, 187, 188, 189, 190, 191, 192, 193, 194, 195, 196, 197, 198, 199, 200, 201, 202, 203, 204, 205, 206, 207, 208, 209, 210, 211, 212, 213, 214, 215, 216, 217, 218, 219, 220, 221, 222, 223, 224, 225, 226, 227, 228, 229, 230, 231, 232, 233, 234, 235, 236, 237, 238, 239, 240, 241, 242, 243, 244, 245, 246, 247, 248, 249, 250, 251, 252, 253, 254, 255, 256, 257, 258, 259, 260, 261, 262, 263, 264, 265, 266, 267, 268, 269, 270, 271, 272, 273, 274, 275, 276, 277, 278, 279, 280, 281, 282, 283, 284, 285, 286, 287, 288, 289, 290, 291, 292, 293, 294, 295, 296, 297, 298, 299, 300, 301, 302, 303, 304, 305, 306, 307, 308, 309, 310, 311, 312, 313, 314, 315, 316, 317, 318, 319, 320, 321, 322, 323, 324, 325, 326, 327, 328, 329, 330, 331, 332, 333, 334, 335, 336, 337, 338, 339, 340, 341, 342, 343, 344, 345, 346, 347, 348, 349, 350, 351, 352, 353, 354, 355, 356],
      "LargestImagePixelValue": [11402, 11077, 11126, 10856, 10820, 10773, 10822, 10813, 10797, 10796, 10697, 10708, 10771, 10806, 10831, 10772, 10839, 10797, 10724, 10753, 10872, 10804, 10832, 10683, 10766, 10733, 10671, 10998, 10808, 10848, 10818, 10834, 10806, 10808, 10818, 10787, 10777, 10749, 10892, 10767, 10857, 10865, 10874, 10731, 10772, 10721, 10795, 10860, 10835, 10865, 10811, 10768, 10754, 10765, 10781, 10792, 10854, 10909, 10904, 10828, 10814, 10911, 10869, 10929, 10946, 10851, 10815, 10855, 10800, 10888, 10801, 10890, 10918, 10851, 10720, 10889, 10849, 10777, 10879, 10898, 10715, 10792, 10888, 10871, 10833, 10950, 10986, 10802, 10653, 10901, 10852, 10926, 10783, 10832, 10824, 10677, 10678, 10951, 10814, 10694, 10739, 10800, 10841, 10848, 10856, 10857, 10815, 11003, 10799, 10961, 10763, 10804, 10727, 10791, 10949, 10805, 10798, 10817, 10887, 10754, 10753, 10739, 10831, 10774, 10803, 10966, 10870, 10830, 10796, 10824, 10952, 10729, 10811, 10785, 10791, 10782, 10807, 10749, 10800, 10788, 10811, 10858, 10882, 10940, 10819, 10854, 10914, 10907, 10806, 10936, 10924, 10909, 10915, 10953, 10916, 10792, 10966, 10907, 11028, 10855, 10960, 10985, 10974, 11026, 10976, 10942, 10823, 10902, 10980, 10991, 11000, 10874, 10820, 10915, 10944, 10855, 10819, 10925, 10968, 10998, 10734, 10838, 10815, 10748, 10722, 10769, 10611, 10631, 10659, 10719, 10548, 10541, 10868, 10860, 10925, 10916, 10978, 11019, 11120, 11241, 11248, 10955, 11081, 11163, 10801, 10800, 10788, 10886, 10935, 10826, 10901, 10838, 10773, 10725, 10742, 10845, 10609, 10691, 10769, 10673, 10544, 10628, 10640, 10548, 10643, 10584, 10650, 10607, 10675, 10660, 10708, 10562, 10714, 10635, 10485, 10582, 10613, 10635, 10521, 10508, 10712, 10667, 10630, 10674, 10673, 10698, 10723, 11443, 11208, 11300, 11244, 11237, 11226, 11118, 11011, 11026, 11087, 11215, 11040, 11190, 11014, 10990, 10870, 10972, 10886, 10800, 10703, 10727, 10745, 10877, 10775, 10914, 10919, 10858, 10708, 10865, 10967, 10715, 10792, 10838, 10703, 10749, 10884, 10726, 10934, 10872, 10763, 10778, 10710, 10675, 10630, 10635, 10723, 10705, 10717, 10768, 10762, 10720, 10730, 10677, 10657, 10655, 10662, 10826, 10666, 10681, 10873, 10790, 11453, 11636, 11677, 11701, 11589, 11607, 11229, 11499, 11351, 11309, 11288, 11202, 11276, 11156, 11238, 11246, 11206, 11376, 11484, 11378, 11135, 11149, 11232, 11250, 11286, 11421, 11473, 11499, 11437, 11529, 11551, 11514, 11470, 11524, 11383, 11194, 11203, 11191, 11111, 10966, 10845, 10919, 10873, 10799, 10836, 10983, 10922, 10756],
