{
  "AcquisitionMatrixPE": 106,
  "AcquisitionNumber": 1,
  "AcquisitionTime": "11:18:50.562500",
  "BandwidthPerPixelPhaseEncode": 13.477,
  "BaseResolution": 106,
  "BodyPartExamined": "BRAIN",
  "CoilCombinationMethod": "Sum of Squares",
  "ConsistencyInfo": "N4_VE11C_LATEST_20160120",
  "ConversionSoftware": "dcm2niix",
  "ConversionSoftwareVersion": "v1.0.20220720",
  "DerivedVendorReportedEchoSpacing": 0.000700005,
  "DeviceSerialNumber": "166108",
  "DwellTime": 2.6e-06,
  "EchoTime": 0.03,
  "EchoTrainLength": 80,
  "EffectiveEchoSpacing": 0.000700005,
  "FlipAngle": 62,
  "HeudiconvVersion": "1.3.0",
  "ImageComments": "Unaliased MB4/PE3/LB",
  "ImageOrientationPatientDICOM": [1, 0, 0, 0, 0.892586, -0.450878],
  "ImageOrientationText": "Tra>Cor(-26.8)",
  "ImageType": [
    "ORIGINAL",
    "PRIMARY",
    "M",
    "MB",
    "ND",
    "MOSAIC"
],
  "ImagingFrequency": 123.244,
  "InPlanePhaseEncodingDirectionDICOM": "COL",
  "InstitutionAddress": "Bedford Way 26,London,London,GB,WC1H 0AP",
  "InstitutionName": "University College",
  "InstitutionalDepartmentName": "Department",
  "MRAcquisitionType": "2D",
  "MagneticFieldStrength": 3,
  "Manufacturer": "Siemens",
  "ManufacturersModelName": "Prisma",
  "MatrixCoilMode": "SENSE",
  "Modality": "MR",
  "MultibandAccelerationFactor": 4,
  "NonlinearGradientCorrection": false,
  "PartialFourier": 0.75,
  "PatientPosition": "HFS",
  "PercentPhaseFOV": 100,
  "PercentSampling": 100,
  "PhaseEncodingDirection": "j-",
  "PhaseEncodingSteps": 80,
  "PhaseResolution": 1,
  "PixelBandwidth": 1815,
  "ProcedureStepDescription": "Egor^MovieProject2",
  "ProtocolName": "func-bold_task-tono_run-02",
  "PulseSequenceDetails": "%CustomerSeq%\\cmrr_mbep2d_bold",
  "ReceiveCoilActiveElements": "HEA;HEP",
  "ReceiveCoilName": "Head_32",
  "ReconMatrixPE": 106,
  "RepetitionTime": 1,
  "SAR": 0.0429484,
  "ScanOptions": "PFP\\FS\\EXT",
  "ScanningSequence": "EP",
  "SequenceName": "epfid2d1_106",
  "SequenceVariant": "SK\\SS",
  "SeriesDescription": "func-bold_task-tono_run-02",
  "SeriesNumber": 20,
  "ShimSetting": [-1590, 678, 7401, 227, 55, 70, -119, 34],
  "SliceThickness": 2,
  "SliceTiming": [0, 0.535, 0.09, 0.6225, 0.1775, 0.7125, 0.2675, 0.8025, 0.355, 0.89, 0.445, 0, 0.535, 0.09, 0.6225, 0.1775, 0.7125, 0.2675, 0.8025, 0.355, 0.89, 0.445, 0, 0.535, 0.09, 0.6225, 0.1775, 0.7125, 0.2675, 0.8025, 0.355, 0.89, 0.445, 0, 0.535, 0.09, 0.6225, 0.1775, 0.7125, 0.2675, 0.8025, 0.355, 0.89, 0.445],
  "SoftwareVersions": "syngo MR E11",
  "SpacingBetweenSlices": 2,
  "StationName": "AWP166108",
  "TaskName": "tonotopy",
  "TotalReadoutTime": 0.0735005,
  "TxRefAmp": 238.66,
  "WipMemBlock": "5bec15f4-e40f-4f09-abe9-ab3295fae153||Sequence: R016 ve11c/master r/e634e98; Dec 19 2017 11:00:25 by eja",
  "dcmmeta_affine": [
    [-2.0, 0.0, 0.0, 106.0],
    [0.0, 1.785171627998352, -0.9017550349235535, -68.5691146850586],
    [0.0, 0.9017550349235535, 1.785171627998352, -62.73809814453125],
    [0.0, 0.0, 0.0, 1.0]
],
  "dcmmeta_reorient_transform": [
    [0.0, -1.0, 0.0, 105.0],
    [1.0, 0.0, 0.0, 0.0],
    [0.0, 0.0, 1.0, 0.0],
    [0.0, 0.0, 0.0, 1.0]
],
  "dcmmeta_shape": [106, 106, 44, 264],
  "dcmmeta_slice_dim": 2,
  "dcmmeta_version": 0.6,
  "global": {
    "const": {
      "AcquisitionMatrix": [106, 0, 0, 106],
      "AngioFlag": "N",
      "BitsAllocated": 16,
      "BitsStored": 16,
      "BodyPartExamined": "BRAIN",
      "CardiacNumberOfImages": 1,
      "Columns": 742,
      "EchoNumbers": 1,
      "EchoTime": 30.0,
      "EchoTrainLength": 80,
      "FlipAngle": 62.0,
      "HighBit": 15,
      "ImageOrientationPatient": [1.0, 0.0, 0.0, 0.0, 0.89258582390083, -0.4508775299028],
      "ImagePositionPatient": [-742.0, -686.55849464313, 318.70429300516],
      "ImageType": [
        "ORIGINAL",
        "PRIMARY",
        "M",
        "MB",
        "ND",
        "MOSAIC"
],
      "ImagedNucleus": "1H",
      "ImagingFrequency": 123.243685,
      "InPlanePhaseEncodingDirection": "COL",
      "MRAcquisitionType": "2D",
      "MagneticFieldStrength": 3.0,
      "Manufacturer": "SIEMENS",
      "ManufacturerModelName": "Prisma",
      "Modality": "MR",
      "NominalInterval": 0,
      "NumberOfAverages": 1.0,
      "NumberOfPhaseEncodingSteps": 80,
      "PercentPhaseFieldOfView": 100.0,
      "PercentSampling": 100.0,
      "PerformedProcedureStepStartTime": "100135.233000",
      "PhotometricInterpretation": "MONOCHROME2",
      "PixelBandwidth": 1815.0,
      "PixelRepresentation": 0,
      "PixelSpacing": [2.0, 2.0],
      "ProtocolName": "func-bold_task-tono_run-02",
      "RepetitionTime": 1000.0,
      "Rows": 742,
      "SAR": 0.04294843590511,
      "SamplesPerPixel": 1,
      "ScanOptions": [
        "PFP",
        "FS",
        "EXT"
],
      "ScanningSequence": "EP",
      "SequenceName": "epfid2d1_106",
      "SequenceVariant": [
        "SK",
        "SS"
],
      "SeriesDescription": "func-bold_task-tono_run-02",
      "SeriesNumber": 20,
      "SeriesTime": "111924.782000",
      "SliceLocation": -25.082864245758,
      "SliceThickness": 2.0,
      "SmallestImagePixelValue": 0,
      "SoftwareVersions": "syngo MR E11",
      "SpacingBetweenSlices": 2.0000000078521,
      "SpecificCharacterSet": "ISO_IR 100",
      "StudyID": "1",
      "StudyTime": "100135.184000",
      "TransmitCoilName": "Body",
      "VariableFlipAngleFlag": "N",
      "WindowCenterWidthExplanation": "Algo1",
      "dBdt": 0.0},
    "slices": {}
  },
  "time": {
    "samples": {
      "AcquisitionNumber": [1, 2, 3, 4, 5, 6, 7, 8, 9, 10, 11, 12, 13, 14, 15, 16, 17, 18, 19, 20, 21, 22, 23, 24, 25, 26, 27, 28, 29, 30, 31, 32, 33, 34, 35, 36, 37, 38, 39, 40, 41, 42, 43, 44, 45, 46, 47, 48, 49, 50, 51, 52, 53, 54, 55, 56, 57, 58, 59, 60, 61, 62, 63, 64, 65, 66, 67, 68, 69, 70, 71, 72, 73, 74, 75, 76, 77, 78, 79, 80, 81, 82, 83, 84, 85, 86, 87, 88, 89, 90, 91, 92, 93, 94, 95, 96, 97, 98, 99, 100, 101, 102, 103, 104, 105, 106, 107, 108, 109, 110, 111, 112, 113, 114, 115, 116, 117, 118, 119, 120, 121, 122, 123, 124, 125, 126, 127, 128, 129, 130, 131, 132, 133, 134, 135, 136, 137, 138, 139, 140, 141, 142, 143, 144, 145, 146, 147, 148, 149, 150, 151, 152, 153, 154, 155, 156, 157, 158, 159, 160, 161, 162, 163, 164, 165, 166, 167, 168, 169, 170, 171, 172, 173, 174, 175, 176, 177, 178, 179, 180, 181, 182, 183, 184, 185, 186, 187, 188, 189, 190, 191, 192, 193, 194, 195, 196, 197, 198, 199, 200, 201, 202, 203, 204, 205, 206, 207, 208, 209, 210, 211, 212, 213, 214, 215, 216, 217, 218, 219, 220, 221, 222, 223, 224, 225, 226, 227, 228, 229, 230, 231, 232, 233, 234, 235, 236, 237, 238, 239, 240, 241, 242, 243, 244, 245, 246, 247, 248, 249, 250, 251, 252, 253, 254, 255, 256, 257, 258, 259, 260, 261, 262, 263, 264],
      "AcquisitionTime": ["111850.562500", "111851.562500", "111852.562500", "111853.562500", "111854.562500", "111855.562500", "111856.562500", "111857.562500", "111858.562500", "111859.562500", "111900.562500", "111901.562500", "111902.562500", "111903.562500", "111904.562500", "111905.562500", "111906.562500", "111907.562500", "111908.562500", "111909.562500", "111910.562500", "111911.562500", "111912.562500", "111913.562500", "111914.562500", "111915.562500", "111916.562500", "111917.562500", "111918.562500", "111919.562500", "111920.562500", "111921.562500", "111922.562500", "111923.562500", "111924.562500", "111925.562500", "111926.562500", "111927.562500", "111928.562500", "111929.562500", "111930.562500", "111931.562500", "111932.562500", "111933.562500", "111934.562500", "111935.562500", "111936.562500", "111937.562500", "111938.562500", "111939.562500", "111940.562500", "111941.562500", "111942.562500", "111943.562500", "111944.562500", "111945.562500", "111946.562500", "111947.562500", "111948.562500", "111949.562500", "111950.562500", "111951.562500", "111952.562500", "111953.562500", "111954.562500", "111955.562500", "111956.562500", "111957.562500", "111958.562500", "111959.562500", "112000.562500", "112001.562500", "112002.562500", "112003.562500", "112004.562500", "112005.562500", "112006.562500", "112007.562500", "112008.562500", "112009.562500", "112010.562500", "112011.562500", "112012.562500", "112013.562500", "112014.562500", "112015.562500", "112016.562500", "112017.562500", "112018.562500", "112019.562500", "112020.562500", "112021.562500", "112022.562500", "112023.562500", "112024.562500", "112025.562500", "112026.562500", "112027.562500", "112028.562500", "112029.562500", "112030.562500", "112031.562500", "112032.562500", "112033.562500", "112034.562500", "112035.562500", "112036.562500", "112037.562500", "112038.562500", "112039.562500", "112040.562500", "112041.562500", "112042.562500", "112043.562500", "112044.562500", "112045.562500", "112046.562500", "112047.562500", "112048.562500", "112049.562500", "112050.562500", "112051.562500", "112052.562500", "112053.562500", "112054.562500", "112055.562500", "112056.562500", "112057.562500", "112058.562500", "112059.562500", "112100.562500", "112101.562500", "112102.562500", "112103.562500", "112104.562500", "112105.562500", "112106.562500", "112107.562500", "112108.562500", "112109.562500", "112110.562500", "112111.562500", "112112.562500", "112113.562500", "112114.562500", "112115.562500", "112116.562500", "112117.562500", "112118.562500", "112119.562500", "112120.562500", "112121.562500", "112122.562500", "112123.562500", "112124.562500", "112125.562500", "112126.562500", "112127.562500", "112128.562500", "112129.562500", "112130.562500", "112131.562500", "112132.562500", "112133.562500", "112134.562500", "112135.562500", "112136.562500", "112137.562500", "112138.562500", "112139.562500", "112140.562500", "112141.562500", "112142.562500", "112143.562500", "112144.562500", "112145.562500", "112146.562500", "112147.562500", "112148.562500", "112149.562500", "112150.562500", "112151.562500", "112152.562500", "112153.562500", "112154.562500", "112155.562500", "112156.562500", "112157.562500", "112158.562500", "112159.562500", "112200.562500", "112201.562500", "112202.562500", "112203.562500", "112204.562500", "112205.562500", "112206.562500", "112207.562500", "112208.562500", "112209.562500", "112210.562500", "112211.562500", "112212.562500", "112213.562500", "112214.562500", "112215.562500", "112216.562500", "112217.562500", "112218.562500", "112219.562500", "112220.562500", "112221.562500", "112222.562500", "112223.562500", "112224.562500", "112225.562500", "112226.562500", "112227.562500", "112228.562500", "112229.562500", "112230.562500", "112231.562500", "112232.562500", "112233.562500", "112234.562500", "112235.562500", "112236.562500", "112237.562500", "112238.562500", "112239.562500", "112240.562500", "112241.562500", "112242.562500", "112243.562500", "112244.562500", "112245.562500", "112246.562500", "112247.562500", "112248.562500", "112249.562500", "112250.562500", "112251.562500", "112252.562500", "112253.562500", "112254.562500", "112255.562500", "112256.562500", "112257.562500", "112258.562500", "112259.562500", "112300.562500", "112301.562500", "112302.562500", "112303.562500", "112304.562500", "112305.562500", "112306.562500", "112307.562500", "112308.562500", "112309.562500", "112310.562500", "112311.562500", "112312.562500", "112313.562500"],
      "ContentTime": ["111924.784000", "111924.787000", "111924.790000", "111924.792000", "111924.795000", "111924.797000", "111924.799000", "111924.802000", "111924.810000", "111924.813000", "111924.815000", "111924.818000", "111924.820000", "111924.823000", "111924.825000", "111924.828000", "111924.830000", "111924.833000", "111924.835000", "111924.837000", "111924.840000", "111924.842000", "111924.845000", "111924.847000", "111924.850000", "111924.852000", "111924.854000", "111924.857000", "111924.859000", "111924.862000", "111924.864000", "111924.867000", "111924.869000", "111944.753000", "111944.756000", "111944.758000", "111944.761000", "111944.763000", "111944.766000", "111944.768000", "111944.771000", "111944.773000", "111944.775000", "111944.778000", "111944.780000", "111944.783000", "111944.785000", "111944.787000", "111944.802000", "111944.804000", "111944.807000", "111944.809000", "111944.812000", "112004.753000", "112004.756000", "112004.758000", "112004.761000", "112004.763000", "112004.766000", "112004.768000", "112004.770000", "112004.773000", "112004.775000", "112004.778000", "112004.780000", "112004.789000", "112004.792000", "112004.794000", "112004.796000", "112004.799000", "112004.801000", "112004.804000", "112004.806000", "112024.753000", "112024.764000", "112024.766000", "112024.769000", "112024.771000", "112024.773000", "112024.776000", "112024.778000", "112024.781000", "112024.783000", "112024.786000", "112024.788000", "112024.790000", "112024.793000", "112024.795000", "112024.797000", "112024.800000", "112024.802000", "112024.805000", "112024.807000", "112044.752000", "112044.755000", "112044.757000", "112044.760000", "112044.762000", "112044.765000", "112044.767000", "112044.769000", "112044.772000", "112044.774000", "112044.791000", "112044.793000", "112044.795000", "112044.798000", "112044.800000", "112044.803000", "112044.805000", "112044.807000", "112044.810000", "112044.812000", "112104.752000", "112104.755000", "112104.757000", "112104.760000", "112104.762000", "112104.765000", "112104.767000", "112104.769000", "112104.772000", "112104.774000", "112104.777000", "112104.786000", "112104.788000", "112104.791000", "112104.793000", "112104.796000", "112104.798000", "112104.800000", "112104.803000", "112104.805000", "112124.753000", "112124.755000", "112124.758000", "112124.760000", "112124.763000", "112124.765000", "112124.767000", "112124.770000", "112124.772000", "112124.775000", "112124.777000", "112124.779000", "112124.782000", "112124.784000", "112124.787000", "112124.789000", "112124.792000", "112124.794000", "112124.797000", "112124.799000", "112144.753000", "112144.756000", "112144.758000", "112144.761000", "112144.763000", "112144.766000", "112144.768000", "112144.771000", "112144.773000", "112144.775000", "112144.778000", "112144.780000", "112144.783000", "112144.785000", "112144.788000", "112144.790000", "112144.792000", "112144.795000", "112144.797000", "112144.800000", "112204.753000", "112204.756000", "112204.759000", "112204.761000", "112204.763000", "112204.766000", "112204.768000", "112204.771000", "112204.773000", "112204.776000", "112204.778000", "112204.780000", "112204.783000", "112204.785000", "112204.788000", "112204.790000", "112204.793000", "112204.795000", "112204.798000", "112204.800000", "112224.753000", "112224.756000", "112224.758000", "112224.761000", "112224.764000", "112224.767000", "112224.769000", "112224.771000", "112224.774000", "112224.776000", "112224.779000", "112224.781000", "112224.784000", "112224.786000", "112224.789000", "112224.791000", "112224.793000", "112224.796000", "112224.798000", "112224.801000", "112244.753000", "112244.756000", "112244.758000", "112244.761000", "112244.763000", "112244.766000", "112244.768000", "112244.771000", "112244.773000", "112244.776000", "112244.778000", "112244.781000", "112244.783000", "112244.785000", "112244.788000", "112244.790000", "112244.793000", "112244.795000", "112244.798000", "112244.800000", "112304.753000", "112304.755000", "112304.758000", "112304.760000", "112304.763000", "112304.765000", "112304.768000", "112304.770000", "112304.772000", "112304.775000", "112304.777000", "112304.780000", "112304.782000", "112304.785000", "112304.787000", "112304.790000", "112304.792000", "112304.794000", "112304.797000", "112304.799000", "112315.181000", "112315.184000", "112315.187000", "112315.190000", "112315.193000", "112315.195000", "112315.198000", "112315.200000", "112315.204000", "112315.207000", "112315.209000"],
      "InstanceCreationTime": ["111924.784000", "111924.787000", "111924.790000", "111924.792000", "111924.795000", "111924.797000", "111924.799000", "111924.802000", "111924.810000", "111924.813000", "111924.815000", "111924.818000", "111924.820000", "111924.823000", "111924.825000", "111924.828000", "111924.830000", "111924.833000", "111924.835000", "111924.837000", "111924.840000", "111924.842000", "111924.845000", "111924.847000", "111924.850000", "111924.852000", "111924.854000", "111924.857000", "111924.859000", "111924.862000", "111924.864000", "111924.867000", "111924.869000", "111944.753000", "111944.756000", "111944.758000", "111944.761000", "111944.763000", "111944.766000", "111944.768000", "111944.771000", "111944.773000", "111944.775000", "111944.778000", "111944.780000", "111944.783000", "111944.785000", "111944.787000", "111944.802000", "111944.804000", "111944.807000", "111944.809000", "111944.812000", "112004.753000", "112004.756000", "112004.758000", "112004.761000", "112004.763000", "112004.766000", "112004.768000", "112004.770000", "112004.773000", "112004.775000", "112004.778000", "112004.780000", "112004.789000", "112004.792000", "112004.794000", "112004.796000", "112004.799000", "112004.801000", "112004.804000", "112004.806000", "112024.753000", "112024.764000", "112024.766000", "112024.769000", "112024.771000", "112024.773000", "112024.776000", "112024.778000", "112024.781000", "112024.783000", "112024.786000", "112024.788000", "112024.790000", "112024.793000", "112024.795000", "112024.797000", "112024.800000", "112024.802000", "112024.805000", "112024.807000", "112044.752000", "112044.755000", "112044.757000", "112044.760000", "112044.762000", "112044.765000", "112044.767000", "112044.769000", "112044.772000", "112044.774000", "112044.791000", "112044.793000", "112044.795000", "112044.798000", "112044.800000", "112044.803000", "112044.805000", "112044.807000", "112044.810000", "112044.812000", "112104.752000", "112104.755000", "112104.757000", "112104.760000", "112104.762000", "112104.765000", "112104.767000", "112104.769000", "112104.772000", "112104.774000", "112104.777000", "112104.786000", "112104.788000", "112104.791000", "112104.793000", "112104.796000", "112104.798000", "112104.800000", "112104.803000", "112104.805000", "112124.753000", "112124.755000", "112124.758000", "112124.760000", "112124.763000", "112124.765000", "112124.767000", "112124.770000", "112124.772000", "112124.775000", "112124.777000", "112124.779000", "112124.782000", "112124.784000", "112124.787000", "112124.789000", "112124.792000", "112124.794000", "112124.797000", "112124.799000", "112144.753000", "112144.756000", "112144.758000", "112144.761000", "112144.763000", "112144.766000", "112144.768000", "112144.771000", "112144.773000", "112144.775000", "112144.778000", "112144.780000", "112144.783000", "112144.785000", "112144.788000", "112144.790000", "112144.792000", "112144.795000", "112144.797000", "112144.800000", "112204.753000", "112204.756000", "112204.759000", "112204.761000", "112204.763000", "112204.766000", "112204.768000", "112204.771000", "112204.773000", "112204.776000", "112204.778000", "112204.780000", "112204.783000", "112204.785000", "112204.788000", "112204.790000", "112204.793000", "112204.795000", "112204.798000", "112204.800000", "112224.753000", "112224.756000", "112224.758000", "112224.761000", "112224.764000", "112224.767000", "112224.769000", "112224.771000", "112224.774000", "112224.776000", "112224.779000", "112224.781000", "112224.784000", "112224.786000", "112224.789000", "112224.791000", "112224.793000", "112224.796000", "112224.798000", "112224.801000", "112244.753000", "112244.756000", "112244.758000", "112244.761000", "112244.763000", "112244.766000", "112244.768000", "112244.771000", "112244.773000", "112244.776000", "112244.778000", "112244.781000", "112244.783000", "112244.785000", "112244.788000", "112244.790000", "112244.793000", "112244.795000", "112244.798000", "112244.800000", "112304.753000", "112304.755000", "112304.758000", "112304.760000", "112304.763000", "112304.765000", "112304.768000", "112304.770000", "112304.772000", "112304.775000", "112304.777000", "112304.780000", "112304.782000", "112304.785000", "112304.787000", "112304.790000", "112304.792000", "112304.794000", "112304.797000", "112304.799000", "112315.181000", "112315.184000", "112315.187000", "112315.190000", "112315.193000", "112315.195000", "112315.198000", "112315.200000", "112315.204000", "112315.207000", "112315.209000"],
      "InstanceNumber": [1, 2, 3, 4, 5, 6, 7, 8, 9, 10, 11, 12, 13, 14, 15, 16, 17, 18, 19, 20, 21, 22, 23, 24, 25, 26, 27, 28, 29, 30, 31, 32, 33, 34, 35, 36, 37, 38, 39, 40, 41, 42, 43, 44, 45, 46, 47, 48, 49, 50, 51, 52, 53, 54, 55, 56, 57, 58, 59, 60, 61, 62, 63, 64, 65, 66, 67, 68, 69, 70, 71, 72, 73, 74, 75, 76, 77, 78, 79, 80, 81, 82, 83, 84, 85, 86, 87, 88, 89, 90, 91, 92, 93, 94, 95, 96, 97, 98, 99, 100, 101, 102, 103, 104, 105, 106, 107, 108, 109, 110, 111, 112, 113, 114, 115, 116, 117, 118, 119, 120, 121, 122, 123, 124, 125, 126, 127, 128, 129, 130, 131, 132, 133, 134, 135, 136, 137, 138, 139, 140, 141, 142, 143, 144, 145, 146, 147, 148, 149, 150, 151, 152, 153, 154, 155, 156, 157, 158, 159, 160, 161, 162, 163, 164, 165, 166, 167, 168, 169, 170, 171, 172, 173, 174, 175, 176, 177, 178, 179, 180, 181, 182, 183, 184, 185, 186, 187, 188, 189, 190, 191, 192, 193, 194, 195, 196, 197, 198, 199, 200, 201, 202, 203, 204, 205, 206, 207, 208, 209, 210, 211, 212, 213, 214, 215, 216, 217, 218, 219, 220, 221, 222, 223, 224, 225, 226, 227, 228, 229, 230, 231, 232, 233, 234, 235, 236, 237, 238, 239, 240, 241, 242, 243, 244, 245, 246, 247, 248, 249, 250, 251, 252, 253, 254, 255, 256, 257, 258, 259, 260, 261, 262, 263, 264],
      "LargestImagePixelValue": [12555, 12234, 12287, 12264, 12077, 12063, 12066, 12170, 12130, 12119, 12200, 12152, 12063, 12086, 12233, 12213, 12221, 12237, 12068, 12252, 12179, 12122, 12129, 12194, 12109, 12050, 12241, 12275, 12077, 12056, 12151, 12188, 12138, 12215, 12233, 12209, 12138, 12242, 12140, 12253, 12214, 12194, 12092, 12238, 12161, 12167, 12255, 12275, 12319, 12145, 12260, 12344, 12144, 12059, 12154, 12269, 12258, 12253, 12251, 12345, 12217, 12300, 12230, 12280, 12100, 12231, 12289, 12212, 12168, 12183, 12373, 12357, 12236, 12381, 12342, 12144, 12256, 12225, 12212, 12124, 12227, 12215, 12115, 12061, 12113, 12067, 12185, 11984, 12141, 12112, 12264, 12185, 12226, 12262, 12137, 12104, 12160, 12245, 12105, 12154, 12206, 12124, 12090, 12114, 12133, 12244, 12201, 12197, 12295, 12117, 12085, 12127, 12229, 12093, 12115, 12259, 12198, 12185, 12110, 12123, 12148, 12148, 12206, 12170, 12193, 12110, 12186, 12085, 12085, 12004, 12134, 12130, 12106, 12012, 12205, 12219, 12121, 12146, 12130, 12034, 11893, 11962, 11966, 11950, 11891, 12140, 12139, 12108, 12070, 12100, 12193, 12188, 12234, 12278, 12255, 12054, 12028, 12176, 12046, 12041, 12227, 12242, 12103, 12115, 12098, 12024, 11999, 11881, 11998, 11976, 11964, 11883, 11932, 11964, 12012, 12035, 12042, 12057, 11870, 11786, 11986, 11896, 11730, 11837, 11948, 12003, 11930, 11909, 11850, 11892, 11717, 11647, 11722, 11670, 11673, 11541, 11666, 11667, 11701, 11658, 11647, 11515, 11478, 11501, 11626, 11549, 11428, 11458, 11454, 11336, 11377, 11503, 11355, 11328, 11376, 11363, 11310, 11264, 11298, 11294, 11386, 11478, 11446, 11551, 11569, 11484, 11520, 11542, 11528, 11549, 11372, 11339, 11305, 11214, 11210, 11100, 11144, 11354, 11120, 11171, 11140, 11259, 11087, 11192, 11221, 11320, 11219, 11214, 11288, 11303, 11149, 11183, 11176, 11107, 11097, 11069, 11113, 11277, 11217, 11058, 11095, 11124, 10863, 10938],
      "TriggerTime": [8100.0, 9100.0, 10100.0, 11100.0, 12100.0, 13100.0, 14100.0, 15100.0, 16100.0, 17100.0, 18100.0, 19100.0, 20100.0, 21100.0, 22100.0, 23100.0, 24100.0, 25100.0, 26100.0, 27100.0, 28100.0, 29100.0, 30100.0, 31100.0, 32100.0, 33100.0, 34100.0, 35100.0, 36100.0, 37100.0, 38100.0, 39100.0, 40100.0, 41100.0, 42100.0, 43100.0, 44100.0, 45100.0, 46100.0, 47100.0, 48100.0, 49100.0, 50100.0, 51100.0, 52100.0, 53100.0, 54100.0, 55100.0, 56100.0, 57100.0, 58100.0, 59100.0, 60100.0, 61100.0, 62100.0, 63100.0, 64100.0, 65100.0, 66100.0, 67100.0, 68100.0, 69100.0, 70100.0, 71100.0, 72100.0, 73100.0, 74100.0, 75100.0, 76100.0, 77100.0, 78100.0, 79100.0, 80100.0, 81100.0, 82100.0, 83100.0, 84100.0, 85100.0, 86100.0, 87100.0, 88100.0, 89100.0, 90100.0, 91100.0, 92100.0, 93100.0, 94100.0, 95100.0, 96100.0, 97100.0, 98100.0, 99100.0, 100100.0, 101100.0, 102100.0, 103100.0, 104100.0, 105100.0, 106100.0, 107100.0, 108100.0, 109100.0, 110100.0, 111100.0, 112100.0, 113100.0, 114100.0, 115100.0, 116100.0, 117100.0, 118100.0, 119100.0, 120100.0, 121100.0, 122100.0, 123100.0, 124100.0, 125100.0, 126100.0, 127100.0, 128100.0, 129100.0, 130100.0, 131100.0, 132100.0, 133100.0, 134100.0, 135100.0, 136100.0, 137100.0, 138100.0, 139100.0, 140100.0, 141100.0, 142100.0, 143100.0, 144100.0, 145100.0, 146100.0, 147100.0, 148100.0, 149100.0, 150100.0, 151100.0, 152100.0, 153100.0, 154100.0, 155100.0, 156100.0, 157100.0, 158100.0, 159100.0, 160100.0, 161100.0, 162100.0, 163100.0, 164100.0, 165100.0, 166100.0, 167100.0, 168100.0, 169100.0, 170100.0, 171100.0, 172100.0, 173100.0, 174100.0, 175100.0, 176100.0, 177100.0, 178100.0, 179100.0, 180100.0, 181100.0, 182100.0, 183100.0, 184100.0, 185100.0, 186100.0, 187100.0, 188100.0, 189100.0, 190100.0, 191100.0, 192100.0, 193100.0, 194100.0, 195100.0, 196100.0, 197100.0, 198100.0, 199100.0, 200100.0, 201100.0, 202100.0, 203100.0, 204100.0, 205100.0, 206100.0, 207100.0, 208100.0, 209100.0, 210100.0, 211100.0, 212100.0, 213100.0, 214100.0, 215100.0, 216100.0, 217100.0, 218100.0, 219100.0, 220100.0, 221100.0, 222100.0, 223100.0, 224100.0, 225100.0, 226100.0, 227100.0, 228100.0, 229100.0, 230100.0, 231100.0, 232100.0, 233100.0, 234100.0, 235100.0, 236100.0, 237100.0, 238100.0, 239100.0, 240100.0, 241100.0, 242100.0, 243100.0, 244100.0, 245100.0, 246100.0, 247100.0, 248100.0, 249100.0, 250100.0, 251100.0, 252100.0, 253100.0, 254100.0, 255100.0, 256100.0, 257100.0, 258100.0, 259100.0, 260100.0, 261100.0, 262100.0, 263100.0, 264100.0, 265100.0, 266100.0, 267100.0, 268100.0, 269100.0, 270100.0, 271100.0],
      "WindowCenter": [4750.0, 4737.0, 4734.0, 4734.0, 4723.0, 4734.0, 4735.0, 4735.0, 4735.0, 4736.0, 4747.0, 4748.0, 4737.0, 4735.0, 4734.0, 4734.0, 4733.0, 4735.0, 4736.0, 4747.0, 4736.0, 4735.0, 4734.0, 4734.0, 4723.0, 4733.0, 4734.0, 4735.0, 4736.0, 4748.0, 4748.0, 4748.0, 4737.0, 4737.0, 4748.0, 4749.0, 4749.0, 4749.0, 4750.0, 4750.0, 4750.0, 4749.0, 4750.0, 4751.0, 4752.0, 4751.0, 4762.0, 4751.0, 4752.0, 4751.0, 4763.0, 4762.0, 4751.0, 4751.0, 4752.0, 4762.0, 4751.0, 4751.0, 4750.0, 4760.0, 4748.0, 4747.0, 4748.0, 4749.0, 4749.0, 4750.0, 4751.0, 4751.0, 4750.0, 4750.0, 4760.0, 4760.0, 4749.0, 4749.0, 4760.0, 4751.0, 4751.0, 4752.0, 4752.0, 4762.0, 4752.0, 4763.0, 4763.0, 4752.0, 4753.0, 4763.0, 4763.0, 4752.0, 4762.0, 4762.0, 4752.0, 4751.0, 4751.0, 4751.0, 4752.0, 4752.0, 4763.0, 4753.0, 4753.0, 4752.0, 4752.0, 4751.0, 4751.0, 4752.0, 4762.0, 4761.0, 4750.0, 4750.0, 4750.0, 4750.0, 4751.0, 4751.0, 4751.0, 4751.0, 4751.0, 4751.0, 4761.0, 4752.0, 4751.0, 4751.0, 4750.0, 4750.0, 4749.0, 4750.0, 4750.0, 4750.0, 4751.0, 4752.0, 4752.0, 4751.0, 4751.0, 4751.0, 4751.0, 4750.0, 4751.0, 4762.0, 4763.0, 4752.0, 4752.0, 4752.0, 4741.0, 4741.0, 4751.0, 4752.0, 4741.0, 4753.0, 4753.0, 4753.0, 4751.0, 4751.0, 4750.0, 4750.0, 4749.0, 4749.0, 4750.0, 4749.0, 4739.0, 4748.0, 4749.0, 4749.0, 4739.0, 4750.0, 4750.0, 4739.0, 4750.0, 4739.0, 4739.0, 4728.0, 4741.0, 4751.0, 4753.0, 4742.0, 4752.0, 4752.0, 4751.0, 4738.0, 4737.0, 4738.0, 4739.0, 4739.0, 4741.0, 4742.0, 4741.0, 4739.0, 4738.0, 4737.0, 4738.0, 4738.0, 4740.0, 4751.0, 4752.0, 4742.0, 4752.0, 4742.0, 4743.0, 4742.0, 4742.0, 4742.0, 4752.0, 4732.0, 4742.0, 4742.0, 4741.0, 4741.0, 4742.0, 4742.0, 4743.0, 4743.0, 4742.0, 4731.0, 4730.0, 4730.0, 4730.0, 4731.0, 4730.0, 4741.0, 4732.0, 4732.0, 4732.0, 4733.0, 4744.0, 4743.0, 4743.0, 4742.0, 4740.0, 4730.0, 4729.0, 4728.0, 4741.0, 4742.0, 4731.0, 4730.0, 4730.0, 4730.0, 4719.0, 4730.0, 4731.0, 4732.0, 4720.0, 4730.0, 4731.0, 4731.0, 4720.0, 4730.0, 4730.0, 4730.0, 4718.0, 4717.0, 4716.0, 4704.0, 4704.0, 4715.0, 4717.0, 4717.0, 4719.0, 4730.0, 4720.0, 4719.0, 4719.0, 4718.0, 4718.0, 4717.0, 4707.0, 4718.0],
