{
  "AcquisitionMatrixPE": 106,
  "AcquisitionNumber": 1,
  "AcquisitionTime": "10:34:53.965000",
  "BandwidthPerPixelPhaseEncode": 13.477,
  "BaseResolution": 106,
  "BodyPartExamined": "BRAIN",
  "CoilCombinationMethod": "Sum of Squares",
  "ConsistencyInfo": "N4_VE11C_LATEST_20160120",
  "ConversionSoftware": "dcm2niix",
  "ConversionSoftwareVersion": "v1.0.20220720",
  "DerivedVendorReportedEchoSpacing": 0.000700005,
  "DeviceSerialNumber": "166108",
  "DwellTime": 2.6e-06,
  "EchoTime": 0.03,
  "EchoTrainLength": 80,
  "EffectiveEchoSpacing": 0.000700005,
  "FlipAngle": 62,
  "HeudiconvVersion": "1.3.0",
  "ImageComments": "Unaliased MB4/PE3/LB",
  "ImageOrientationPatientDICOM": [1, 0, 0, 0, 0.971134, -0.238533],
  "ImageOrientationText": "Tra>Cor(-13.8)",
  "ImageType": [
    "ORIGINAL",
    "PRIMARY",
    "M",
    "MB",
    "ND",
    "MOSAIC"
],
  "ImagingFrequency": 123.244,
  "InPlanePhaseEncodingDirectionDICOM": "COL",
  "InstitutionAddress": "Bedford Way 26,London,London,GB,WC1H 0AP",
  "InstitutionName": "University College",
  "InstitutionalDepartmentName": "Department",
  "MRAcquisitionType": "2D",
  "MagneticFieldStrength": 3,
  "Manufacturer": "Siemens",
  "ManufacturersModelName": "Prisma",
  "MatrixCoilMode": "SENSE",
  "Modality": "MR",
  "MultibandAccelerationFactor": 4,
  "NonlinearGradientCorrection": false,
  "PartialFourier": 0.75,
  "PatientPosition": "HFS",
  "PercentPhaseFOV": 100,
  "PercentSampling": 100,
  "PhaseEncodingDirection": "j-",
  "PhaseEncodingSteps": 80,
  "PhaseResolution": 1,
  "PixelBandwidth": 1815,
  "ProcedureStepDescription": "Egor^MovieProject2",
  "ProtocolName": "func-bold_task-motor_run-01",
  "PulseSequenceDetails": "%CustomerSeq%\\cmrr_mbep2d_bold",
  "ReceiveCoilActiveElements": "HEA;HEP",
  "ReceiveCoilName": "Head_32",
  "ReconMatrixPE": 106,
  "RepetitionTime": 1,
  "SAR": 0.0430924,
  "ScanOptions": "PFP\\FS\\EXT",
  "ScanningSequence": "EP",
  "SequenceName": "epfid2d1_106",
  "SequenceVariant": "SK\\SS",
  "SeriesDescription": "func-bold_task-motor_run-01",
  "SeriesNumber": 6,
  "ShimSetting": [-1590, 654, 7405, 209, 37, -10, -127, 3],
  "SliceThickness": 2,
  "SliceTiming": [0, 0.535, 0.0875, 0.6225, 0.1775, 0.7125, 0.2675, 0.8025, 0.355, 0.89, 0.445, 0, 0.535, 0.0875, 0.6225, 0.1775, 0.7125, 0.2675, 0.8025, 0.355, 0.89, 0.445, 0, 0.535, 0.0875, 0.6225, 0.1775, 0.7125, 0.2675, 0.8025, 0.355, 0.89, 0.445, 0, 0.535, 0.0875, 0.6225, 0.1775, 0.7125, 0.2675, 0.8025, 0.355, 0.89, 0.445],
  "SoftwareVersions": "syngo MR E11",
  "SpacingBetweenSlices": 2,
  "StationName": "AWP166108",
  "TaskName": "somatotopy",
  "TotalReadoutTime": 0.0735005,
  "TxRefAmp": 238.66,
  "WipMemBlock": "1aa5bab8-edf8-4427-9cf2-f5cb69764f7b||Sequence: R016 ve11c/master r/e634e98; Dec 19 2017 11:00:25 by eja",
  "dcmmeta_affine": [
    [-2.0, 0.0, 0.0, 106.0],
    [0.0, 1.9422686100006104, -0.47706693410873413, -88.909912109375],
    [0.0, 0.47706693410873413, 1.9422684907913208, -23.868043899536133],
    [0.0, 0.0, 0.0, 1.0]
],
  "dcmmeta_reorient_transform": [
    [0.0, -1.0, 0.0, 105.0],
    [1.0, 0.0, 0.0, 0.0],
    [0.0, 0.0, 1.0, 0.0],
    [0.0, 0.0, 0.0, 1.0]
],
  "dcmmeta_shape": [106, 106, 44, 467],
  "dcmmeta_slice_dim": 2,
  "dcmmeta_version": 0.6,
  "global": {
    "const": {
      "AcquisitionMatrix": [106, 0, 0, 106],
      "AngioFlag": "N",
      "BitsAllocated": 16,
      "BitsStored": 16,
      "BodyPartExamined": "BRAIN",
      "CardiacNumberOfImages": 1,
      "Columns": 742,
      "EchoNumbers": 1,
      "EchoTime": 30.0,
      "EchoTrainLength": 80,
      "FlipAngle": 62.0,
      "HighBit": 15,
      "ImageOrientationPatient": [1.0, 0.0, 0.0, 0.0, 0.97113427618897, -0.2385334727264],
      "ImagePositionPatient": [-742.0, -732.66968663552, 177.93127445039],
      "ImageType": [
        "ORIGINAL",
        "PRIMARY",
        "M",
        "MB",
        "ND",
        "MOSAIC"
],
      "ImagedNucleus": "1H",
      "ImagingFrequency": 123.243681,
      "InPlanePhaseEncodingDirection": "COL",
      "MRAcquisitionType": "2D",
      "MagneticFieldStrength": 3.0,
      "Manufacturer": "SIEMENS",
      "ManufacturerModelName": "Prisma",
      "Modality": "MR",
      "NominalInterval": 0,
      "NumberOfAverages": 1.0,
      "NumberOfPhaseEncodingSteps": 80,
      "PercentPhaseFieldOfView": 100.0,
      "PercentSampling": 100.0,
      "PerformedProcedureStepStartTime": "100135.233000",
      "PhotometricInterpretation": "MONOCHROME2",
      "PixelBandwidth": 1815.0,
      "PixelRepresentation": 0,
      "PixelSpacing": [2.0, 2.0],
      "ProtocolName": "func-bold_task-motor_run-01",
      "RepetitionTime": 1000.0,
      "Rows": 742,
      "SAR": 0.04309236352466,
      "SamplesPerPixel": 1,
      "ScanOptions": [
        "PFP",
        "FS",
        "EXT"
],
      "ScanningSequence": "EP",
      "SequenceName": "epfid2d1_106",
      "SequenceVariant": [
        "SK",
        "SS"
],
      "SeriesDescription": "func-bold_task-motor_run-01",
      "SeriesNumber": 6,
      "SeriesTime": "103524.718000",
      "SliceLocation": -1.9710852897785,
      "SliceThickness": 2.0,
      "SmallestImagePixelValue": 0,
      "SoftwareVersions": "syngo MR E11",
      "SpacingBetweenSlices": 1.999999991118,
      "SpecificCharacterSet": "ISO_IR 100",
      "StudyID": "1",
      "StudyTime": "100135.184000",
      "TransmitCoilName": "Body",
      "VariableFlipAngleFlag": "N",
      "WindowCenterWidthExplanation": "Algo1",
      "dBdt": 0.0},
    "slices": {}
  },
  "time": {
    "samples": {
      "AcquisitionNumber": [1, 2, 3, 4, 5, 6, 7, 8, 9, 10, 11, 12, 13, 14, 15, 16, 17, 18, 19, 20, 21, 22, 23, 24, 25, 26, 27, 28, 29, 30, 31, 32, 33, 34, 35, 36, 37, 38, 39, 40, 41, 42, 43, 44, 45, 46, 47, 48, 49, 50, 51, 52, 53, 54, 55, 56, 57, 58, 59, 60, 61, 62, 63, 64, 65, 66, 67, 68, 69, 70, 71, 72, 73, 74, 75, 76, 77, 78, 79, 80, 81, 82, 83, 84, 85, 86, 87, 88, 89, 90, 91, 92, 93, 94, 95, 96, 97, 98, 99, 100, 101, 102, 103, 104, 105, 106, 107, 108, 109, 110, 111, 112, 113, 114, 115, 116, 117, 118, 119, 120, 121, 122, 123, 124, 125, 126, 127, 128, 129, 130, 131, 132, 133, 134, 135, 136, 137, 138, 139, 140, 141, 142, 143, 144, 145, 146, 147, 148, 149, 150, 151, 152, 153, 154, 155, 156, 157, 158, 159, 160, 161, 162, 163, 164, 165, 166, 167, 168, 169, 170, 171, 172, 173, 174, 175, 176, 177, 178, 179, 180, 181, 182, 183, 184, 185, 186, 187, 188, 189, 190, 191, 192, 193, 194, 195, 196, 197, 198, 199, 200, 201, 202, 203, 204, 205, 206, 207, 208, 209, 210, 211, 212, 213, 214, 215, 216, 217, 218, 219, 220, 221, 222, 223, 224, 225, 226, 227, 228, 229, 230, 231, 232, 233, 234, 235, 236, 237, 238, 239, 240, 241, 242, 243, 244, 245, 246, 247, 248, 249, 250, 251, 252, 253, 254, 255, 256, 257, 258, 259, 260, 261, 262, 263, 264, 265, 266, 267, 268, 269, 270, 271, 272, 273, 274, 275, 276, 277, 278, 279, 280, 281, 282, 283, 284, 285, 286, 287, 288, 289, 290, 291, 292, 293, 294, 295, 296, 297, 298, 299, 300, 301, 302, 303, 304, 305, 306, 307, 308, 309, 310, 311, 312, 313, 314, 315, 316, 317, 318, 319, 320, 321, 322, 323, 324, 325, 326, 327, 328, 329, 330, 331, 332, 333, 334, 335, 336, 337, 338, 339, 340, 341, 342, 343, 344, 345, 346, 347, 348, 349, 350, 351, 352, 353, 354, 355, 356, 357, 358, 359, 360, 361, 362, 363, 364, 365, 366, 367, 368, 369, 370, 371, 372, 373, 374, 375, 376, 377, 378, 379, 380, 381, 382, 383, 384, 385, 386, 387, 388, 389, 390, 391, 392, 393, 394, 395, 396, 397, 398, 399, 400, 401, 402, 403, 404, 405, 406, 407, 408, 409, 410, 411, 412, 413, 414, 415, 416, 417, 418, 419, 420, 421, 422, 423, 424, 425, 426, 427, 428, 429, 430, 431, 432, 433, 434, 435, 436, 437, 438, 439, 440, 441, 442, 443, 444, 445, 446, 447, 448, 449, 450, 451, 452, 453, 454, 455, 456, 457, 458, 459, 460, 461, 462, 463, 464, 465, 466, 467],
      "AcquisitionTime": ["103453.965000", "103454.965000", "103455.965000", "103456.965000", "103457.965000", "103458.965000", "103459.965000", "103500.965000", "103501.965000", "103502.965000", "103503.965000", "103504.965000", "103505.965000", "103506.965000", "103507.965000", "103508.965000", "103509.965000", "103510.965000", "103511.965000", "103512.965000", "103513.965000", "103514.965000", "103515.965000", "103516.965000", "103517.965000", "103518.965000", "103519.965000", "103520.965000", "103521.965000", "103522.965000", "103523.965000", "103524.965000", "103525.965000", "103526.965000", "103527.965000", "103528.965000", "103529.965000", "103530.965000", "103531.965000", "103532.965000", "103533.965000", "103534.965000", "103535.965000", "103536.965000", "103537.965000", "103538.965000", "103539.965000", "103540.965000", "103541.965000", "103542.965000", "103543.965000", "103544.965000", "103545.965000", "103546.965000", "103547.965000", "103548.965000", "103549.965000", "103550.965000", "103551.965000", "103552.965000", "103553.965000", "103554.965000", "103555.965000", "103556.965000", "103557.965000", "103558.965000", "103559.965000", "103600.965000", "103601.965000", "103602.965000", "103603.965000", "103604.965000", "103605.965000", "103606.965000", "103607.965000", "103608.965000", "103609.965000", "103610.965000", "103611.965000", "103612.965000", "103613.965000", "103614.965000", "103615.965000", "103616.965000", "103617.965000", "103618.965000", "103619.965000", "103620.965000", "103621.965000", "103622.965000", "103623.965000", "103624.965000", "103625.965000", "103626.965000", "103627.965000", "103628.965000", "103629.965000", "103630.965000", "103631.965000", "103632.965000", "103633.965000", "103634.965000", "103635.965000", "103636.965000", "103637.965000", "103638.965000", "103639.965000", "103640.965000", "103641.965000", "103642.965000", "103643.965000", "103644.965000", "103645.965000", "103646.965000", "103647.965000", "103648.965000", "103649.965000", "103650.965000", "103651.965000", "103652.965000", "103653.965000", "103654.965000", "103655.965000", "103656.965000", "103657.965000", "103658.965000", "103659.965000", "103700.965000", "103701.965000", "103702.965000", "103703.965000", "103704.965000", "103705.965000", "103706.965000", "103707.965000", "103708.965000", "103709.965000", "103710.965000", "103711.965000", "103712.965000", "103713.965000", "103714.965000", "103715.965000", "103716.965000", "103717.965000", "103718.965000", "103719.965000", "103720.965000", "103721.965000", "103722.965000", "103723.965000", "103724.965000", "103725.965000", "103726.965000", "103727.965000", "103728.965000", "103729.965000", "103730.965000", "103731.965000", "103732.965000", "103733.965000", "103734.965000", "103735.965000", "103736.965000", "103737.965000", "103738.965000", "103739.965000", "103740.965000", "103741.965000", "103742.965000", "103743.965000", "103744.965000", "103745.965000", "103746.965000", "103747.965000", "103748.965000", "103749.965000", "103750.965000", "103751.965000", "103752.965000", "103753.965000", "103754.965000", "103755.965000", "103756.965000", "103757.965000", "103758.965000", "103759.965000", "103800.965000", "103801.965000", "103802.965000", "103803.965000", "103804.965000", "103805.965000", "103806.965000", "103807.965000", "103808.965000", "103809.965000", "103810.965000", "103811.965000", "103812.965000", "103813.965000", "103814.965000", "103815.965000", "103816.965000", "103817.965000", "103818.965000", "103819.965000", "103820.965000", "103821.965000", "103822.965000", "103823.965000", "103824.965000", "103825.965000", "103826.965000", "103827.965000", "103828.965000", "103829.965000", "103830.965000", "103831.965000", "103832.965000", "103833.965000", "103834.965000", "103835.965000", "103836.965000", "103837.965000", "103838.965000", "103839.965000", "103840.965000", "103841.965000", "103842.965000", "103843.965000", "103844.965000", "103845.965000", "103846.965000", "103847.965000", "103848.965000", "103849.965000", "103850.965000", "103851.965000", "103852.965000", "103853.965000", "103854.965000", "103855.965000", "103856.965000", "103857.965000", "103858.965000", "103859.965000", "103900.965000", "103901.965000", "103902.965000", "103903.965000", "103904.965000", "103905.965000", "103906.965000", "103907.965000", "103908.965000", "103909.965000", "103910.965000", "103911.965000", "103912.965000", "103913.965000", "103914.965000", "103915.965000", "103916.965000", "103917.965000", "103918.965000", "103919.965000", "103920.965000", "103921.965000", "103922.965000", "103923.965000", "103924.965000", "103925.965000", "103926.965000", "103927.965000", "103928.965000", "103929.965000", "103930.965000", "103931.965000", "103932.965000", "103933.965000", "103934.965000", "103935.965000", "103936.965000", "103937.965000", "103938.965000", "103939.965000", "103940.965000", "103941.965000", "103942.965000", "103943.965000", "103944.965000", "103945.965000", "103946.965000", "103947.965000", "103948.965000", "103949.965000", "103950.965000", "103951.965000", "103952.965000", "103953.965000", "103954.965000", "103955.965000", "103956.965000", "103957.965000", "103958.965000", "103959.965000", "104000.965000", "104001.965000", "104002.965000", "104003.965000", "104004.965000", "104005.965000", "104006.965000", "104007.965000", "104008.965000", "104009.965000", "104010.965000", "104011.965000", "104012.965000", "104013.965000", "104014.965000", "104015.965000", "104016.965000", "104017.965000", "104018.965000", "104019.965000", "104020.965000", "104021.965000", "104022.965000", "104023.965000", "104024.965000", "104025.965000", "104026.965000", "104027.965000", "104028.965000", "104029.965000", "104030.965000", "104031.965000", "104032.965000", "104033.965000", "104034.965000", "104035.965000", "104036.965000", "104037.965000", "104038.965000", "104039.965000", "104040.965000", "104041.965000", "104042.965000", "104043.965000", "104044.965000", "104045.965000", "104046.965000", "104047.965000", "104048.965000", "104049.965000", "104050.965000", "104051.965000", "104052.965000", "104053.965000", "104054.965000", "104055.965000", "104056.965000", "104057.965000", "104058.965000", "104059.965000", "104100.965000", "104101.965000", "104102.965000", "104103.965000", "104104.965000", "104105.965000", "104106.965000", "104107.965000", "104108.965000", "104109.965000", "104110.965000", "104111.965000", "104112.965000", "104113.965000", "104114.965000", "104115.965000", "104116.965000", "104117.965000", "104118.965000", "104119.965000", "104120.965000", "104121.965000", "104122.965000", "104123.965000", "104124.965000", "104125.965000", "104126.965000", "104127.965000", "104128.965000", "104129.965000", "104130.965000", "104131.965000", "104132.965000", "104133.965000", "104134.965000", "104135.965000", "104136.965000", "104137.965000", "104138.965000", "104139.965000", "104140.965000", "104141.965000", "104142.965000", "104143.965000", "104144.965000", "104145.965000", "104146.965000", "104147.965000", "104148.965000", "104149.965000", "104150.965000", "104151.965000", "104152.965000", "104153.965000", "104154.965000", "104155.965000", "104156.965000", "104157.965000", "104158.965000", "104159.965000", "104200.965000", "104201.965000", "104202.965000", "104203.965000", "104204.965000", "104205.965000", "104206.965000", "104207.965000", "104208.965000", "104209.965000", "104210.965000", "104211.965000", "104212.965000", "104213.965000", "104214.965000", "104215.965000", "104216.965000", "104217.965000", "104218.965000", "104219.965000", "104220.965000", "104221.965000", "104222.965000", "104223.965000", "104224.965000", "104225.965000", "104226.965000", "104227.965000", "104228.965000", "104229.965000", "104230.965000", "104231.965000", "104232.965000", "104233.965000", "104234.965000", "104235.965000", "104236.965000", "104237.965000", "104238.965000", "104239.965000"],
      "ContentTime": ["103524.720000", "103524.723000", "103524.726000", "103524.737000", "103524.740000", "103524.742000", "103524.745000", "103524.748000", "103524.750000", "103524.753000", "103524.755000", "103524.765000", "103524.767000", "103524.770000", "103524.772000", "103524.775000", "103524.777000", "103524.780000", "103524.782000", "103524.785000", "103524.787000", "103524.790000", "103524.792000", "103524.795000", "103524.797000", "103524.800000", "103524.806000", "103524.808000", "103524.811000", "103524.813000", "103544.689000", "103544.692000", "103544.694000", "103544.705000", "103544.708000", "103544.710000", "103544.712000", "103544.715000", "103544.717000", "103544.720000", "103544.722000", "103544.724000", "103544.727000", "103544.729000", "103544.732000", "103544.734000", "103544.737000", "103544.739000", "103544.742000", "103544.744000", "103604.690000", "103604.692000", "103604.695000", "103604.698000", "103604.700000", "103604.702000", "103604.705000", "103604.707000", "103604.710000", "103604.712000", "103604.715000", "103604.717000", "103604.720000", "103604.722000", "103604.736000", "103604.739000", "103604.741000", "103604.744000", "103604.746000", "103604.748000", "103624.689000", "103624.692000", "103624.695000", "103624.697000", "103624.699000", "103624.702000", "103624.704000", "103624.709000", "103624.711000", "103624.714000", "103624.716000", "103624.719000", "103624.721000", "103624.724000", "103624.726000", "103624.729000", "103624.731000", "103624.733000", "103624.736000", "103624.738000", "103644.688000", "103644.691000", "103644.694000", "103644.696000", "103644.698000", "103644.701000", "103644.704000", "103644.706000", "103644.708000", "103644.711000", "103644.714000", "103644.716000", "103644.728000", "103644.730000", "103644.733000", "103644.735000", "103644.738000", "103644.740000", "103644.743000", "103644.745000", "103704.688000", "103704.691000", "103704.693000", "103704.696000", "103704.698000", "103704.708000", "103704.711000", "103704.713000", "103704.716000", "103704.718000", "103704.721000", "103704.723000", "103704.726000", "103704.728000", "103704.731000", "103704.733000", "103704.735000", "103704.738000", "103704.740000", "103704.743000", "103724.689000", "103724.691000", "103724.694000", "103724.696000", "103724.699000", "103724.701000", "103724.704000", "103724.717000", "103724.719000", "103724.722000", "103724.724000", "103724.727000", "103724.729000", "103724.731000", "103724.734000", "103724.736000", "103724.739000", "103724.741000", "103724.744000", "103724.746000", "103744.689000", "103744.692000", "103744.695000", "103744.697000", "103744.700000", "103744.702000", "103744.705000", "103744.707000", "103744.716000", "103744.718000", "103744.721000", "103744.723000", "103744.726000", "103744.728000", "103744.731000", "103744.733000", "103744.736000", "103744.738000", "103744.740000", "103744.743000", "103804.689000", "103804.692000", "103804.695000", "103804.697000", "103804.700000", "103804.702000", "103804.705000", "103804.707000", "103804.710000", "103804.712000", "103804.715000", "103804.717000", "103804.720000", "103804.722000", "103804.725000", "103804.727000", "103804.730000", "103804.732000", "103804.735000", "103804.737000", "103824.689000", "103824.692000", "103824.695000", "103824.697000", "103824.700000", "103824.702000", "103824.705000", "103824.715000", "103824.717000", "103824.719000", "103824.722000", "103824.725000", "103824.727000", "103824.729000", "103824.732000", "103824.734000", "103824.737000", "103824.739000", "103824.742000", "103824.744000", "103844.689000", "103844.692000", "103844.695000", "103844.698000", "103844.700000", "103844.703000", "103844.705000", "103844.708000", "103844.710000", "103844.712000", "103844.715000", "103844.717000", "103844.720000", "103844.722000", "103844.725000", "103844.727000", "103844.730000", "103844.732000", "103844.735000", "103844.737000", "103904.688000", "103904.691000", "103904.694000", "103904.696000", "103904.699000", "103904.701000", "103904.703000", "103904.706000", "103904.708000", "103904.711000", "103904.713000", "103904.716000", "103904.718000", "103904.721000", "103904.723000", "103904.726000", "103904.733000", "103904.736000", "103904.738000", "103904.741000", "103924.688000", "103924.691000", "103924.694000", "103924.696000", "103924.699000", "103924.701000", "103924.704000", "103924.706000", "103924.708000", "103924.711000", "103924.714000", "103924.716000", "103924.719000", "103924.721000", "103924.723000", "103924.726000", "103924.728000", "103924.731000", "103924.733000", "103924.736000", "103944.688000", "103944.691000", "103944.694000", "103944.696000", "103944.699000", "103944.701000", "103944.704000", "103944.706000", "103944.709000", "103944.711000", "103944.714000", "103944.716000", "103944.719000", "103944.721000", "103944.724000", "103944.726000", "103944.729000", "103944.731000", "103944.733000", "103944.736000", "104004.689000", "104004.692000", "104004.695000", "104004.697000", "104004.699000", "104004.712000", "104004.715000", "104004.717000", "104004.720000", "104004.722000", "104004.724000", "104004.727000", "104004.729000", "104004.732000", "104004.734000", "104004.737000", "104004.739000", "104004.741000", "104004.744000", "104004.746000", "104024.689000", "104024.692000", "104024.694000", "104024.697000", "104024.699000", "104024.702000", "104024.704000", "104024.707000", "104024.709000", "104024.711000", "104024.714000", "104024.716000", "104024.719000", "104024.721000", "104024.724000", "104024.726000", "104024.729000", "104024.731000", "104024.733000", "104024.736000", "104044.690000", "104044.692000", "104044.695000", "104044.697000", "104044.700000", "104044.702000", "104044.704000", "104044.707000", "104044.709000", "104044.712000", "104044.714000", "104044.717000", "104044.719000", "104044.722000", "104044.724000", "104044.726000", "104044.729000", "104044.731000", "104044.734000", "104044.736000", "104104.689000", "104104.692000", "104104.695000", "104104.697000", "104104.699000", "104104.702000", "104104.704000", "104104.707000", "104104.709000", "104104.712000", "104104.714000", "104104.717000", "104104.719000", "104104.722000", "104104.724000", "104104.726000", "104104.737000", "104104.739000", "104104.741000", "104104.744000", "104124.688000", "104124.691000", "104124.694000", "104124.696000", "104124.699000", "104124.701000", "104124.704000", "104124.706000", "104124.708000", "104124.711000", "104124.713000", "104124.716000", "104124.718000", "104124.721000", "104124.723000", "104124.725000", "104124.728000", "104124.730000", "104124.733000", "104124.735000", "104144.689000", "104144.691000", "104144.694000", "104144.696000", "104144.699000", "104144.701000", "104144.711000", "104144.713000", "104144.716000", "104144.718000", "104144.721000", "104144.723000", "104144.725000", "104144.728000", "104144.730000", "104144.733000", "104144.735000", "104144.737000", "104144.740000", "104144.742000", "104204.689000", "104204.691000", "104204.694000", "104204.696000", "104204.698000", "104204.701000", "104204.703000", "104204.706000", "104204.708000", "104204.711000", "104204.713000", "104204.715000", "104204.718000", "104204.720000", "104204.723000", "104204.725000", "104204.728000", "104204.730000", "104204.732000", "104204.735000", "104224.689000", "104224.692000", "104224.694000", "104224.697000", "104224.699000", "104224.702000", "104224.704000", "104224.707000", "104224.709000", "104224.712000", "104224.714000", "104224.717000", "104224.719000", "104224.721000", "104224.724000", "104224.726000", "104224.729000", "104224.731000", "104224.733000", "104224.736000", "104241.625000", "104241.628000", "104241.638000", "104241.641000", "104241.644000", "104241.647000", "104241.649000", "104241.652000", "104241.655000", "104241.658000", "104241.661000", "104241.663000", "104241.665000", "104241.668000", "104241.670000", "104241.674000", "104241.677000"],
