{
  "AcquisitionMatrixPE": 106,
  "AcquisitionNumber": 1,
  "AcquisitionTime": "10:57:54.797500",
  "BandwidthPerPixelPhaseEncode": 16.846,
  "BaseResolution": 106,
  "BodyPartExamined": "BRAIN",
  "CoilCombinationMethod": "Sum of Squares",
  "ConsistencyInfo": "N4_VE11C_LATEST_20160120",
  "ConversionSoftware": "dcm2niix",
  "ConversionSoftwareVersion": "v1.0.20220720",
  "DerivedVendorReportedEchoSpacing": 0.000560012,
  "DeviceSerialNumber": "166108",
  "DwellTime": 1.8e-06,
  "EchoTime": 0.0352,
  "EchoTrainLength": 106,
  "EffectiveEchoSpacing": 0.000560012,
  "FlipAngle": 60,
  "HeudiconvVersion": "1.3.0",
  "ImageComments": "Unaliased MB4/PE3/LB",
  "ImageOrientationPatientDICOM": [1, 0, 0, 0, 0.897258, -0.441506],
  "ImageOrientationText": "Tra>Cor(-26.2)",
  "ImageType": [
    "ORIGINAL",
    "PRIMARY",
    "M",
    "MB",
    "ND",
    "MOSAIC"
],
  "ImagingFrequency": 123.244,
  "InPlanePhaseEncodingDirectionDICOM": "COL",
  "InstitutionAddress": "Bedford Way 26,London,London,GB,WC1H 0AP",
  "InstitutionName": "University College",
  "InstitutionalDepartmentName": "Department",
  "MRAcquisitionType": "2D",
  "MagneticFieldStrength": 3,
  "Manufacturer": "Siemens",
  "ManufacturersModelName": "Prisma",
  "MatrixCoilMode": "SENSE",
  "Modality": "MR",
  "MultibandAccelerationFactor": 4,
  "NonlinearGradientCorrection": false,
  "PartialFourier": 1,
  "PatientPosition": "HFS",
  "PercentPhaseFOV": 100,
  "PercentSampling": 100,
  "PhaseEncodingDirection": "j-",
  "PhaseEncodingSteps": 106,
  "PhaseResolution": 1,
  "PixelBandwidth": 2620,
  "ProcedureStepDescription": "Egor^MovieProject2",
  "ProtocolName": "func-bold_task-pRF_run-02",
  "PulseSequenceDetails": "%CustomerSeq%\\cmrr_mbep2d_bold",
  "ReceiveCoilActiveElements": "HEA;HEP",
  "ReceiveCoilName": "Head_32",
  "ReconMatrixPE": 106,
  "RepetitionTime": 1,
  "SAR": 0.0771911,
  "ScanOptions": "FS\\EXT",
  "ScanningSequence": "EP",
  "SequenceName": "epfid2d1_106",
  "SequenceVariant": "SK\\SS",
  "SeriesDescription": "func-bold_task-pRF_run-02",
  "SeriesNumber": 12,
  "ShimSetting": [-1583, 653, 7406, 249, 17, 11, -75, 4],
  "SliceThickness": 2,
  "SliceTiming": [0, 0.4075, 0.8175, 0.245, 0.6525, 0.0825, 0.49, 0.8975, 0.3275, 0.735, 0.1625, 0.5725, 0, 0.4075, 0.8175, 0.245, 0.6525, 0.0825, 0.49, 0.8975, 0.3275, 0.735, 0.1625, 0.5725, 0, 0.4075, 0.8175, 0.245, 0.6525, 0.0825, 0.49, 0.8975, 0.3275, 0.735, 0.1625, 0.5725, 0, 0.4075, 0.8175, 0.245, 0.6525, 0.0825, 0.49, 0.8975, 0.3275, 0.735, 0.1625, 0.5725],
  "SoftwareVersions": "syngo MR E11",
  "SpacingBetweenSlices": 2,
  "StationName": "AWP166108",
  "TaskName": "retinotopy",
  "TotalReadoutTime": 0.0588013,
  "TxRefAmp": 238.66,
  "WipMemBlock": "ab851404-7d7b-4fd7-8c2e-b373f10e92ac||Sequence: R016 ve11c/master r/e634e98; Dec 19 2017 11:00:25 by eja",
  "dcmmeta_affine": [
    [-2.0, 0.0, 0.0, 106.0],
    [0.0, 1.794516682624817, -0.8830116987228394, -63.31108093261719],
    [0.0, 0.8830116987228394, 1.794516682624817, -50.45883560180664],
    [0.0, 0.0, 0.0, 1.0]
],
  "dcmmeta_reorient_transform": [
    [0.0, -1.0, 0.0, 105.0],
    [1.0, 0.0, 0.0, 0.0],
    [0.0, 0.0, 1.0, 0.0],
    [0.0, 0.0, 0.0, 1.0]
],
  "dcmmeta_shape": [106, 106, 48, 356],
  "dcmmeta_slice_dim": 2,
  "dcmmeta_version": 0.6,
  "global": {
    "const": {
      "AcquisitionMatrix": [106, 0, 0, 106],
      "AngioFlag": "N",
      "BitsAllocated": 16,
      "BitsStored": 16,
      "BodyPartExamined": "BRAIN",
      "CardiacNumberOfImages": 1,
      "Columns": 742,
      "EchoNumbers": 1,
      "EchoTime": 35.2,
      "EchoTrainLength": 106,
      "FlipAngle": 60.0,
      "HighBit": 15,
      "ImageOrientationPatient": [1.0, 0.0, 0.0, 0.0, 0.8972583668213, -0.4415058585899],
      "ImagePositionPatient": [-742.0, -695.76949617579, 323.05511932863],
      "ImageType": [
        "ORIGINAL",
        "PRIMARY",
        "M",
        "MB",
        "ND",
        "MOSAIC"
],
      "ImagedNucleus": "1H",
      "ImagingFrequency": 123.243678,
      "InPlanePhaseEncodingDirection": "COL",
      "MRAcquisitionType": "2D",
      "MagneticFieldStrength": 3.0,
      "Manufacturer": "SIEMENS",
      "ManufacturerModelName": "Prisma",
      "Modality": "MR",
      "NominalInterval": 0,
      "NumberOfAverages": 1.0,
      "NumberOfPhaseEncodingSteps": 106,
      "PercentPhaseFieldOfView": 100.0,
      "PercentSampling": 100.0,
      "PerformedProcedureStepStartTime": "100135.233000",
      "PhotometricInterpretation": "MONOCHROME2",
      "PixelBandwidth": 2620.0,
      "PixelRepresentation": 0,
      "PixelSpacing": [2.0, 2.0],
      "ProtocolName": "func-bold_task-pRF_run-02",
      "RepetitionTime": 1000.0,
      "Rows": 742,
      "SAR": 0.07719111721032,
      "SamplesPerPixel": 1,
      "ScanOptions": [
        "FS",
        "EXT"
],
      "ScanningSequence": "EP",
      "SequenceName": "epfid2d1_106",
      "SequenceVariant": [
        "SK",
        "SS"
],
      "SeriesDescription": "func-bold_task-pRF_run-02",
      "SeriesNumber": 12,
      "SeriesTime": "105824.710000",
      "SliceLocation": -17.322400027669,
      "SliceThickness": 2.0,
      "SmallestImagePixelValue": 0,
      "SoftwareVersions": "syngo MR E11",
      "SpacingBetweenSlices": 1.9999999561896,
      "SpecificCharacterSet": "ISO_IR 100",
      "StudyID": "1",
      "StudyTime": "100135.184000",
      "TransmitCoilName": "Body",
      "VariableFlipAngleFlag": "N",
      "WindowCenterWidthExplanation": "Algo1",
      "dBdt": 0.0},
    "slices": {}
  },
  "time": {
    "samples": {
      "AcquisitionNumber": [1, 2, 3, 4, 5, 6, 7, 8, 9, 10, 11, 12, 13, 14, 15, 16, 17, 18, 19, 20, 21, 22, 23, 24, 25, 26, 27, 28, 29, 30, 31, 32, 33, 34, 35, 36, 37, 38, 39, 40, 41, 42, 43, 44, 45, 46, 47, 48, 49, 50, 51, 52, 53, 54, 55, 56, 57, 58, 59, 60, 61, 62, 63, 64, 65, 66, 67, 68, 69, 70, 71, 72, 73, 74, 75, 76, 77, 78, 79, 80, 81, 82, 83, 84, 85, 86, 87, 88, 89, 90, 91, 92, 93, 94, 95, 96, 97, 98, 99, 100, 101, 102, 103, 104, 105, 106, 107, 108, 109, 110, 111, 112, 113, 114, 115, 116, 117, 118, 119, 120, 121, 122, 123, 124, 125, 126, 127, 128, 129, 130, 131, 132, 133, 134, 135, 136, 137, 138, 139, 140, 141, 142, 143, 144, 145, 146, 147, 148, 149, 150, 151, 152, 153, 154, 155, 156, 157, 158, 159, 160, 161, 162, 163, 164, 165, 166, 167, 168, 169, 170, 171, 172, 173, 174, 175, 176, 177, 178, 179, 180, 181, 182, 183, 184, 185, 186, 187, 188, 189, 190, 191, 192, 193, 194, 195, 196, 197, 198, 199, 200, 201, 202, 203, 204, 205, 206, 207, 208, 209, 210, 211, 212, 213, 214, 215, 216, 217, 218, 219, 220, 221, 222, 223, 224, 225, 226, 227, 228, 229, 230, 231, 232, 233, 234, 235, 236, 237, 238, 239, 240, 241, 242, 243, 244, 245, 246, 247, 248, 249, 250, 251, 252, 253, 254, 255, 256, 257, 258, 259, 260, 261, 262, 263, 264, 265, 266, 267, 268, 269, 270, 271, 272, 273, 274, 275, 276, 277, 278, 279, 280, 281, 282, 283, 284, 285, 286, 287, 288, 289, 290, 291, 292, 293, 294, 295, 296, 297, 298, 299, 300, 301, 302, 303, 304, 305, 306, 307, 308, 309, 310, 311, 312, 313, 314, 315, 316, 317, 318, 319, 320, 321, 322, 323, 324, 325, 326, 327, 328, 329, 330, 331, 332, 333, 334, 335, 336, 337, 338, 339, 340, 341, 342, 343, 344, 345, 346, 347, 348, 349, 350, 351, 352, 353, 354, 355, 356],
      "AcquisitionTime": ["105754.797500", "105755.797500", "105756.797500", "105757.797500", "105758.797500", "105759.797500", "105800.797500", "105801.797500", "105802.797500", "105803.797500", "105804.797500", "105805.797500", "105806.797500", "105807.797500", "105808.797500", "105809.797500", "105810.797500", "105811.797500", "105812.797500", "105813.797500", "105814.797500", "105815.797500", "105816.797500", "105817.797500", "105818.797500", "105819.797500", "105820.797500", "105821.797500", "105822.797500", "105823.797500", "105824.797500", "105825.797500", "105826.797500", "105827.797500", "105828.797500", "105829.797500", "105830.797500", "105831.797500", "105832.797500", "105833.797500", "105834.797500", "105835.797500", "105836.797500", "105837.797500", "105838.797500", "105839.797500", "105840.797500", "105841.797500", "105842.797500", "105843.797500", "105844.797500", "105845.797500", "105846.797500", "105847.797500", "105848.797500", "105849.797500", "105850.797500", "105851.797500", "105852.797500", "105853.797500", "105854.797500", "105855.797500", "105856.797500", "105857.797500", "105858.797500", "105859.797500", "105900.797500", "105901.797500", "105902.797500", "105903.797500", "105904.797500", "105905.797500", "105906.797500", "105907.797500", "105908.797500", "105909.797500", "105910.797500", "105911.797500", "105912.797500", "105913.797500", "105914.797500", "105915.797500", "105916.797500", "105917.797500", "105918.797500", "105919.797500", "105920.797500", "105921.797500", "105922.797500", "105923.797500", "105924.797500", "105925.797500", "105926.797500", "105927.797500", "105928.797500", "105929.797500", "105930.797500", "105931.797500", "105932.797500", "105933.797500", "105934.797500", "105935.797500", "105936.797500", "105937.797500", "105938.797500", "105939.797500", "105940.797500", "105941.797500", "105942.797500", "105943.797500", "105944.797500", "105945.797500", "105946.797500", "105947.797500", "105948.797500", "105949.797500", "105950.797500", "105951.797500", "105952.797500", "105953.797500", "105954.797500", "105955.797500", "105956.797500", "105957.797500", "105958.797500", "105959.797500", "110000.797500", "110001.797500", "110002.797500", "110003.797500", "110004.797500", "110005.797500", "110006.797500", "110007.797500", "110008.797500", "110009.797500", "110010.797500", "110011.797500", "110012.797500", "110013.797500", "110014.797500", "110015.797500", "110016.797500", "110017.797500", "110018.797500", "110019.797500", "110020.797500", "110021.797500", "110022.797500", "110023.797500", "110024.797500", "110025.797500", "110026.797500", "110027.797500", "110028.797500", "110029.797500", "110030.797500", "110031.797500", "110032.797500", "110033.797500", "110034.797500", "110035.797500", "110036.797500", "110037.797500", "110038.797500", "110039.797500", "110040.797500", "110041.797500", "110042.797500", "110043.797500", "110044.797500", "110045.797500", "110046.797500", "110047.797500", "110048.797500", "110049.797500", "110050.797500", "110051.797500", "110052.797500", "110053.797500", "110054.797500", "110055.797500", "110056.797500", "110057.797500", "110058.797500", "110059.797500", "110100.797500", "110101.797500", "110102.797500", "110103.797500", "110104.797500", "110105.797500", "110106.797500", "110107.797500", "110108.797500", "110109.797500", "110110.797500", "110111.797500", "110112.797500", "110113.797500", "110114.797500", "110115.797500", "110116.797500", "110117.797500", "110118.797500", "110119.797500", "110120.797500", "110121.797500", "110122.797500", "110123.797500", "110124.797500", "110125.797500", "110126.797500", "110127.797500", "110128.797500", "110129.797500", "110130.797500", "110131.797500", "110132.797500", "110133.797500", "110134.797500", "110135.797500", "110136.797500", "110137.797500", "110138.797500", "110139.797500", "110140.797500", "110141.797500", "110142.797500", "110143.797500", "110144.797500", "110145.797500", "110146.797500", "110147.797500", "110148.797500", "110149.797500", "110150.797500", "110151.797500", "110152.797500", "110153.797500", "110154.797500", "110155.797500", "110156.797500", "110157.797500", "110158.797500", "110159.797500", "110200.797500", "110201.797500", "110202.797500", "110203.797500", "110204.797500", "110205.797500", "110206.797500", "110207.797500", "110208.797500", "110209.797500", "110210.797500", "110211.797500", "110212.797500", "110213.797500", "110214.797500", "110215.797500", "110216.797500", "110217.797500", "110218.797500", "110219.797500", "110220.797500", "110221.797500", "110222.797500", "110223.797500", "110224.797500", "110225.797500", "110226.797500", "110227.797500", "110228.797500", "110229.797500", "110230.797500", "110231.797500", "110232.797500", "110233.797500", "110234.797500", "110235.797500", "110236.797500", "110237.797500", "110238.797500", "110239.797500", "110240.797500", "110241.797500", "110242.797500", "110243.797500", "110244.797500", "110245.797500", "110246.797500", "110247.797500", "110248.797500", "110249.797500", "110250.797500", "110251.797500", "110252.797500", "110253.797500", "110254.797500", "110255.797500", "110256.797500", "110257.797500", "110258.797500", "110259.797500", "110300.797500", "110301.797500", "110302.797500", "110303.797500", "110304.797500", "110305.797500", "110306.797500", "110307.797500", "110308.797500", "110309.797500", "110310.797500", "110311.797500", "110312.797500", "110313.797500", "110314.797500", "110315.797500", "110316.797500", "110317.797500", "110318.797500", "110319.797500", "110320.797500", "110321.797500", "110322.797500", "110323.797500", "110324.797500", "110325.797500", "110326.797500", "110327.797500", "110328.797500", "110329.797500", "110330.797500", "110331.797500", "110332.797500", "110333.797500", "110334.797500", "110335.797500", "110336.797500", "110337.797500", "110338.797500", "110339.797500", "110340.797500", "110341.797500", "110342.797500", "110343.797500", "110344.797500", "110345.797500", "110346.797500", "110347.797500", "110348.797500", "110349.797500"],
      "ContentTime": ["105824.712000", "105824.715000", "105824.726000", "105824.734000", "105824.737000", "105824.739000", "105824.742000", "105824.745000", "105824.747000", "105824.749000", "105824.752000", "105824.755000", "105824.757000", "105824.760000", "105824.770000", "105824.773000", "105824.775000", "105824.778000", "105824.780000", "105824.783000", "105824.785000", "105824.795000", "105824.797000", "105824.800000", "105824.802000", "105824.805000", "105824.807000", "105824.810000", "105824.812000", "105844.689000", "105844.692000", "105844.695000", "105844.697000", "105844.699000", "105844.702000", "105844.704000", "105844.707000", "105844.714000", "105844.717000", "105844.719000", "105844.722000", "105844.724000", "105844.727000", "105844.729000", "105844.732000", "105844.734000", "105844.737000", "105844.739000", "105844.741000", "105904.689000", "105904.692000", "105904.695000", "105904.697000", "105904.700000", "105904.702000", "105904.705000", "105904.707000", "105904.710000", "105904.712000", "105904.715000", "105904.717000", "105904.720000", "105904.722000", "105904.725000", "105904.727000", "105904.736000", "105904.738000", "105904.741000", "105904.743000", "105924.689000", "105924.692000", "105924.694000", "105924.697000", "105924.699000", "105924.702000", "105924.704000", "105924.707000", "105924.709000", "105924.712000", "105924.714000", "105924.717000", "105924.719000", "105924.721000", "105924.724000", "105924.726000", "105924.729000", "105924.731000", "105924.734000", "105924.740000", "105944.689000", "105944.692000", "105944.695000", "105944.698000", "105944.700000", "105944.702000", "105944.705000", "105944.707000", "105944.710000", "105944.712000", "105944.715000", "105944.717000", "105944.720000", "105944.722000", "105944.725000", "105944.727000", "105944.738000", "105944.740000", "105944.743000", "105944.745000", "110004.689000", "110004.692000", "110004.695000", "110004.697000", "110004.700000", "110004.702000", "110004.705000", "110004.707000", "110004.710000", "110004.712000", "110004.715000", "110004.717000", "110004.720000", "110004.722000", "110004.725000", "110004.727000", "110004.730000", "110004.732000", "110004.735000", "110004.737000", "110024.688000", "110024.691000", "110024.693000", "110024.696000", "110024.698000", "110024.701000", "110024.703000", "110024.706000", "110024.708000", "110024.711000", "110024.713000", "110024.716000", "110024.718000", "110024.721000", "110024.723000", "110024.725000", "110024.728000", "110024.730000", "110024.733000", "110024.735000", "110044.688000", "110044.691000", "110044.693000", "110044.696000", "110044.699000", "110044.701000", "110044.704000", "110044.706000", "110044.709000", "110044.711000", "110044.714000", "110044.716000", "110044.718000", "110044.721000", "110044.723000", "110044.726000", "110044.728000", "110044.730000", "110044.733000", "110044.735000", "110104.689000", "110104.692000", "110104.695000", "110104.697000", "110104.699000", "110104.702000", "110104.705000", "110104.707000", "110104.710000", "110104.712000", "110104.714000", "110104.717000", "110104.719000", "110104.729000", "110104.732000", "110104.734000", "110104.737000", "110104.739000", "110104.741000", "110104.744000", "110124.689000", "110124.692000", "110124.694000", "110124.697000", "110124.699000", "110124.702000", "110124.704000", "110124.707000", "110124.709000", "110124.712000", "110124.714000", "110124.717000", "110124.719000", "110124.731000", "110124.734000", "110124.736000", "110124.739000", "110124.741000", "110124.744000", "110124.746000", "110144.690000", "110144.692000", "110144.695000", "110144.698000", "110144.700000", "110144.702000", "110144.705000", "110144.708000", "110144.710000", "110144.713000", "110144.715000", "110144.718000", "110144.720000", "110144.723000", "110144.725000", "110144.728000", "110144.730000", "110144.733000", "110144.735000", "110144.738000", "110204.689000", "110204.692000", "110204.695000", "110204.697000", "110204.700000", "110204.702000", "110204.705000", "110204.707000", "110204.710000", "110204.712000", "110204.715000", "110204.717000", "110204.720000", "110204.722000", "110204.724000", "110204.727000", "110204.729000", "110204.741000", "110204.743000", "110204.746000", "110224.688000", "110224.691000", "110224.696000", "110224.699000", "110224.701000", "110224.704000", "110224.706000", "110224.709000", "110224.711000", "110224.714000", "110224.717000", "110224.719000", "110224.722000", "110224.724000", "110224.727000", "110224.729000", "110224.732000", "110224.734000", "110224.737000", "110224.739000", "110244.688000", "110244.691000", "110244.694000", "110244.696000", "110244.698000", "110244.701000", "110244.703000", "110244.706000", "110244.708000", "110244.711000", "110244.713000", "110244.716000", "110244.718000", "110244.721000", "110244.723000", "110244.725000", "110244.728000", "110244.730000", "110244.733000", "110244.735000", "110304.689000", "110304.691000", "110304.694000", "110304.700000", "110304.703000", "110304.705000", "110304.708000", "110304.710000", "110304.713000", "110304.715000", "110304.718000", "110304.720000", "110304.723000", "110304.725000", "110304.728000", "110304.730000", "110304.733000", "110304.735000", "110304.738000", "110304.740000", "110324.689000", "110324.692000", "110324.695000", "110324.697000", "110324.699000", "110324.702000", "110324.704000", "110324.707000", "110324.709000", "110324.712000", "110324.714000", "110324.717000", "110324.719000", "110324.722000", "110324.724000", "110324.727000", "110324.729000", "110324.732000", "110324.734000", "110324.736000", "110344.689000", "110344.692000", "110344.695000", "110344.698000", "110344.700000", "110344.703000", "110344.705000", "110344.707000", "110344.710000", "110344.712000", "110344.715000", "110344.717000", "110344.720000", "110344.722000", "110344.725000", "110344.727000", "110344.730000", "110344.732000", "110344.734000", "110344.737000", "110351.632000", "110351.635000", "110351.638000", "110351.640000", "110351.643000", "110351.645000", "110351.648000"],
      "InstanceCreationTime": ["105824.712000", "105824.715000", "105824.726000", "105824.734000", "105824.737000", "105824.739000", "105824.742000", "105824.745000", "105824.747000", "105824.749000", "105824.752000", "105824.755000", "105824.757000", "105824.760000", "105824.770000", "105824.773000", "105824.775000", "105824.778000", "105824.780000", "105824.783000", "105824.785000", "105824.795000", "105824.797000", "105824.800000", "105824.802000", "105824.805000", "105824.807000", "105824.810000", "105824.812000", "105844.689000", "105844.692000", "105844.695000", "105844.697000", "105844.699000", "105844.702000", "105844.704000", "105844.707000", "105844.714000", "105844.717000", "105844.719000", "105844.722000", "105844.724000", "105844.727000", "105844.729000", "105844.732000", "105844.734000", "105844.737000", "105844.739000", "105844.741000", "105904.689000", "105904.692000", "105904.695000", "105904.697000", "105904.700000", "105904.702000", "105904.705000", "105904.707000", "105904.710000", "105904.712000", "105904.715000", "105904.717000", "105904.720000", "105904.722000", "105904.725000", "105904.727000", "105904.736000", "105904.738000", "105904.741000", "105904.743000", "105924.689000", "105924.692000", "105924.694000", "105924.697000", "105924.699000", "105924.702000", "105924.704000", "105924.707000", "105924.709000", "105924.712000", "105924.714000", "105924.717000", "105924.719000", "105924.721000", "105924.724000", "105924.726000", "105924.729000", "105924.731000", "105924.734000", "105924.740000", "105944.689000", "105944.692000", "105944.695000", "105944.698000", "105944.700000", "105944.702000", "105944.705000", "105944.707000", "105944.710000", "105944.712000", "105944.715000", "105944.717000", "105944.720000", "105944.722000", "105944.725000", "105944.727000", "105944.738000", "105944.740000", "105944.743000", "105944.745000", "110004.689000", "110004.692000", "110004.695000", "110004.697000", "110004.700000", "110004.702000", "110004.705000", "110004.707000", "110004.710000", "110004.712000", "110004.715000", "110004.717000", "110004.720000", "110004.722000", "110004.725000", "110004.727000", "110004.730000", "110004.732000", "110004.735000", "110004.737000", "110024.688000", "110024.691000", "110024.693000", "110024.696000", "110024.698000", "110024.701000", "110024.703000", "110024.706000", "110024.708000", "110024.711000", "110024.713000", "110024.716000", "110024.718000", "110024.721000", "110024.723000", "110024.725000", "110024.728000", "110024.730000", "110024.733000", "110024.735000", "110044.688000", "110044.691000", "110044.693000", "110044.696000", "110044.699000", "110044.701000", "110044.704000", "110044.706000", "110044.709000", "110044.711000", "110044.714000", "110044.716000", "110044.718000", "110044.721000", "110044.723000", "110044.726000", "110044.728000", "110044.730000", "110044.733000", "110044.735000", "110104.689000", "110104.692000", "110104.695000", "110104.697000", "110104.699000", "110104.702000", "110104.705000", "110104.707000", "110104.710000", "110104.712000", "110104.714000", "110104.717000", "110104.719000", "110104.729000", "110104.732000", "110104.734000", "110104.737000", "110104.739000", "110104.741000", "110104.744000", "110124.689000", "110124.692000", "110124.694000", "110124.697000", "110124.699000", "110124.702000", "110124.704000", "110124.707000", "110124.709000", "110124.712000", "110124.714000", "110124.717000", "110124.719000", "110124.731000", "110124.734000", "110124.736000", "110124.739000", "110124.741000", "110124.744000", "110124.746000", "110144.690000", "110144.692000", "110144.695000", "110144.698000", "110144.700000", "110144.702000", "110144.705000", "110144.708000", "110144.710000", "110144.713000", "110144.715000", "110144.718000", "110144.720000", "110144.723000", "110144.725000", "110144.728000", "110144.730000", "110144.733000", "110144.735000", "110144.738000", "110204.689000", "110204.692000", "110204.695000", "110204.697000", "110204.700000", "110204.702000", "110204.705000", "110204.707000", "110204.710000", "110204.712000", "110204.715000", "110204.717000", "110204.720000", "110204.722000", "110204.724000", "110204.727000", "110204.729000", "110204.741000", "110204.743000", "110204.746000", "110224.688000", "110224.691000", "110224.696000", "110224.699000", "110224.701000", "110224.704000", "110224.706000", "110224.709000", "110224.711000", "110224.714000", "110224.717000", "110224.719000", "110224.722000", "110224.724000", "110224.727000", "110224.729000", "110224.732000", "110224.734000", "110224.737000", "110224.739000", "110244.688000", "110244.691000", "110244.694000", "110244.696000", "110244.698000", "110244.701000", "110244.703000", "110244.706000", "110244.708000", "110244.711000", "110244.713000", "110244.716000", "110244.718000", "110244.721000", "110244.723000", "110244.725000", "110244.728000", "110244.730000", "110244.733000", "110244.735000", "110304.689000", "110304.691000", "110304.694000", "110304.700000", "110304.703000", "110304.705000", "110304.708000", "110304.710000", "110304.713000", "110304.715000", "110304.718000", "110304.720000", "110304.723000", "110304.725000", "110304.728000", "110304.730000", "110304.733000", "110304.735000", "110304.738000", "110304.740000", "110324.689000", "110324.692000", "110324.695000", "110324.697000", "110324.699000", "110324.702000", "110324.704000", "110324.707000", "110324.709000", "110324.712000", "110324.714000", "110324.717000", "110324.719000", "110324.722000", "110324.724000", "110324.727000", "110324.729000", "110324.732000", "110324.734000", "110324.736000", "110344.689000", "110344.692000", "110344.695000", "110344.698000", "110344.700000", "110344.703000", "110344.705000", "110344.707000", "110344.710000", "110344.712000", "110344.715000", "110344.717000", "110344.720000", "110344.722000", "110344.725000", "110344.727000", "110344.730000", "110344.732000", "110344.734000", "110344.737000", "110351.632000", "110351.635000", "110351.638000", "110351.640000", "110351.643000", "110351.645000", "110351.648000"],
      "InstanceNumber": [1, 2, 3, 4, 5, 6, 7, 8, 9, 10, 11, 12, 13, 14, 15, 16, 17, 18, 19, 20, 21, 22, 23, 24, 25, 26, 27, 28, 29, 30, 31, 32, 33, 34, 35, 36, 37, 38, 39, 40, 41, 42, 43, 44, 45, 46, 47, 48, 49, 50, 51, 52, 53, 54, 55, 56, 57, 58, 59, 60, 61, 62, 63, 64, 65, 66, 67, 68, 69, 70, 71, 72, 73, 74, 75, 76, 77, 78, 79, 80, 81, 82, 83, 84, 85, 86, 87, 88, 89, 90, 91, 92, 93, 94, 95, 96, 97, 98, 99, 100, 101, 102, 103, 104, 105, 106, 107, 108, 109, 110, 111, 112, 113, 114, 115, 116, 117, 118, 119, 120, 121, 122, 123, 124, 125, 126, 127, 128, 129, 130, 131, 132, 133, 134, 135, 136, 137, 138, 139, 140, 141, 142, 143, 144, 145, 146, 147, 148, 149, 150, 151, 152, 153, 154, 155, 156, 157, 158, 159, 160, 161, 162, 163, 164, 165, 166, 167, 168, 169, 170, 171, 172, 173, 174, 175, 176, 177, 178, 179, 180, 181, 182, 183, 184, 185, 186, 187, 188, 189, 190, 191, 192, 193, 194, 195, 196, 197, 198, 199, 200, 201, 202, 203, 204, 205, 206, 207, 208, 209, 210, 211, 212, 213, 214, 215, 216, 217, 218, 219, 220, 221, 222, 223, 224, 225, 226, 227, 228, 229, 230, 231, 232, 233, 234, 235, 236, 237, 238, 239, 240, 241, 242, 243, 244, 245, 246, 247, 248, 249, 250, 251, 252, 253, 254, 255, 256, 257, 258, 259, 260, 261, 262, 263, 264, 265, 266, 267, 268, 269, 270, 271, 272, 273, 274, 275, 276, 277, 278, 279, 280, 281, 282, 283, 284, 285, 286, 287, 288, 289, 290, 291, 292, 293, 294, 295, 296, 297, 298, 299, 300, 301, 302, 303, 304, 305, 306, 307, 308, 309, 310, 311, 312, 313, 314, 315, 316, 317, 318, 319, 320, 321, 322, 323, 324, 325, 326, 327, 328, 329, 330, 331, 332, 333, 334, 335, 336, 337, 338, 339, 340, 341, 342, 343, 344, 345, 346, 347, 348, 349, 350, 351, 352, 353, 354, 355, 356],
      "LargestImagePixelValue": [11511, 11262, 11163, 11137, 10964, 10936, 11022, 10850, 10918, 10976, 10865, 10853, 10788, 10801, 10988, 10893, 10797, 10976, 10967, 10913, 10966, 10882, 10938, 10935, 10822, 10908, 10838, 10888, 10906, 10998, 10914, 11022, 10933, 10988, 10927, 10986, 10975, 10929, 11091, 11024, 11031, 11012, 11034, 10880, 10974, 10942, 10925, 10950, 10888, 10982, 10941, 11001, 10893, 11015, 10877, 10936, 10895, 11010, 11119, 11136, 11048, 11097, 11048, 11118, 11043, 11131, 11274, 11206, 11136, 11244, 11186, 11175, 11173, 11137, 10963, 11145, 11043, 11143, 10975, 10999, 10991, 10997, 11006, 10990, 11010, 10973, 11065, 10968, 11048, 11011, 10993, 10907, 10888, 10912, 10963, 10926, 10917, 10904, 10992, 11033, 11051, 10987, 11030, 10958, 11025, 11020, 11004, 11017, 11020, 11110, 10965, 11053, 10999, 11023, 10953, 10947, 10938, 10977, 10998, 11038, 10904, 11031, 11211, 10996, 11060, 11058, 11124, 10998, 11004, 10867, 11033, 10946, 10986, 11003, 11072, 11091, 11103, 11063, 10971, 11053, 11090, 10999, 10954, 10992, 11052, 10974, 10870, 10894, 10937, 10956, 10941, 11077, 10976, 10964, 11042, 10934, 10967, 11022, 10885, 10869, 10945, 10954, 10947, 10896, 10820, 10890, 11005, 11072, 11001, 10917, 11082, 11030, 11016, 11061, 10911, 11059, 10926, 11027, 10987, 11051, 10969, 11017, 11045, 10927, 11065, 10977, 10983, 10975, 10918, 10889, 10998, 11074, 10994, 11081, 10984, 10885, 10863, 10836, 10744, 10808, 10777, 10775, 10726, 10913, 10806, 10888, 10712, 10629, 10735, 10748, 10651, 10633, 10601, 10683, 10674, 10517, 10566, 10848, 10704, 10694, 10727, 10762, 10757, 10692, 10746, 10835, 10842, 10918, 10865, 10800, 10853, 10873, 10827, 10876, 10933, 11007, 10848, 10924, 10910, 10769, 10809, 10891, 10858, 10825, 10797, 10858, 11033, 10919, 10829, 10960, 10898, 11040, 10885, 10808, 10850, 10950, 10836, 10787, 10837, 10790, 10817, 10787, 11007, 11020, 10881, 10853, 10929, 10902, 10908, 10880, 10848, 10810, 10985, 10821, 10888, 10861, 10810, 10883, 10883, 10988, 10918, 10842, 10909, 10794, 10952, 10781, 10702, 10666, 10683, 10659, 10661, 10798, 10763, 10741, 10741, 10691, 10731, 10683, 10778, 10696, 10663, 10566, 10609, 10702, 10652, 10759, 10573, 10784, 10736, 10738, 10625, 10629, 10692, 10612, 10633, 10695, 10589, 10670, 10634, 10627, 10556, 10491, 10484, 10550, 10502, 10546, 10520, 10445, 10533, 10536, 10613, 10440, 10347, 10462, 10470, 10543, 10470, 10504, 10518, 10558, 10584, 10581, 10419, 10540, 10603, 10621, 10566, 10633, 10469, 10393, 10487, 10442, 10737, 10631, 10515, 10645],
