{
  "AcquisitionMatrixPE": 106,
  "AcquisitionNumber": 1,
  "AcquisitionTime": "11:04:38.732500",
  "BandwidthPerPixelPhaseEncode": 16.846,
  "BaseResolution": 106,
  "BodyPartExamined": "BRAIN",
  "CoilCombinationMethod": "Sum of Squares",
  "ConsistencyInfo": "N4_VE11C_LATEST_20160120",
  "ConversionSoftware": "dcm2niix",
  "ConversionSoftwareVersion": "v1.0.20220720",
  "DerivedVendorReportedEchoSpacing": 0.000560012,
  "DeviceSerialNumber": "166108",
  "DwellTime": 1.8e-06,
  "EchoTime": 0.0352,
  "EchoTrainLength": 106,
  "EffectiveEchoSpacing": 0.000560012,
  "FlipAngle": 60,
  "HeudiconvVersion": "1.3.0",
  "ImageComments": "Unaliased MB4/PE3/LB",
  "ImageOrientationPatientDICOM": [1, 0, 0, 0, 0.897258, -0.441506],
  "ImageOrientationText": "Tra>Cor(-26.2)",
  "ImageType": [
    "ORIGINAL",
    "PRIMARY",
    "M",
    "MB",
    "ND",
    "MOSAIC"
],
  "ImagingFrequency": 123.244,
  "InPlanePhaseEncodingDirectionDICOM": "COL",
  "InstitutionAddress": "Bedford Way 26,London,London,GB,WC1H 0AP",
  "InstitutionName": "University College",
  "InstitutionalDepartmentName": "Department",
  "MRAcquisitionType": "2D",
  "MagneticFieldStrength": 3,
  "Manufacturer": "Siemens",
  "ManufacturersModelName": "Prisma",
  "MatrixCoilMode": "SENSE",
  "Modality": "MR",
  "MultibandAccelerationFactor": 4,
  "NonlinearGradientCorrection": false,
  "PartialFourier": 1,
  "PatientPosition": "HFS",
  "PercentPhaseFOV": 100,
  "PercentSampling": 100,
  "PhaseEncodingDirection": "j-",
  "PhaseEncodingSteps": 106,
  "PhaseResolution": 1,
  "PixelBandwidth": 2620,
  "ProcedureStepDescription": "Egor^MovieProject2",
  "ProtocolName": "func-bold_task-pRF_run-03",
  "PulseSequenceDetails": "%CustomerSeq%\\cmrr_mbep2d_bold",
  "ReceiveCoilActiveElements": "HEA;HEP",
  "ReceiveCoilName": "Head_32",
  "ReconMatrixPE": 106,
  "RepetitionTime": 1,
  "SAR": 0.0771911,
  "ScanOptions": "FS\\EXT",
  "ScanningSequence": "EP",
  "SequenceName": "epfid2d1_106",
  "SequenceVariant": "SK\\SS",
  "SeriesDescription": "func-bold_task-pRF_run-03",
  "SeriesNumber": 14,
  "ShimSetting": [-1583, 653, 7406, 249, 17, 11, -75, 4],
  "SliceThickness": 2,
  "SliceTiming": [0, 0.4075, 0.815, 0.245, 0.6525, 0.08, 0.49, 0.8975, 0.325, 0.735, 0.1625, 0.57, 0, 0.4075, 0.815, 0.245, 0.6525, 0.08, 0.49, 0.8975, 0.325, 0.735, 0.1625, 0.57, 0, 0.4075, 0.815, 0.245, 0.6525, 0.08, 0.49, 0.8975, 0.325, 0.735, 0.1625, 0.57, 0, 0.4075, 0.815, 0.245, 0.6525, 0.08, 0.49, 0.8975, 0.325, 0.735, 0.1625, 0.57],
  "SoftwareVersions": "syngo MR E11",
  "SpacingBetweenSlices": 2,
  "StationName": "AWP166108",
  "TaskName": "retinotopy",
  "TotalReadoutTime": 0.0588013,
  "TxRefAmp": 238.66,
  "WipMemBlock": "0b51e7de-5944-4ef0-865c-6b6ba49e7f8b||Sequence: R016 ve11c/master r/e634e98; Dec 19 2017 11:00:25 by eja",
  "dcmmeta_affine": [
    [-2.0, 0.0, 0.0, 106.0],
    [0.0, 1.794516682624817, -0.8830116987228394, -63.31108093261719],
    [0.0, 0.8830116987228394, 1.794516682624817, -50.45883560180664],
    [0.0, 0.0, 0.0, 1.0]
],
  "dcmmeta_reorient_transform": [
    [0.0, -1.0, 0.0, 105.0],
    [1.0, 0.0, 0.0, 0.0],
    [0.0, 0.0, 1.0, 0.0],
    [0.0, 0.0, 0.0, 1.0]
],
  "dcmmeta_shape": [106, 106, 48, 356],
  "dcmmeta_slice_dim": 2,
  "dcmmeta_version": 0.6,
  "global": {
    "const": {
      "AcquisitionMatrix": [106, 0, 0, 106],
      "AngioFlag": "N",
      "BitsAllocated": 16,
      "BitsStored": 16,
      "BodyPartExamined": "BRAIN",
      "CardiacNumberOfImages": 1,
      "Columns": 742,
      "EchoNumbers": 1,
      "EchoTime": 35.2,
      "EchoTrainLength": 106,
      "FlipAngle": 60.0,
      "HighBit": 15,
      "ImageOrientationPatient": [1.0, 0.0, 0.0, 0.0, 0.8972583668213, -0.4415058585899],
      "ImagePositionPatient": [-742.0, -695.76949617579, 323.05511932863],
      "ImageType": [
        "ORIGINAL",
        "PRIMARY",
        "M",
        "MB",
        "ND",
        "MOSAIC"
],
      "ImagedNucleus": "1H",
      "ImagingFrequency": 123.243683,
      "InPlanePhaseEncodingDirection": "COL",
      "MRAcquisitionType": "2D",
      "MagneticFieldStrength": 3.0,
      "Manufacturer": "SIEMENS",
      "ManufacturerModelName": "Prisma",
      "Modality": "MR",
      "NominalInterval": 0,
      "NumberOfAverages": 1.0,
      "NumberOfPhaseEncodingSteps": 106,
      "PercentPhaseFieldOfView": 100.0,
      "PercentSampling": 100.0,
      "PerformedProcedureStepStartTime": "100135.233000",
      "PhotometricInterpretation": "MONOCHROME2",
      "PixelBandwidth": 2620.0,
      "PixelRepresentation": 0,
      "PixelSpacing": [2.0, 2.0],
      "ProtocolName": "func-bold_task-pRF_run-03",
      "RepetitionTime": 1000.0,
      "Rows": 742,
      "SAR": 0.07719111721032,
      "SamplesPerPixel": 1,
      "ScanOptions": [
        "FS",
        "EXT"
],
      "ScanningSequence": "EP",
      "SequenceName": "epfid2d1_106",
      "SequenceVariant": [
        "SK",
        "SS"
],
      "SeriesDescription": "func-bold_task-pRF_run-03",
      "SeriesNumber": 14,
      "SeriesTime": "110504.786000",
      "SliceLocation": -17.322400027669,
      "SliceThickness": 2.0,
      "SmallestImagePixelValue": 0,
      "SoftwareVersions": "syngo MR E11",
      "SpacingBetweenSlices": 1.9999999561896,
      "SpecificCharacterSet": "ISO_IR 100",
      "StudyID": "1",
      "StudyTime": "100135.184000",
      "TransmitCoilName": "Body",
      "VariableFlipAngleFlag": "N",
      "WindowCenterWidthExplanation": "Algo1",
      "dBdt": 0.0},
    "slices": {}
  },
  "time": {
    "samples": {
      "AcquisitionNumber": [1, 2, 3, 4, 5, 6, 7, 8, 9, 10, 11, 12, 13, 14, 15, 16, 17, 18, 19, 20, 21, 22, 23, 24, 25, 26, 27, 28, 29, 30, 31, 32, 33, 34, 35, 36, 37, 38, 39, 40, 41, 42, 43, 44, 45, 46, 47, 48, 49, 50, 51, 52, 53, 54, 55, 56, 57, 58, 59, 60, 61, 62, 63, 64, 65, 66, 67, 68, 69, 70, 71, 72, 73, 74, 75, 76, 77, 78, 79, 80, 81, 82, 83, 84, 85, 86, 87, 88, 89, 90, 91, 92, 93, 94, 95, 96, 97, 98, 99, 100, 101, 102, 103, 104, 105, 106, 107, 108, 109, 110, 111, 112, 113, 114, 115, 116, 117, 118, 119, 120, 121, 122, 123, 124, 125, 126, 127, 128, 129, 130, 131, 132, 133, 134, 135, 136, 137, 138, 139, 140, 141, 142, 143, 144, 145, 146, 147, 148, 149, 150, 151, 152, 153, 154, 155, 156, 157, 158, 159, 160, 161, 162, 163, 164, 165, 166, 167, 168, 169, 170, 171, 172, 173, 174, 175, 176, 177, 178, 179, 180, 181, 182, 183, 184, 185, 186, 187, 188, 189, 190, 191, 192, 193, 194, 195, 196, 197, 198, 199, 200, 201, 202, 203, 204, 205, 206, 207, 208, 209, 210, 211, 212, 213, 214, 215, 216, 217, 218, 219, 220, 221, 222, 223, 224, 225, 226, 227, 228, 229, 230, 231, 232, 233, 234, 235, 236, 237, 238, 239, 240, 241, 242, 243, 244, 245, 246, 247, 248, 249, 250, 251, 252, 253, 254, 255, 256, 257, 258, 259, 260, 261, 262, 263, 264, 265, 266, 267, 268, 269, 270, 271, 272, 273, 274, 275, 276, 277, 278, 279, 280, 281, 282, 283, 284, 285, 286, 287, 288, 289, 290, 291, 292, 293, 294, 295, 296, 297, 298, 299, 300, 301, 302, 303, 304, 305, 306, 307, 308, 309, 310, 311, 312, 313, 314, 315, 316, 317, 318, 319, 320, 321, 322, 323, 324, 325, 326, 327, 328, 329, 330, 331, 332, 333, 334, 335, 336, 337, 338, 339, 340, 341, 342, 343, 344, 345, 346, 347, 348, 349, 350, 351, 352, 353, 354, 355, 356],
      "AcquisitionTime": ["110438.732500", "110439.732500", "110440.732500", "110441.732500", "110442.732500", "110443.732500", "110444.732500", "110445.732500", "110446.732500", "110447.732500", "110448.732500", "110449.732500", "110450.732500", "110451.732500", "110452.732500", "110453.732500", "110454.732500", "110455.732500", "110456.732500", "110457.732500", "110458.732500", "110459.732500", "110500.732500", "110501.732500", "110502.732500", "110503.732500", "110504.732500", "110505.732500", "110506.732500", "110507.732500", "110508.732500", "110509.732500", "110510.732500", "110511.732500", "110512.732500", "110513.732500", "110514.732500", "110515.732500", "110516.732500", "110517.732500", "110518.732500", "110519.732500", "110520.732500", "110521.732500", "110522.732500", "110523.732500", "110524.732500", "110525.732500", "110526.732500", "110527.732500", "110528.732500", "110529.732500", "110530.732500", "110531.732500", "110532.732500", "110533.732500", "110534.732500", "110535.732500", "110536.732500", "110537.732500", "110538.732500", "110539.732500", "110540.732500", "110541.732500", "110542.732500", "110543.732500", "110544.732500", "110545.732500", "110546.732500", "110547.732500", "110548.732500", "110549.732500", "110550.732500", "110551.732500", "110552.732500", "110553.732500", "110554.732500", "110555.732500", "110556.732500", "110557.732500", "110558.732500", "110559.732500", "110600.732500", "110601.732500", "110602.732500", "110603.732500", "110604.732500", "110605.732500", "110606.732500", "110607.732500", "110608.732500", "110609.732500", "110610.732500", "110611.732500", "110612.732500", "110613.732500", "110614.732500", "110615.732500", "110616.732500", "110617.732500", "110618.732500", "110619.732500", "110620.732500", "110621.732500", "110622.732500", "110623.732500", "110624.732500", "110625.732500", "110626.732500", "110627.732500", "110628.732500", "110629.732500", "110630.732500", "110631.732500", "110632.732500", "110633.732500", "110634.732500", "110635.732500", "110636.732500", "110637.732500", "110638.732500", "110639.732500", "110640.732500", "110641.732500", "110642.732500", "110643.732500", "110644.732500", "110645.732500", "110646.732500", "110647.732500", "110648.732500", "110649.732500", "110650.732500", "110651.732500", "110652.732500", "110653.732500", "110654.732500", "110655.732500", "110656.732500", "110657.732500", "110658.732500", "110659.732500", "110700.732500", "110701.732500", "110702.732500", "110703.732500", "110704.732500", "110705.732500", "110706.732500", "110707.732500", "110708.732500", "110709.732500", "110710.732500", "110711.732500", "110712.732500", "110713.732500", "110714.732500", "110715.732500", "110716.732500", "110717.732500", "110718.732500", "110719.732500", "110720.732500", "110721.732500", "110722.732500", "110723.732500", "110724.732500", "110725.732500", "110726.732500", "110727.732500", "110728.732500", "110729.732500", "110730.732500", "110731.732500", "110732.732500", "110733.732500", "110734.732500", "110735.732500", "110736.732500", "110737.732500", "110738.732500", "110739.732500", "110740.732500", "110741.732500", "110742.732500", "110743.732500", "110744.732500", "110745.732500", "110746.732500", "110747.732500", "110748.732500", "110749.732500", "110750.732500", "110751.732500", "110752.732500", "110753.732500", "110754.732500", "110755.732500", "110756.732500", "110757.732500", "110758.732500", "110759.732500", "110800.732500", "110801.732500", "110802.732500", "110803.732500", "110804.732500", "110805.732500", "110806.732500", "110807.732500", "110808.732500", "110809.732500", "110810.732500", "110811.732500", "110812.732500", "110813.732500", "110814.732500", "110815.732500", "110816.732500", "110817.732500", "110818.732500", "110819.732500", "110820.732500", "110821.732500", "110822.732500", "110823.732500", "110824.732500", "110825.732500", "110826.732500", "110827.732500", "110828.732500", "110829.732500", "110830.732500", "110831.732500", "110832.732500", "110833.732500", "110834.732500", "110835.732500", "110836.732500", "110837.732500", "110838.732500", "110839.732500", "110840.732500", "110841.732500", "110842.732500", "110843.732500", "110844.732500", "110845.732500", "110846.732500", "110847.732500", "110848.732500", "110849.732500", "110850.732500", "110851.732500", "110852.732500", "110853.732500", "110854.732500", "110855.732500", "110856.732500", "110857.732500", "110858.732500", "110859.732500", "110900.732500", "110901.732500", "110902.732500", "110903.732500", "110904.732500", "110905.732500", "110906.732500", "110907.732500", "110908.732500", "110909.732500", "110910.732500", "110911.732500", "110912.732500", "110913.732500", "110914.732500", "110915.732500", "110916.732500", "110917.732500", "110918.732500", "110919.732500", "110920.732500", "110921.732500", "110922.732500", "110923.732500", "110924.732500", "110925.732500", "110926.732500", "110927.732500", "110928.732500", "110929.732500", "110930.732500", "110931.732500", "110932.732500", "110933.732500", "110934.732500", "110935.732500", "110936.732500", "110937.732500", "110938.732500", "110939.732500", "110940.732500", "110941.732500", "110942.732500", "110943.732500", "110944.732500", "110945.732500", "110946.732500", "110947.732500", "110948.732500", "110949.732500", "110950.732500", "110951.732500", "110952.732500", "110953.732500", "110954.732500", "110955.732500", "110956.732500", "110957.732500", "110958.732500", "110959.732500", "111000.732500", "111001.732500", "111002.732500", "111003.732500", "111004.732500", "111005.732500", "111006.732500", "111007.732500", "111008.732500", "111009.732500", "111010.732500", "111011.732500", "111012.732500", "111013.732500", "111014.732500", "111015.732500", "111016.732500", "111017.732500", "111018.732500", "111019.732500", "111020.732500", "111021.732500", "111022.732500", "111023.732500", "111024.732500", "111025.732500", "111026.732500", "111027.732500", "111028.732500", "111029.732500", "111030.732500", "111031.732500", "111032.732500", "111033.732500"],
      "ContentTime": ["110504.789000", "110504.791000", "110504.794000", "110504.799000", "110504.802000", "110504.804000", "110504.807000", "110504.813000", "110504.816000", "110504.819000", "110504.821000", "110504.824000", "110504.826000", "110504.828000", "110504.831000", "110504.833000", "110504.842000", "110504.845000", "110504.847000", "110504.850000", "110504.852000", "110504.855000", "110524.752000", "110524.755000", "110524.758000", "110524.760000", "110524.763000", "110524.765000", "110524.768000", "110524.770000", "110524.773000", "110524.775000", "110524.778000", "110524.780000", "110524.783000", "110524.785000", "110524.788000", "110524.790000", "110524.793000", "110524.795000", "110524.798000", "110524.800000", "110524.803000", "110524.805000", "110524.807000", "110544.753000", "110544.756000", "110544.759000", "110544.762000", "110544.764000", "110544.767000", "110544.769000", "110544.772000", "110544.774000", "110544.777000", "110544.779000", "110544.782000", "110544.784000", "110544.786000", "110544.789000", "110544.792000", "110544.794000", "110544.797000", "110544.799000", "110544.802000", "110604.754000", "110604.756000", "110604.759000", "110604.761000", "110604.764000", "110604.766000", "110604.769000", "110604.771000", "110604.774000", "110604.776000", "110604.779000", "110604.792000", "110604.795000", "110604.797000", "110604.800000", "110604.802000", "110604.805000", "110604.807000", "110604.817000", "110604.820000", "110624.753000", "110624.756000", "110624.759000", "110624.762000", "110624.764000", "110624.767000", "110624.770000", "110624.772000", "110624.775000", "110624.777000", "110624.780000", "110624.782000", "110624.785000", "110624.787000", "110624.790000", "110624.792000", "110624.794000", "110624.797000", "110624.799000", "110624.802000", "110644.754000", "110644.756000", "110644.759000", "110644.761000", "110644.764000", "110644.766000", "110644.768000", "110644.771000", "110644.773000", "110644.776000", "110644.778000", "110644.781000", "110644.789000", "110644.791000", "110644.793000", "110644.796000", "110644.798000", "110644.801000", "110644.803000", "110644.806000", "110704.752000", "110704.755000", "110704.757000", "110704.760000", "110704.762000", "110704.765000", "110704.772000", "110704.774000", "110704.777000", "110704.779000", "110704.782000", "110704.784000", "110704.787000", "110704.789000", "110704.792000", "110704.794000", "110704.796000", "110704.799000", "110704.801000", "110704.804000", "110724.752000", "110724.755000", "110724.758000", "110724.760000", "110724.762000", "110724.765000", "110724.767000", "110724.770000", "110724.772000", "110724.775000", "110724.777000", "110724.780000", "110724.782000", "110724.785000", "110724.787000", "110724.790000", "110724.792000", "110724.795000", "110724.797000", "110724.800000", "110744.752000", "110744.755000", "110744.757000", "110744.760000", "110744.763000", "110744.765000", "110744.768000", "110744.770000", "110744.772000", "110744.775000", "110744.777000", "110744.780000", "110744.782000", "110744.785000", "110744.787000", "110744.790000", "110744.792000", "110744.794000", "110744.797000", "110744.800000", "110804.753000", "110804.756000", "110804.758000", "110804.761000", "110804.763000", "110804.766000", "110804.768000", "110804.771000", "110804.773000", "110804.776000", "110804.778000", "110804.781000", "110804.783000", "110804.786000", "110804.788000", "110804.791000", "110804.793000", "110804.796000", "110804.798000", "110804.801000", "110824.754000", "110824.756000", "110824.759000", "110824.761000", "110824.764000", "110824.766000", "110824.769000", "110824.779000", "110824.782000", "110824.784000", "110824.787000", "110824.790000", "110824.792000", "110824.794000", "110824.797000", "110824.799000", "110824.802000", "110824.804000", "110824.807000", "110824.809000", "110844.753000", "110844.756000", "110844.759000", "110844.761000", "110844.764000", "110844.766000", "110844.769000", "110844.772000", "110844.774000", "110844.777000", "110844.779000", "110844.782000", "110844.784000", "110844.787000", "110844.789000", "110844.792000", "110844.794000", "110844.797000", "110844.799000", "110844.802000", "110904.754000", "110904.756000", "110904.759000", "110904.761000", "110904.764000", "110904.766000", "110904.769000", "110904.771000", "110904.774000", "110904.776000", "110904.779000", "110904.781000", "110904.784000", "110904.786000", "110904.789000", "110904.791000", "110904.794000", "110904.805000", "110904.807000", "110904.810000", "110924.752000", "110924.755000", "110924.758000", "110924.760000", "110924.763000", "110924.765000", "110924.768000", "110924.770000", "110924.772000", "110924.775000", "110924.777000", "110924.780000", "110924.783000", "110924.785000", "110924.788000", "110924.790000", "110924.793000", "110924.795000", "110924.798000", "110924.800000", "110944.752000", "110944.755000", "110944.758000", "110944.760000", "110944.763000", "110944.765000", "110944.768000", "110944.784000", "110944.786000", "110944.789000", "110944.791000", "110944.794000", "110944.796000", "110944.799000", "110944.802000", "110944.804000", "110944.807000", "110944.809000", "110944.812000", "110944.814000", "111004.752000", "111004.755000", "111004.758000", "111004.760000", "111004.763000", "111004.765000", "111004.768000", "111004.770000", "111004.773000", "111004.775000", "111004.777000", "111004.780000", "111004.782000", "111004.785000", "111004.787000", "111004.790000", "111004.792000", "111004.795000", "111004.797000", "111004.800000", "111024.753000", "111024.756000", "111024.758000", "111024.761000", "111024.763000", "111024.766000", "111024.768000", "111024.771000", "111024.773000", "111024.776000", "111024.778000", "111024.780000", "111024.783000", "111024.785000", "111024.788000", "111024.790000", "111024.793000", "111024.795000", "111024.798000", "111024.800000", "111035.477000", "111035.480000", "111035.483000", "111035.485000", "111035.488000", "111035.491000", "111035.493000", "111035.496000", "111035.498000", "111035.501000", "111035.503000"],
      "InstanceCreationTime": ["110504.789000", "110504.791000", "110504.794000", "110504.799000", "110504.802000", "110504.804000", "110504.807000", "110504.813000", "110504.816000", "110504.819000", "110504.821000", "110504.824000", "110504.826000", "110504.828000", "110504.831000", "110504.833000", "110504.842000", "110504.845000", "110504.847000", "110504.850000", "110504.852000", "110504.855000", "110524.752000", "110524.755000", "110524.758000", "110524.760000", "110524.763000", "110524.765000", "110524.768000", "110524.770000", "110524.773000", "110524.775000", "110524.778000", "110524.780000", "110524.783000", "110524.785000", "110524.788000", "110524.790000", "110524.793000", "110524.795000", "110524.798000", "110524.800000", "110524.803000", "110524.805000", "110524.807000", "110544.753000", "110544.756000", "110544.759000", "110544.762000", "110544.764000", "110544.767000", "110544.769000", "110544.772000", "110544.774000", "110544.777000", "110544.779000", "110544.782000", "110544.784000", "110544.786000", "110544.789000", "110544.792000", "110544.794000", "110544.797000", "110544.799000", "110544.802000", "110604.754000", "110604.756000", "110604.759000", "110604.761000", "110604.764000", "110604.766000", "110604.769000", "110604.771000", "110604.774000", "110604.776000", "110604.779000", "110604.792000", "110604.795000", "110604.797000", "110604.800000", "110604.802000", "110604.805000", "110604.807000", "110604.817000", "110604.820000", "110624.753000", "110624.756000", "110624.759000", "110624.762000", "110624.764000", "110624.767000", "110624.770000", "110624.772000", "110624.775000", "110624.777000", "110624.780000", "110624.782000", "110624.785000", "110624.787000", "110624.790000", "110624.792000", "110624.794000", "110624.797000", "110624.799000", "110624.802000", "110644.754000", "110644.756000", "110644.759000", "110644.761000", "110644.764000", "110644.766000", "110644.768000", "110644.771000", "110644.773000", "110644.776000", "110644.778000", "110644.781000", "110644.789000", "110644.791000", "110644.793000", "110644.796000", "110644.798000", "110644.801000", "110644.803000", "110644.806000", "110704.752000", "110704.755000", "110704.757000", "110704.760000", "110704.762000", "110704.765000", "110704.772000", "110704.774000", "110704.777000", "110704.779000", "110704.782000", "110704.784000", "110704.787000", "110704.789000", "110704.792000", "110704.794000", "110704.796000", "110704.799000", "110704.801000", "110704.804000", "110724.752000", "110724.755000", "110724.758000", "110724.760000", "110724.762000", "110724.765000", "110724.767000", "110724.770000", "110724.772000", "110724.775000", "110724.777000", "110724.780000", "110724.782000", "110724.785000", "110724.787000", "110724.790000", "110724.792000", "110724.795000", "110724.797000", "110724.800000", "110744.752000", "110744.755000", "110744.757000", "110744.760000", "110744.763000", "110744.765000", "110744.768000", "110744.770000", "110744.772000", "110744.775000", "110744.777000", "110744.780000", "110744.782000", "110744.785000", "110744.787000", "110744.790000", "110744.792000", "110744.794000", "110744.797000", "110744.800000", "110804.753000", "110804.756000", "110804.758000", "110804.761000", "110804.763000", "110804.766000", "110804.768000", "110804.771000", "110804.773000", "110804.776000", "110804.778000", "110804.781000", "110804.783000", "110804.786000", "110804.788000", "110804.791000", "110804.793000", "110804.796000", "110804.798000", "110804.801000", "110824.754000", "110824.756000", "110824.759000", "110824.761000", "110824.764000", "110824.766000", "110824.769000", "110824.779000", "110824.782000", "110824.784000", "110824.787000", "110824.790000", "110824.792000", "110824.794000", "110824.797000", "110824.799000", "110824.802000", "110824.804000", "110824.807000", "110824.809000", "110844.753000", "110844.756000", "110844.759000", "110844.761000", "110844.764000", "110844.766000", "110844.769000", "110844.772000", "110844.774000", "110844.777000", "110844.779000", "110844.782000", "110844.784000", "110844.787000", "110844.789000", "110844.792000", "110844.794000", "110844.797000", "110844.799000", "110844.802000", "110904.754000", "110904.756000", "110904.759000", "110904.761000", "110904.764000", "110904.766000", "110904.769000", "110904.771000", "110904.774000", "110904.776000", "110904.779000", "110904.781000", "110904.784000", "110904.786000", "110904.789000", "110904.791000", "110904.794000", "110904.805000", "110904.807000", "110904.810000", "110924.752000", "110924.755000", "110924.758000", "110924.760000", "110924.763000", "110924.765000", "110924.768000", "110924.770000", "110924.772000", "110924.775000", "110924.777000", "110924.780000", "110924.783000", "110924.785000", "110924.788000", "110924.790000", "110924.793000", "110924.795000", "110924.798000", "110924.800000", "110944.752000", "110944.755000", "110944.758000", "110944.760000", "110944.763000", "110944.765000", "110944.768000", "110944.784000", "110944.786000", "110944.789000", "110944.791000", "110944.794000", "110944.796000", "110944.799000", "110944.802000", "110944.804000", "110944.807000", "110944.809000", "110944.812000", "110944.814000", "111004.752000", "111004.755000", "111004.758000", "111004.760000", "111004.763000", "111004.765000", "111004.768000", "111004.770000", "111004.773000", "111004.775000", "111004.777000", "111004.780000", "111004.782000", "111004.785000", "111004.787000", "111004.790000", "111004.792000", "111004.795000", "111004.797000", "111004.800000", "111024.753000", "111024.756000", "111024.758000", "111024.761000", "111024.763000", "111024.766000", "111024.768000", "111024.771000", "111024.773000", "111024.776000", "111024.778000", "111024.780000", "111024.783000", "111024.785000", "111024.788000", "111024.790000", "111024.793000", "111024.795000", "111024.798000", "111024.800000", "111035.477000", "111035.480000", "111035.483000", "111035.485000", "111035.488000", "111035.491000", "111035.493000", "111035.496000", "111035.498000", "111035.501000", "111035.503000"],
      "InstanceNumber": [1, 2, 3, 4, 5, 6, 7, 8, 9, 10, 11, 12, 13, 14, 15, 16, 17, 18, 19, 20, 21, 22, 23, 24, 25, 26, 27, 28, 29, 30, 31, 32, 33, 34, 35, 36, 37, 38, 39, 40, 41, 42, 43, 44, 45, 46, 47, 48, 49, 50, 51, 52, 53, 54, 55, 56, 57, 58, 59, 60, 61, 62, 63, 64, 65, 66, 67, 68, 69, 70, 71, 72, 73, 74, 75, 76, 77, 78, 79, 80, 81, 82, 83, 84, 85, 86, 87, 88, 89, 90, 91, 92, 93, 94, 95, 96, 97, 98, 99, 100, 101, 102, 103, 104, 105, 106, 107, 108, 109, 110, 111, 112, 113, 114, 115, 116, 117, 118, 119, 120, 121, 122, 123, 124, 125, 126, 127, 128, 129, 130, 131, 132, 133, 134, 135, 136, 137, 138, 139, 140, 141, 142, 143, 144, 145, 146, 147, 148, 149, 150, 151, 152, 153, 154, 155, 156, 157, 158, 159, 160, 161, 162, 163, 164, 165, 166, 167, 168, 169, 170, 171, 172, 173, 174, 175, 176, 177, 178, 179, 180, 181, 182, 183, 184, 185, 186, 187, 188, 189, 190, 191, 192, 193, 194, 195, 196, 197, 198, 199, 200, 201, 202, 203, 204, 205, 206, 207, 208, 209, 210, 211, 212, 213, 214, 215, 216, 217, 218, 219, 220, 221, 222, 223, 224, 225, 226, 227, 228, 229, 230, 231, 232, 233, 234, 235, 236, 237, 238, 239, 240, 241, 242, 243, 244, 245, 246, 247, 248, 249, 250, 251, 252, 253, 254, 255, 256, 257, 258, 259, 260, 261, 262, 263, 264, 265, 266, 267, 268, 269, 270, 271, 272, 273, 274, 275, 276, 277, 278, 279, 280, 281, 282, 283, 284, 285, 286, 287, 288, 289, 290, 291, 292, 293, 294, 295, 296, 297, 298, 299, 300, 301, 302, 303, 304, 305, 306, 307, 308, 309, 310, 311, 312, 313, 314, 315, 316, 317, 318, 319, 320, 321, 322, 323, 324, 325, 326, 327, 328, 329, 330, 331, 332, 333, 334, 335, 336, 337, 338, 339, 340, 341, 342, 343, 344, 345, 346, 347, 348, 349, 350, 351, 352, 353, 354, 355, 356],
      "LargestImagePixelValue": [11586, 11334, 11241, 11079, 11101, 11093, 11070, 11015, 10931, 10978, 10921, 11065, 10950, 10830, 10879, 10894, 10969, 10961, 10851, 10812, 10900, 10843, 10860, 10879, 10838, 10740, 10839, 10911, 10834, 10860, 10830, 10959, 10770, 10865, 10778, 10758, 10772, 10747, 10702, 10788, 10741, 10702, 10684, 10580, 10684, 10687, 10662, 10751, 10576, 10654, 10733, 10683, 10716, 10561, 10593, 10601, 10527, 10498, 10506, 10647, 10622, 10512, 10583, 10567, 10608, 10637, 10601, 10611, 10601, 10698, 10614, 10721, 10641, 10714, 10741, 10525, 10662, 10610, 10559, 10603, 10598, 10582, 10456, 10609, 10774, 10719, 10623, 10664, 10723, 10792, 10701, 10599, 10714, 10595, 10707, 10605, 10727, 10740, 10695, 10591, 10779, 10768, 10784, 10634, 10702, 10621, 10544, 10543, 10622, 10719, 10781, 10629, 10600, 10891, 10798, 10801, 10554, 10868, 11028, 10718, 10636, 10844, 10933, 10784, 11083, 10872, 11027, 11043, 11110, 10979, 11163, 10993, 10940, 10949, 10907, 10976, 11022, 11044, 11074, 10993, 11014, 11010, 10984, 10980, 11058, 11014, 11151, 11109, 11115, 10983, 11059, 11007, 11082, 10814, 10903, 10896, 11067, 10995, 10932, 10924, 10832, 10809, 11143, 11095, 11040, 10912, 10977, 10966, 10890, 10966, 10969, 10849, 10957, 11066, 10984, 10923, 11068, 10933, 10916, 10836, 10949, 10895, 10879, 10946, 10806, 10958, 11078, 10944, 10745, 10865, 11015, 10930, 10970, 10792, 10771, 10978, 10903, 10801, 10997, 10978, 10986, 10807, 10966, 11149, 10868, 10925, 10854, 10788, 10955, 10775, 10714, 10914, 10862, 10830, 10787, 10886, 10795, 10790, 10821, 10865, 10720, 10805, 11055, 11046, 10757, 10816, 10902, 11054, 10941, 10860, 10750, 11123, 10881, 10785, 10809, 10882, 10906, 10858, 10800, 10815, 10819, 10812, 10901, 10808, 10861, 10941, 10879, 10987, 10848, 10876, 10857, 10845, 10754, 10863, 10801, 10831, 10682, 10793, 10787, 10813, 10920, 10798, 10870, 10957, 10954, 10993, 10823, 10868, 10821, 11095, 11014, 10897, 10792, 10985, 10981, 10740, 10782, 10763, 10862, 10931, 10990, 10896, 11037, 11109, 10941, 10881, 10834, 10765, 10863, 10862, 10925, 10906, 10896, 10911, 10825, 11229, 10985, 10964, 10823, 10859, 11046, 10802, 10777, 10708, 10888, 10886, 10880, 10877, 10980, 10984, 10887, 10700, 11021, 11029, 10716, 10683, 11074, 10762, 10608, 10815, 11257, 10949, 10827, 10615, 10928, 11012, 10963, 10783, 10925, 11079, 10815, 10740, 10468, 10864, 10874, 10695, 10809, 10780, 10815, 10595, 10592, 10721, 10678, 10653, 10690, 10581, 10740, 10678, 10725, 10619, 10576, 10616, 10705, 10763, 10799, 10697],
