{
  "AcquisitionMatrixPE": 106,
  "AcquisitionNumber": 1,
  "AcquisitionTime": "18:48:26.605000",
  "BandwidthPerPixelPhaseEncode": 13.477,
  "BaseResolution": 106,
  "BodyPartExamined": "BRAIN",
  "CoilCombinationMethod": "Sum of Squares",
  "ConsistencyInfo": "N4_VE11C_LATEST_20160120",
  "ConversionSoftware": "dcm2niix",
  "ConversionSoftwareVersion": "v1.0.20220720",
  "DerivedVendorReportedEchoSpacing": 0.000700005,
  "DeviceSerialNumber": "166108",
  "DwellTime": 2.6e-06,
  "EchoTime": 0.03,
  "EchoTrainLength": 80,
  "EffectiveEchoSpacing": 0.000700005,
  "FlipAngle": 62,
  "HeudiconvVersion": "1.3.0",
  "ImageComments": "Unaliased MB4/PE3/LB",
  "ImageOrientationPatientDICOM": [1, 0, 0, 0, 0.998135, -0.0610485],
  "ImageOrientationText": "Tra>Cor(-3.5)",
  "ImageType": [
    "ORIGINAL",
    "PRIMARY",
    "M",
    "MB",
    "ND",
    "MOSAIC"
],
  "ImagingFrequency": 123.244,
  "InPlanePhaseEncodingDirectionDICOM": "COL",
  "InstitutionAddress": "Bedford Way 26,London,London,GB,WC1H 0AP",
  "InstitutionName": "University College",
  "InstitutionalDepartmentName": "Department",
  "MRAcquisitionType": "2D",
  "MagneticFieldStrength": 3,
  "Manufacturer": "Siemens",
  "ManufacturersModelName": "Prisma",
  "MatrixCoilMode": "SENSE",
  "Modality": "MR",
  "MultibandAccelerationFactor": 4,
  "NonlinearGradientCorrection": false,
  "PartialFourier": 0.75,
  "PatientPosition": "HFS",
  "PercentPhaseFOV": 100,
  "PercentSampling": 100,
  "PhaseEncodingDirection": "j-",
  "PhaseEncodingSteps": 80,
  "PhaseResolution": 1,
  "PixelBandwidth": 1815,
  "ProcedureStepDescription": "Egor^MovieProject2",
  "ProtocolName": "func-bold_task-motor_run-02",
  "PulseSequenceDetails": "%CustomerSeq%\\cmrr_mbep2d_bold",
  "ReceiveCoilActiveElements": "HEA;HEP",
  "ReceiveCoilName": "Head_32",
  "ReconMatrixPE": 106,
  "RepetitionTime": 1,
  "SAR": 0.0353224,
  "ScanOptions": "PFP\\FS\\EXT",
  "ScanningSequence": "EP",
  "SequenceName": "epfid2d1_106",
  "SequenceVariant": "SK\\SS",
  "SeriesDescription": "func-bold_task-motor_run-02",
  "SeriesNumber": 4,
  "ShimSetting": [-1579, 636, 7371, 126, -67, 224, 41, -23],
  "SliceThickness": 2,
  "SliceTiming": [0, 0.535, 0.09, 0.6225, 0.1775, 0.7125, 0.2675, 0.8025, 0.355, 0.89, 0.445, 0, 0.535, 0.09, 0.6225, 0.1775, 0.7125, 0.2675, 0.8025, 0.355, 0.89, 0.445, 0, 0.535, 0.09, 0.6225, 0.1775, 0.7125, 0.2675, 0.8025, 0.355, 0.89, 0.445, 0, 0.535, 0.09, 0.6225, 0.1775, 0.7125, 0.2675, 0.8025, 0.355, 0.89, 0.445],
  "SoftwareVersions": "syngo MR E11",
  "SpacingBetweenSlices": 2,
  "StationName": "AWP166108",
  "TaskName": "somatotopy",
  "TotalReadoutTime": 0.0735005,
  "TxRefAmp": 218.921,
  "WipMemBlock": "48b5eb83-3a8f-468c-be14-8b05a6929a2b||Sequence: R016 ve11c/master r/e634e98; Dec 19 2017 11:00:25 by eja",
  "dcmmeta_affine": [
    [-2.0, 0.0, 0.0, 106.0],
    [0.0, 1.9962695837020874, -0.12209708243608475, -94.458251953125],
    [0.0, 0.12209708243608475, 1.996269702911377, -5.144126892089844],
    [0.0, 0.0, 0.0, 1.0]
],
  "dcmmeta_reorient_transform": [
    [0.0, -1.0, 0.0, 105.0],
    [1.0, 0.0, 0.0, 0.0],
    [0.0, 0.0, 1.0, 0.0],
    [0.0, 0.0, 0.0, 1.0]
],
  "dcmmeta_shape": [106, 106, 44, 469],
  "dcmmeta_slice_dim": 2,
  "dcmmeta_version": 0.6,
  "global": {
    "const": {
      "AcquisitionMatrix": [106, 0, 0, 106],
      "AngioFlag": "N",
      "BitsAllocated": 16,
      "BitsStored": 16,
      "BodyPartExamined": "BRAIN",
      "CardiacNumberOfImages": 1,
      "Columns": 742,
      "EchoNumbers": 1,
      "EchoTime": 30.0,
      "EchoTrainLength": 80,
      "FlipAngle": 62.0,
      "HighBit": 15,
      "ImageOrientationPatient": [1.0, 0.0, 0.0, 0.0, 0.99813479839876, -0.0610485399126],
      "ImagePositionPatient": [-742.0, -749.96378919545, 46.502938099178],
      "ImageType": [
        "ORIGINAL",
        "PRIMARY",
        "M",
        "MB",
        "ND",
        "MOSAIC"
],
      "ImagedNucleus": "1H",
      "ImagingFrequency": 123.243682,
      "InPlanePhaseEncodingDirection": "COL",
      "MRAcquisitionType": "2D",
      "MagneticFieldStrength": 3.0,
      "Manufacturer": "SIEMENS",
      "ManufacturerModelName": "Prisma",
      "Modality": "MR",
      "NominalInterval": 0,
      "NumberOfAverages": 1.0,
      "NumberOfPhaseEncodingSteps": 80,
      "PercentPhaseFieldOfView": 100.0,
      "PercentSampling": 100.0,
      "PerformedProcedureStepStartTime": "182502.395000",
      "PhotometricInterpretation": "MONOCHROME2",
      "PixelBandwidth": 1815.0,
      "PixelRepresentation": 0,
      "PixelSpacing": [2.0, 2.0],
      "ProtocolName": "func-bold_task-motor_run-02",
      "RepetitionTime": 1000.0,
      "Rows": 742,
      "SAR": 0.03532238296067,
      "SamplesPerPixel": 1,
      "ScanOptions": [
        "PFP",
        "FS",
        "EXT"
],
      "ScanningSequence": "EP",
      "SequenceName": "epfid2d1_106",
      "SequenceVariant": [
        "SK",
        "SS"
],
      "SeriesDescription": "func-bold_task-motor_run-02",
      "SeriesNumber": 4,
      "SeriesTime": "184901.394000",
      "SliceLocation": 0.63200642683428,
      "SliceThickness": 2.0,
      "SmallestImagePixelValue": 0,
      "SoftwareVersions": "syngo MR E11",
      "SpacingBetweenSlices": 2.0000000783722,
      "SpecificCharacterSet": "ISO_IR 100",
      "StudyID": "1",
      "StudyTime": "182502.340000",
      "TransmitCoilName": "Body",
      "VariableFlipAngleFlag": "N",
      "WindowCenterWidthExplanation": "Algo1",
      "dBdt": 0.0},
    "slices": {}
  },
  "time": {
    "samples": {
      "AcquisitionNumber": [1, 2, 3, 4, 5, 6, 7, 8, 9, 10, 11, 12, 13, 14, 15, 16, 17, 18, 19, 20, 21, 22, 23, 24, 25, 26, 27, 28, 29, 30, 31, 32, 33, 34, 35, 36, 37, 38, 39, 40, 41, 42, 43, 44, 45, 46, 47, 48, 49, 50, 51, 52, 53, 54, 55, 56, 57, 58, 59, 60, 61, 62, 63, 64, 65, 66, 67, 68, 69, 70, 71, 72, 73, 74, 75, 76, 77, 78, 79, 80, 81, 82, 83, 84, 85, 86, 87, 88, 89, 90, 91, 92, 93, 94, 95, 96, 97, 98, 99, 100, 101, 102, 103, 104, 105, 106, 107, 108, 109, 110, 111, 112, 113, 114, 115, 116, 117, 118, 119, 120, 121, 122, 123, 124, 125, 126, 127, 128, 129, 130, 131, 132, 133, 134, 135, 136, 137, 138, 139, 140, 141, 142, 143, 144, 145, 146, 147, 148, 149, 150, 151, 152, 153, 154, 155, 156, 157, 158, 159, 160, 161, 162, 163, 164, 165, 166, 167, 168, 169, 170, 171, 172, 173, 174, 175, 176, 177, 178, 179, 180, 181, 182, 183, 184, 185, 186, 187, 188, 189, 190, 191, 192, 193, 194, 195, 196, 197, 198, 199, 200, 201, 202, 203, 204, 205, 206, 207, 208, 209, 210, 211, 212, 213, 214, 215, 216, 217, 218, 219, 220, 221, 222, 223, 224, 225, 226, 227, 228, 229, 230, 231, 232, 233, 234, 235, 236, 237, 238, 239, 240, 241, 242, 243, 244, 245, 246, 247, 248, 249, 250, 251, 252, 253, 254, 255, 256, 257, 258, 259, 260, 261, 262, 263, 264, 265, 266, 267, 268, 269, 270, 271, 272, 273, 274, 275, 276, 277, 278, 279, 280, 281, 282, 283, 284, 285, 286, 287, 288, 289, 290, 291, 292, 293, 294, 295, 296, 297, 298, 299, 300, 301, 302, 303, 304, 305, 306, 307, 308, 309, 310, 311, 312, 313, 314, 315, 316, 317, 318, 319, 320, 321, 322, 323, 324, 325, 326, 327, 328, 329, 330, 331, 332, 333, 334, 335, 336, 337, 338, 339, 340, 341, 342, 343, 344, 345, 346, 347, 348, 349, 350, 351, 352, 353, 354, 355, 356, 357, 358, 359, 360, 361, 362, 363, 364, 365, 366, 367, 368, 369, 370, 371, 372, 373, 374, 375, 376, 377, 378, 379, 380, 381, 382, 383, 384, 385, 386, 387, 388, 389, 390, 391, 392, 393, 394, 395, 396, 397, 398, 399, 400, 401, 402, 403, 404, 405, 406, 407, 408, 409, 410, 411, 412, 413, 414, 415, 416, 417, 418, 419, 420, 421, 422, 423, 424, 425, 426, 427, 428, 429, 430, 431, 432, 433, 434, 435, 436, 437, 438, 439, 440, 441, 442, 443, 444, 445, 446, 447, 448, 449, 450, 451, 452, 453, 454, 455, 456, 457, 458, 459, 460, 461, 462, 463, 464, 465, 466, 467, 468, 469],
      "AcquisitionTime": ["184826.605000", "184827.605000", "184828.605000", "184829.605000", "184830.605000", "184831.605000", "184832.605000", "184833.605000", "184834.605000", "184835.605000", "184836.605000", "184837.605000", "184838.605000", "184839.605000", "184840.605000", "184841.605000", "184842.605000", "184843.605000", "184844.605000", "184845.605000", "184846.605000", "184847.605000", "184848.605000", "184849.605000", "184850.605000", "184851.605000", "184852.605000", "184853.605000", "184854.605000", "184855.605000", "184856.605000", "184857.605000", "184858.605000", "184859.605000", "184900.605000", "184901.605000", "184902.605000", "184903.605000", "184904.605000", "184905.605000", "184906.605000", "184907.605000", "184908.605000", "184909.605000", "184910.605000", "184911.605000", "184912.605000", "184913.605000", "184914.605000", "184915.605000", "184916.605000", "184917.605000", "184918.605000", "184919.605000", "184920.605000", "184921.605000", "184922.605000", "184923.605000", "184924.605000", "184925.605000", "184926.605000", "184927.605000", "184928.605000", "184929.605000", "184930.605000", "184931.605000", "184932.605000", "184933.605000", "184934.605000", "184935.605000", "184936.605000", "184937.605000", "184938.605000", "184939.605000", "184940.605000", "184941.605000", "184942.605000", "184943.605000", "184944.605000", "184945.605000", "184946.605000", "184947.605000", "184948.605000", "184949.605000", "184950.605000", "184951.605000", "184952.605000", "184953.605000", "184954.605000", "184955.605000", "184956.605000", "184957.605000", "184958.605000", "184959.605000", "185000.605000", "185001.605000", "185002.605000", "185003.605000", "185004.605000", "185005.605000", "185006.605000", "185007.605000", "185008.605000", "185009.605000", "185010.605000", "185011.605000", "185012.605000", "185013.605000", "185014.605000", "185015.605000", "185016.605000", "185017.605000", "185018.605000", "185019.605000", "185020.605000", "185021.605000", "185022.605000", "185023.605000", "185024.605000", "185025.605000", "185026.605000", "185027.605000", "185028.605000", "185029.605000", "185030.605000", "185031.605000", "185032.605000", "185033.605000", "185034.605000", "185035.605000", "185036.605000", "185037.605000", "185038.605000", "185039.605000", "185040.605000", "185041.605000", "185042.605000", "185043.605000", "185044.605000", "185045.605000", "185046.605000", "185047.605000", "185048.605000", "185049.605000", "185050.605000", "185051.605000", "185052.605000", "185053.605000", "185054.605000", "185055.605000", "185056.605000", "185057.605000", "185058.605000", "185059.605000", "185100.605000", "185101.605000", "185102.605000", "185103.605000", "185104.605000", "185105.605000", "185106.605000", "185107.605000", "185108.605000", "185109.605000", "185110.605000", "185111.605000", "185112.605000", "185113.605000", "185114.605000", "185115.605000", "185116.605000", "185117.605000", "185118.605000", "185119.605000", "185120.605000", "185121.605000", "185122.605000", "185123.605000", "185124.605000", "185125.605000", "185126.605000", "185127.605000", "185128.605000", "185129.605000", "185130.605000", "185131.605000", "185132.605000", "185133.605000", "185134.605000", "185135.605000", "185136.605000", "185137.605000", "185138.605000", "185139.605000", "185140.605000", "185141.605000", "185142.605000", "185143.605000", "185144.605000", "185145.605000", "185146.605000", "185147.605000", "185148.605000", "185149.605000", "185150.605000", "185151.605000", "185152.605000", "185153.605000", "185154.605000", "185155.605000", "185156.605000", "185157.605000", "185158.605000", "185159.605000", "185200.605000", "185201.605000", "185202.605000", "185203.605000", "185204.605000", "185205.605000", "185206.605000", "185207.605000", "185208.605000", "185209.605000", "185210.605000", "185211.605000", "185212.605000", "185213.605000", "185214.605000", "185215.605000", "185216.605000", "185217.605000", "185218.605000", "185219.605000", "185220.605000", "185221.605000", "185222.605000", "185223.605000", "185224.605000", "185225.605000", "185226.605000", "185227.605000", "185228.605000", "185229.605000", "185230.605000", "185231.605000", "185232.605000", "185233.605000", "185234.605000", "185235.605000", "185236.605000", "185237.605000", "185238.605000", "185239.605000", "185240.605000", "185241.605000", "185242.605000", "185243.605000", "185244.605000", "185245.605000", "185246.605000", "185247.605000", "185248.605000", "185249.605000", "185250.605000", "185251.605000", "185252.605000", "185253.605000", "185254.605000", "185255.605000", "185256.605000", "185257.605000", "185258.605000", "185259.605000", "185300.605000", "185301.605000", "185302.605000", "185303.605000", "185304.605000", "185305.605000", "185306.605000", "185307.605000", "185308.605000", "185309.605000", "185310.605000", "185311.605000", "185312.605000", "185313.605000", "185314.605000", "185315.605000", "185316.605000", "185317.605000", "185318.605000", "185319.605000", "185320.605000", "185321.605000", "185322.605000", "185323.605000", "185324.605000", "185325.605000", "185326.605000", "185327.605000", "185328.605000", "185329.605000", "185330.605000", "185331.605000", "185332.605000", "185333.605000", "185334.605000", "185335.605000", "185336.605000", "185337.605000", "185338.605000", "185339.605000", "185340.605000", "185341.605000", "185342.605000", "185343.605000", "185344.605000", "185345.605000", "185346.605000", "185347.605000", "185348.605000", "185349.605000", "185350.605000", "185351.605000", "185352.605000", "185353.605000", "185354.605000", "185355.605000", "185356.605000", "185357.605000", "185358.605000", "185359.605000", "185400.605000", "185401.605000", "185402.605000", "185403.605000", "185404.605000", "185405.605000", "185406.605000", "185407.605000", "185408.605000", "185409.605000", "185410.605000", "185411.605000", "185412.605000", "185413.605000", "185414.605000", "185415.605000", "185416.605000", "185417.605000", "185418.605000", "185419.605000", "185420.605000", "185421.605000", "185422.605000", "185423.605000", "185424.605000", "185425.605000", "185426.605000", "185427.605000", "185428.605000", "185429.605000", "185430.605000", "185431.605000", "185432.605000", "185433.605000", "185434.605000", "185435.605000", "185436.605000", "185437.605000", "185438.605000", "185439.605000", "185440.605000", "185441.605000", "185442.605000", "185443.605000", "185444.605000", "185445.605000", "185446.605000", "185447.605000", "185448.605000", "185449.605000", "185450.605000", "185451.605000", "185452.605000", "185453.605000", "185454.605000", "185455.605000", "185456.605000", "185457.605000", "185458.605000", "185459.605000", "185500.605000", "185501.605000", "185502.605000", "185503.605000", "185504.605000", "185505.605000", "185506.605000", "185507.605000", "185508.605000", "185509.605000", "185510.605000", "185511.605000", "185512.605000", "185513.605000", "185514.605000", "185515.605000", "185516.605000", "185517.605000", "185518.605000", "185519.605000", "185520.605000", "185521.605000", "185522.605000", "185523.605000", "185524.605000", "185525.605000", "185526.605000", "185527.605000", "185528.605000", "185529.605000", "185530.605000", "185531.605000", "185532.605000", "185533.605000", "185534.605000", "185535.605000", "185536.605000", "185537.605000", "185538.605000", "185539.605000", "185540.605000", "185541.605000", "185542.605000", "185543.605000", "185544.605000", "185545.605000", "185546.605000", "185547.605000", "185548.605000", "185549.605000", "185550.605000", "185551.605000", "185552.605000", "185553.605000", "185554.605000", "185555.605000", "185556.605000", "185557.605000", "185558.605000", "185559.605000", "185600.605000", "185601.605000", "185602.605000", "185603.605000", "185604.605000", "185605.605000", "185606.605000", "185607.605000", "185608.605000", "185609.605000", "185610.605000", "185611.605000", "185612.605000", "185613.605000", "185614.605000"],
      "ContentTime": ["184901.397000", "184901.400000", "184901.402000", "184901.405000", "184901.407000", "184901.410000", "184901.412000", "184901.415000", "184901.417000", "184901.420000", "184901.422000", "184901.425000", "184901.427000", "184901.429000", "184901.432000", "184901.434000", "184901.437000", "184901.439000", "184901.442000", "184901.454000", "184901.457000", "184901.459000", "184901.461000", "184901.464000", "184901.467000", "184901.469000", "184901.471000", "184901.474000", "184901.476000", "184901.479000", "184901.486000", "184901.488000", "184901.491000", "184901.493000", "184921.372000", "184921.375000", "184921.378000", "184921.380000", "184921.383000", "184921.385000", "184921.388000", "184921.390000", "184921.393000", "184921.395000", "184921.397000", "184921.400000", "184921.402000", "184921.405000", "184921.407000", "184921.420000", "184921.422000", "184921.425000", "184921.427000", "184921.430000", "184941.372000", "184941.375000", "184941.377000", "184941.380000", "184941.382000", "184941.385000", "184941.387000", "184941.390000", "184941.392000", "184941.395000", "184941.397000", "184941.400000", "184941.403000", "184941.405000", "184941.408000", "184941.410000", "184941.413000", "184941.415000", "184941.418000", "184941.420000", "185001.372000", "185001.375000", "185001.377000", "185001.380000", "185001.382000", "185001.385000", "185001.387000", "185001.390000", "185001.402000", "185001.405000", "185001.407000", "185001.409000", "185001.412000", "185001.415000", "185001.417000", "185001.419000", "185001.422000", "185001.425000", "185001.427000", "185001.429000", "185021.372000", "185021.375000", "185021.378000", "185021.380000", "185021.382000", "185021.385000", "185021.387000", "185021.390000", "185021.392000", "185021.395000", "185021.397000", "185021.399000", "185021.402000", "185021.404000", "185021.407000", "185021.409000", "185021.411000", "185021.414000", "185021.416000", "185021.419000", "185041.372000", "185041.375000", "185041.378000", "185041.380000", "185041.383000", "185041.385000", "185041.387000", "185041.390000", "185041.392000", "185041.395000", "185041.397000", "185041.400000", "185041.402000", "185041.404000", "185041.407000", "185041.409000", "185041.412000", "185041.414000", "185041.417000", "185041.419000", "185101.372000", "185101.375000", "185101.377000", "185101.380000", "185101.383000", "185101.385000", "185101.388000", "185101.390000", "185101.392000", "185101.395000", "185101.397000", "185101.400000", "185101.402000", "185101.405000", "185101.407000", "185101.410000", "185101.412000", "185101.414000", "185101.417000", "185101.419000", "185121.372000", "185121.375000", "185121.377000", "185121.380000", "185121.382000", "185121.385000", "185121.387000", "185121.390000", "185121.392000", "185121.394000", "185121.397000", "185121.399000", "185121.402000", "185121.404000", "185121.407000", "185121.409000", "185121.412000", "185121.414000", "185121.416000", "185121.419000", "185141.373000", "185141.375000", "185141.378000", "185141.380000", "185141.383000", "185141.385000", "185141.387000", "185141.390000", "185141.392000", "185141.395000", "185141.397000", "185141.400000", "185141.402000", "185141.405000", "185141.407000", "185141.410000", "185141.412000", "185141.414000", "185141.417000", "185141.419000", "185201.373000", "185201.375000", "185201.378000", "185201.380000", "185201.383000", "185201.385000", "185201.388000", "185201.390000", "185201.393000", "185201.395000", "185201.397000", "185201.400000", "185201.402000", "185201.405000", "185201.407000", "185201.409000", "185201.412000", "185201.414000", "185201.417000", "185201.419000", "185221.372000", "185221.375000", "185221.377000", "185221.380000", "185221.382000", "185221.385000", "185221.387000", "185221.390000", "185221.392000", "185221.395000", "185221.397000", "185221.400000", "185221.402000", "185221.404000", "185221.407000", "185221.409000", "185221.412000", "185221.414000", "185221.417000", "185221.419000", "185241.372000", "185241.375000", "185241.377000", "185241.380000", "185241.382000", "185241.385000", "185241.387000", "185241.390000", "185241.392000", "185241.394000", "185241.397000", "185241.399000", "185241.402000", "185241.404000", "185241.406000", "185241.409000", "185241.411000", "185241.414000", "185241.416000", "185241.419000", "185301.372000", "185301.375000", "185301.377000", "185301.380000", "185301.382000", "185301.385000", "185301.387000", "185301.390000", "185301.392000", "185301.394000", "185301.397000", "185301.399000", "185301.402000", "185301.405000", "185301.407000", "185301.409000", "185301.412000", "185301.414000", "185301.417000", "185301.419000", "185321.372000", "185321.375000", "185321.378000", "185321.380000", "185321.383000", "185321.385000", "185321.387000", "185321.390000", "185321.392000", "185321.404000", "185321.406000", "185321.409000", "185321.411000", "185321.414000", "185321.416000", "185321.418000", "185321.421000", "185321.423000", "185321.426000", "185321.428000", "185341.372000", "185341.375000", "185341.378000", "185341.380000", "185341.383000", "185341.385000", "185341.388000", "185341.390000", "185341.393000", "185341.395000", "185341.397000", "185341.400000", "185341.402000", "185341.405000", "185341.407000", "185341.409000", "185341.412000", "185341.414000", "185341.417000", "185341.419000", "185401.373000", "185401.375000", "185401.378000", "185401.380000", "185401.383000", "185401.385000", "185401.388000", "185401.390000", "185401.392000", "185401.395000", "185401.397000", "185401.400000", "185401.402000", "185401.405000", "185401.407000", "185401.409000", "185401.412000", "185401.414000", "185401.417000", "185401.419000", "185421.372000", "185421.375000", "185421.377000", "185421.380000", "185421.382000", "185421.385000", "185421.387000", "185421.390000", "185421.392000", "185421.394000", "185421.397000", "185421.399000", "185421.402000", "185421.404000", "185421.407000", "185421.409000", "185421.412000", "185421.414000", "185421.417000", "185421.419000", "185441.372000", "185441.375000", "185441.377000", "185441.380000", "185441.382000", "185441.385000", "185441.387000", "185441.390000", "185441.392000", "185441.395000", "185441.397000", "185441.399000", "185441.402000", "185441.404000", "185441.407000", "185441.409000", "185441.412000", "185441.414000", "185441.417000", "185441.419000", "185501.373000", "185501.375000", "185501.378000", "185501.380000", "185501.383000", "185501.385000", "185501.388000", "185501.390000", "185501.393000", "185501.395000", "185501.398000", "185501.400000", "185501.402000", "185501.405000", "185501.407000", "185501.410000", "185501.412000", "185501.415000", "185501.417000", "185501.420000", "185521.372000", "185521.375000", "185521.377000", "185521.380000", "185521.382000", "185521.385000", "185521.387000", "185521.390000", "185521.392000", "185521.395000", "185521.397000", "185521.399000", "185521.402000", "185521.404000", "185521.407000", "185521.409000", "185521.412000", "185521.414000", "185521.417000", "185521.419000", "185541.372000", "185541.375000", "185541.378000", "185541.380000", "185541.382000", "185541.385000", "185541.388000", "185541.390000", "185541.392000", "185541.395000", "185541.397000", "185541.400000", "185541.402000", "185541.405000", "185541.407000", "185541.409000", "185541.412000", "185541.414000", "185541.417000", "185541.419000", "185601.372000", "185601.375000", "185601.378000", "185601.390000", "185601.393000", "185601.395000", "185601.398000", "185601.400000", "185601.403000", "185601.405000", "185601.407000", "185601.410000", "185601.412000", "185601.415000", "185601.417000", "185601.420000", "185601.423000", "185601.425000", "185601.428000", "185601.430000", "185616.315000", "185616.318000", "185616.321000", "185616.323000", "185616.326000", "185616.328000", "185616.331000", "185616.333000", "185616.335000", "185616.338000", "185616.340000", "185616.343000", "185616.361000", "185616.363000", "185616.366000"],
