{
  "AcquisitionMatrixPE": 106,
  "AcquisitionNumber": 1,
  "AcquisitionTime": "19:13:20.010000",
  "BandwidthPerPixelPhaseEncode": 16.846,
  "BaseResolution": 106,
  "BodyPartExamined": "BRAIN",
  "CoilCombinationMethod": "Sum of Squares",
  "ConsistencyInfo": "N4_VE11C_LATEST_20160120",
  "ConversionSoftware": "dcm2niix",
  "ConversionSoftwareVersion": "v1.0.20220720",
  "DerivedVendorReportedEchoSpacing": 0.000560012,
  "DeviceSerialNumber": "166108",
  "DwellTime": 1.8e-06,
  "EchoTime": 0.0352,
  "EchoTrainLength": 106,
  "EffectiveEchoSpacing": 0.000560012,
  "FlipAngle": 60,
  "HeudiconvVersion": "1.3.0",
  "ImageComments": "Unaliased MB4/PE3/LB",
  "ImageOrientationPatientDICOM": [1, 0, 0, 0, 0.891007, -0.45399],
  "ImageOrientationText": "Tra>Cor(-27.0)",
  "ImageType": [
    "ORIGINAL",
    "PRIMARY",
    "M",
    "MB",
    "ND",
    "MOSAIC"
],
  "ImagingFrequency": 123.244,
  "InPlanePhaseEncodingDirectionDICOM": "COL",
  "InstitutionAddress": "Bedford Way 26,London,London,GB,WC1H 0AP",
  "InstitutionName": "University College",
  "InstitutionalDepartmentName": "Department",
  "MRAcquisitionType": "2D",
  "MagneticFieldStrength": 3,
  "Manufacturer": "Siemens",
  "ManufacturersModelName": "Prisma",
  "MatrixCoilMode": "SENSE",
  "Modality": "MR",
  "MultibandAccelerationFactor": 4,
  "NonlinearGradientCorrection": false,
  "PartialFourier": 1,
  "PatientPosition": "HFS",
  "PercentPhaseFOV": 100,
  "PercentSampling": 100,
  "PhaseEncodingDirection": "j-",
  "PhaseEncodingSteps": 106,
  "PhaseResolution": 1,
  "PixelBandwidth": 2620,
  "ProcedureStepDescription": "Egor^MovieProject2",
  "ProtocolName": "func-bold_task-pRF_run-01",
  "PulseSequenceDetails": "%CustomerSeq%\\cmrr_mbep2d_bold",
  "ReceiveCoilActiveElements": "HEA;HEP",
  "ReceiveCoilName": "Head_32",
  "ReconMatrixPE": 106,
  "RepetitionTime": 1,
  "SAR": 0.0632716,
  "ScanOptions": "FS\\EXT",
  "ScanningSequence": "EP",
  "SequenceName": "epfid2d1_106",
  "SequenceVariant": "SK\\SS",
  "SeriesDescription": "func-bold_task-pRF_run-01",
  "SeriesNumber": 10,
  "ShimSetting": [-1574, 653, 7430, 377, -44, 254, 87, -20],
  "SliceThickness": 2,
  "SliceTiming": [0, 0.4075, 0.8175, 0.245, 0.6525, 0.0825, 0.49, 0.8975, 0.3275, 0.735, 0.1625, 0.5725, 0, 0.4075, 0.8175, 0.245, 0.6525, 0.0825, 0.49, 0.8975, 0.3275, 0.735, 0.1625, 0.5725, 0, 0.4075, 0.8175, 0.245, 0.6525, 0.0825, 0.49, 0.8975, 0.3275, 0.735, 0.1625, 0.5725, 0, 0.4075, 0.8175, 0.245, 0.6525, 0.0825, 0.49, 0.8975, 0.3275, 0.735, 0.1625, 0.5725],
  "SoftwareVersions": "syngo MR E11",
  "SpacingBetweenSlices": 2,
  "StationName": "AWP166108",
  "TaskName": "retinotopy",
  "TotalReadoutTime": 0.0588013,
  "TxRefAmp": 218.921,
  "WipMemBlock": "7eb3e5c3-8aa1-47de-ae55-432ef807823f||Sequence: R016 ve11c/master r/e634e98; Dec 19 2017 11:00:25 by eja",
  "dcmmeta_affine": [
    [-2.0, 0.0, 0.0, 106.0],
    [0.0, 1.7820130586624146, -0.9079809784889221, -75.64519500732422],
    [0.0, 0.9079809784889221, 1.7820130586624146, -57.632076263427734],
    [0.0, 0.0, 0.0, 1.0]
],
  "dcmmeta_reorient_transform": [
    [0.0, -1.0, 0.0, 105.0],
    [1.0, 0.0, 0.0, 0.0],
    [0.0, 0.0, 1.0, 0.0],
    [0.0, 0.0, 0.0, 1.0]
],
  "dcmmeta_shape": [106, 106, 48, 356],
  "dcmmeta_slice_dim": 2,
  "dcmmeta_version": 0.6,
  "global": {
    "const": {
      "AcquisitionMatrix": [106, 0, 0, 106],
      "AngioFlag": "N",
      "BitsAllocated": 16,
      "BitsStored": 16,
      "BodyPartExamined": "BRAIN",
      "CardiacNumberOfImages": 1,
      "Columns": 742,
      "EchoNumbers": 1,
      "EchoTime": 35.2,
      "EchoTrainLength": 106,
      "FlipAngle": 60.0,
      "HighBit": 15,
      "ImageOrientationPatient": [1.0, 0.0, 0.0, 0.0, 0.89100652607637, -0.4539904960341],
      "ImagePositionPatient": [-742.0, -678.1463240076, 326.44388243692],
      "ImageType": [
        "ORIGINAL",
        "PRIMARY",
        "M",
        "MB",
        "ND",
        "MOSAIC"
],
      "ImagedNucleus": "1H",
      "ImagingFrequency": 123.243662,
      "InPlanePhaseEncodingDirection": "COL",
      "MRAcquisitionType": "2D",
      "MagneticFieldStrength": 3.0,
      "Manufacturer": "SIEMENS",
      "ManufacturerModelName": "Prisma",
      "Modality": "MR",
      "NominalInterval": 0,
      "NumberOfAverages": 1.0,
      "NumberOfPhaseEncodingSteps": 106,
      "PercentPhaseFieldOfView": 100.0,
      "PercentSampling": 100.0,
      "PerformedProcedureStepStartTime": "182502.395000",
      "PhotometricInterpretation": "MONOCHROME2",
      "PixelBandwidth": 2620.0,
      "PixelRepresentation": 0,
      "PixelSpacing": [2.0, 2.0],
      "ProtocolName": "func-bold_task-pRF_run-01",
      "RepetitionTime": 1000.0,
      "Rows": 742,
      "SAR": 0.06327159746569,
      "SamplesPerPixel": 1,
      "ScanOptions": [
        "FS",
        "EXT"
],
      "ScanningSequence": "EP",
      "SequenceName": "epfid2d1_106",
      "SequenceVariant": [
        "SK",
        "SS"
],
      "SeriesDescription": "func-bold_task-pRF_run-01",
      "SeriesNumber": 10,
      "SeriesTime": "191401.397000",
      "SliceLocation": -17.008356370946,
      "SliceThickness": 2.0,
      "SmallestImagePixelValue": 0,
      "SoftwareVersions": "syngo MR E11",
      "SpacingBetweenSlices": 2.0000000028154,
      "SpecificCharacterSet": "ISO_IR 100",
      "StudyID": "1",
      "StudyTime": "182502.340000",
      "TransmitCoilName": "Body",
      "VariableFlipAngleFlag": "N",
      "WindowCenterWidthExplanation": "Algo1",
      "dBdt": 0.0},
    "slices": {}
  },
  "time": {
    "samples": {
      "AcquisitionNumber": [1, 2, 3, 4, 5, 6, 7, 8, 9, 10, 11, 12, 13, 14, 15, 16, 17, 18, 19, 20, 21, 22, 23, 24, 25, 26, 27, 28, 29, 30, 31, 32, 33, 34, 35, 36, 37, 38, 39, 40, 41, 42, 43, 44, 45, 46, 47, 48, 49, 50, 51, 52, 53, 54, 55, 56, 57, 58, 59, 60, 61, 62, 63, 64, 65, 66, 67, 68, 69, 70, 71, 72, 73, 74, 75, 76, 77, 78, 79, 80, 81, 82, 83, 84, 85, 86, 87, 88, 89, 90, 91, 92, 93, 94, 95, 96, 97, 98, 99, 100, 101, 102, 103, 104, 105, 106, 107, 108, 109, 110, 111, 112, 113, 114, 115, 116, 117, 118, 119, 120, 121, 122, 123, 124, 125, 126, 127, 128, 129, 130, 131, 132, 133, 134, 135, 136, 137, 138, 139, 140, 141, 142, 143, 144, 145, 146, 147, 148, 149, 150, 151, 152, 153, 154, 155, 156, 157, 158, 159, 160, 161, 162, 163, 164, 165, 166, 167, 168, 169, 170, 171, 172, 173, 174, 175, 176, 177, 178, 179, 180, 181, 182, 183, 184, 185, 186, 187, 188, 189, 190, 191, 192, 193, 194, 195, 196, 197, 198, 199, 200, 201, 202, 203, 204, 205, 206, 207, 208, 209, 210, 211, 212, 213, 214, 215, 216, 217, 218, 219, 220, 221, 222, 223, 224, 225, 226, 227, 228, 229, 230, 231, 232, 233, 234, 235, 236, 237, 238, 239, 240, 241, 242, 243, 244, 245, 246, 247, 248, 249, 250, 251, 252, 253, 254, 255, 256, 257, 258, 259, 260, 261, 262, 263, 264, 265, 266, 267, 268, 269, 270, 271, 272, 273, 274, 275, 276, 277, 278, 279, 280, 281, 282, 283, 284, 285, 286, 287, 288, 289, 290, 291, 292, 293, 294, 295, 296, 297, 298, 299, 300, 301, 302, 303, 304, 305, 306, 307, 308, 309, 310, 311, 312, 313, 314, 315, 316, 317, 318, 319, 320, 321, 322, 323, 324, 325, 326, 327, 328, 329, 330, 331, 332, 333, 334, 335, 336, 337, 338, 339, 340, 341, 342, 343, 344, 345, 346, 347, 348, 349, 350, 351, 352, 353, 354, 355, 356],
      "AcquisitionTime": ["191320.010000", "191321.010000", "191322.010000", "191323.010000", "191324.010000", "191325.010000", "191326.010000", "191327.010000", "191328.010000", "191329.010000", "191330.010000", "191331.010000", "191332.010000", "191333.010000", "191334.010000", "191335.010000", "191336.010000", "191337.010000", "191338.010000", "191339.010000", "191340.010000", "191341.010000", "191342.010000", "191343.010000", "191344.010000", "191345.010000", "191346.010000", "191347.010000", "191348.010000", "191349.010000", "191350.010000", "191351.010000", "191352.010000", "191353.010000", "191354.010000", "191355.010000", "191356.010000", "191357.010000", "191358.010000", "191359.010000", "191400.010000", "191401.010000", "191402.010000", "191403.010000", "191404.010000", "191405.010000", "191406.010000", "191407.010000", "191408.010000", "191409.010000", "191410.010000", "191411.010000", "191412.010000", "191413.010000", "191414.010000", "191415.010000", "191416.010000", "191417.010000", "191418.010000", "191419.010000", "191420.010000", "191421.010000", "191422.010000", "191423.010000", "191424.010000", "191425.010000", "191426.010000", "191427.010000", "191428.010000", "191429.010000", "191430.010000", "191431.010000", "191432.010000", "191433.010000", "191434.010000", "191435.010000", "191436.010000", "191437.010000", "191438.010000", "191439.010000", "191440.010000", "191441.010000", "191442.010000", "191443.010000", "191444.010000", "191445.010000", "191446.010000", "191447.010000", "191448.010000", "191449.010000", "191450.010000", "191451.010000", "191452.010000", "191453.010000", "191454.010000", "191455.010000", "191456.010000", "191457.010000", "191458.010000", "191459.010000", "191500.010000", "191501.010000", "191502.010000", "191503.010000", "191504.010000", "191505.010000", "191506.010000", "191507.010000", "191508.010000", "191509.010000", "191510.010000", "191511.010000", "191512.010000", "191513.010000", "191514.010000", "191515.010000", "191516.010000", "191517.010000", "191518.010000", "191519.010000", "191520.010000", "191521.010000", "191522.010000", "191523.010000", "191524.010000", "191525.010000", "191526.010000", "191527.010000", "191528.010000", "191529.010000", "191530.010000", "191531.010000", "191532.010000", "191533.010000", "191534.010000", "191535.010000", "191536.010000", "191537.010000", "191538.010000", "191539.010000", "191540.010000", "191541.010000", "191542.010000", "191543.010000", "191544.010000", "191545.010000", "191546.010000", "191547.010000", "191548.010000", "191549.010000", "191550.010000", "191551.010000", "191552.010000", "191553.010000", "191554.010000", "191555.010000", "191556.010000", "191557.010000", "191558.010000", "191559.010000", "191600.010000", "191601.010000", "191602.010000", "191603.010000", "191604.010000", "191605.010000", "191606.010000", "191607.010000", "191608.010000", "191609.010000", "191610.010000", "191611.010000", "191612.010000", "191613.010000", "191614.010000", "191615.010000", "191616.010000", "191617.010000", "191618.010000", "191619.010000", "191620.010000", "191621.010000", "191622.010000", "191623.010000", "191624.010000", "191625.010000", "191626.010000", "191627.010000", "191628.010000", "191629.010000", "191630.010000", "191631.010000", "191632.010000", "191633.010000", "191634.010000", "191635.010000", "191636.010000", "191637.010000", "191638.010000", "191639.010000", "191640.010000", "191641.010000", "191642.010000", "191643.010000", "191644.010000", "191645.010000", "191646.010000", "191647.010000", "191648.010000", "191649.010000", "191650.010000", "191651.010000", "191652.010000", "191653.010000", "191654.010000", "191655.010000", "191656.010000", "191657.010000", "191658.010000", "191659.010000", "191700.010000", "191701.010000", "191702.010000", "191703.010000", "191704.010000", "191705.010000", "191706.010000", "191707.010000", "191708.010000", "191709.010000", "191710.010000", "191711.010000", "191712.010000", "191713.010000", "191714.010000", "191715.010000", "191716.010000", "191717.010000", "191718.010000", "191719.010000", "191720.010000", "191721.010000", "191722.010000", "191723.010000", "191724.010000", "191725.010000", "191726.010000", "191727.010000", "191728.010000", "191729.010000", "191730.010000", "191731.010000", "191732.010000", "191733.010000", "191734.010000", "191735.010000", "191736.010000", "191737.010000", "191738.010000", "191739.010000", "191740.010000", "191741.010000", "191742.010000", "191743.010000", "191744.010000", "191745.010000", "191746.010000", "191747.010000", "191748.010000", "191749.010000", "191750.010000", "191751.010000", "191752.010000", "191753.010000", "191754.010000", "191755.010000", "191756.010000", "191757.010000", "191758.010000", "191759.010000", "191800.010000", "191801.010000", "191802.010000", "191803.010000", "191804.010000", "191805.010000", "191806.010000", "191807.010000", "191808.010000", "191809.010000", "191810.010000", "191811.010000", "191812.010000", "191813.010000", "191814.010000", "191815.010000", "191816.010000", "191817.010000", "191818.010000", "191819.010000", "191820.010000", "191821.010000", "191822.010000", "191823.010000", "191824.010000", "191825.010000", "191826.010000", "191827.010000", "191828.010000", "191829.010000", "191830.010000", "191831.010000", "191832.010000", "191833.010000", "191834.010000", "191835.010000", "191836.010000", "191837.010000", "191838.010000", "191839.010000", "191840.010000", "191841.010000", "191842.010000", "191843.010000", "191844.010000", "191845.010000", "191846.010000", "191847.010000", "191848.010000", "191849.010000", "191850.010000", "191851.010000", "191852.010000", "191853.010000", "191854.010000", "191855.010000", "191856.010000", "191857.010000", "191858.010000", "191859.010000", "191900.010000", "191901.010000", "191902.010000", "191903.010000", "191904.010000", "191905.010000", "191906.010000", "191907.010000", "191908.010000", "191909.010000", "191910.010000", "191911.010000", "191912.010000", "191913.010000", "191914.010000", "191915.010000"],
      "ContentTime": ["191401.400000", "191401.409000", "191401.411000", "191401.414000", "191401.416000", "191401.419000", "191401.421000", "191401.424000", "191401.426000", "191401.429000", "191401.431000", "191401.434000", "191401.436000", "191401.438000", "191401.441000", "191401.443000", "191401.446000", "191401.448000", "191401.451000", "191401.453000", "191401.456000", "191401.458000", "191401.460000", "191401.463000", "191401.465000", "191401.468000", "191401.470000", "191401.473000", "191401.475000", "191401.478000", "191401.480000", "191401.483000", "191401.485000", "191401.487000", "191401.490000", "191401.492000", "191401.495000", "191401.497000", "191401.500000", "191401.502000", "191421.373000", "191421.375000", "191421.378000", "191421.380000", "191421.383000", "191421.385000", "191421.388000", "191421.390000", "191421.393000", "191421.395000", "191421.398000", "191421.400000", "191421.403000", "191421.405000", "191421.408000", "191421.410000", "191421.413000", "191421.415000", "191421.417000", "191421.420000", "191441.373000", "191441.376000", "191441.379000", "191441.381000", "191441.383000", "191441.386000", "191441.388000", "191441.391000", "191441.393000", "191441.396000", "191441.398000", "191441.401000", "191441.403000", "191441.406000", "191441.408000", "191441.410000", "191441.413000", "191441.416000", "191441.418000", "191441.420000", "191501.372000", "191501.375000", "191501.378000", "191501.380000", "191501.383000", "191501.385000", "191501.387000", "191501.390000", "191501.392000", "191501.395000", "191501.397000", "191501.400000", "191501.402000", "191501.405000", "191501.407000", "191501.410000", "191501.412000", "191501.415000", "191501.417000", "191501.420000", "191521.372000", "191521.375000", "191521.378000", "191521.380000", "191521.383000", "191521.385000", "191521.387000", "191521.390000", "191521.392000", "191521.395000", "191521.397000", "191521.400000", "191521.402000", "191521.405000", "191521.407000", "191521.410000", "191521.412000", "191521.415000", "191521.417000", "191521.419000", "191541.373000", "191541.375000", "191541.378000", "191541.384000", "191541.386000", "191541.389000", "191541.391000", "191541.393000", "191541.396000", "191541.398000", "191541.401000", "191541.403000", "191541.406000", "191541.408000", "191541.410000", "191541.413000", "191541.415000", "191541.418000", "191541.433000", "191541.435000", "191601.373000", "191601.375000", "191601.378000", "191601.380000", "191601.383000", "191601.385000", "191601.388000", "191601.390000", "191601.392000", "191601.395000", "191601.397000", "191601.400000", "191601.402000", "191601.405000", "191601.407000", "191601.410000", "191601.412000", "191601.415000", "191601.417000", "191601.420000", "191621.372000", "191621.383000", "191621.386000", "191621.388000", "191621.391000", "191621.393000", "191621.396000", "191621.398000", "191621.401000", "191621.403000", "191621.406000", "191621.408000", "191621.411000", "191621.413000", "191621.415000", "191621.418000", "191621.420000", "191621.423000", "191621.425000", "191621.428000", "191641.372000", "191641.375000", "191641.377000", "191641.380000", "191641.383000", "191641.385000", "191641.387000", "191641.390000", "191641.392000", "191641.395000", "191641.397000", "191641.400000", "191641.402000", "191641.405000", "191641.407000", "191641.410000", "191641.412000", "191641.414000", "191641.417000", "191641.419000", "191701.374000", "191701.376000", "191701.379000", "191701.381000", "191701.384000", "191701.386000", "191701.389000", "191701.391000", "191701.394000", "191701.396000", "191701.398000", "191701.401000", "191701.403000", "191701.406000", "191701.408000", "191701.411000", "191701.413000", "191701.416000", "191701.418000", "191701.420000", "191721.373000", "191721.375000", "191721.378000", "191721.380000", "191721.383000", "191721.385000", "191721.388000", "191721.390000", "191721.393000", "191721.395000", "191721.398000", "191721.400000", "191721.402000", "191721.405000", "191721.407000", "191721.410000", "191721.412000", "191721.415000", "191721.417000", "191721.420000", "191741.372000", "191741.375000", "191741.377000", "191741.380000", "191741.383000", "191741.385000", "191741.388000", "191741.390000", "191741.393000", "191741.395000", "191741.398000", "191741.400000", "191741.402000", "191741.405000", "191741.407000", "191741.410000", "191741.412000", "191741.415000", "191741.417000", "191741.420000", "191801.372000", "191801.375000", "191801.378000", "191801.380000", "191801.383000", "191801.385000", "191801.387000", "191801.390000", "191801.392000", "191801.395000", "191801.397000", "191801.400000", "191801.402000", "191801.404000", "191801.407000", "191801.409000", "191801.412000", "191801.414000", "191801.417000", "191801.420000", "191821.372000", "191821.375000", "191821.378000", "191821.380000", "191821.382000", "191821.385000", "191821.387000", "191821.390000", "191821.392000", "191821.395000", "191821.397000", "191821.400000", "191821.402000", "191821.405000", "191821.407000", "191821.410000", "191821.412000", "191821.414000", "191821.417000", "191821.419000", "191841.373000", "191841.375000", "191841.378000", "191841.380000", "191841.383000", "191841.385000", "191841.388000", "191841.390000", "191841.393000", "191841.395000", "191841.398000", "191841.400000", "191841.403000", "191841.405000", "191841.408000", "191841.410000", "191841.412000", "191841.415000", "191841.417000", "191841.420000", "191901.372000", "191901.375000", "191901.378000", "191901.380000", "191901.383000", "191901.385000", "191901.388000", "191901.390000", "191901.393000", "191901.395000", "191901.398000", "191901.400000", "191901.402000", "191901.405000", "191901.407000", "191901.410000", "191901.412000", "191901.415000", "191901.417000", "191901.420000", "191916.968000", "191916.970000", "191916.973000", "191916.976000", "191916.978000", "191916.981000", "191916.984000", "191916.986000", "191916.989000", "191916.991000", "191916.994000", "191916.996000", "191917.000000", "191917.002000", "191917.013000", "191917.015000"],
      "InstanceCreationTime": ["191401.400000", "191401.409000", "191401.411000", "191401.414000", "191401.416000", "191401.419000", "191401.421000", "191401.424000", "191401.426000", "191401.429000", "191401.431000", "191401.434000", "191401.436000", "191401.438000", "191401.441000", "191401.443000", "191401.446000", "191401.448000", "191401.451000", "191401.453000", "191401.456000", "191401.458000", "191401.460000", "191401.463000", "191401.465000", "191401.468000", "191401.470000", "191401.473000", "191401.475000", "191401.478000", "191401.480000", "191401.483000", "191401.485000", "191401.487000", "191401.490000", "191401.492000", "191401.495000", "191401.497000", "191401.500000", "191401.502000", "191421.373000", "191421.375000", "191421.378000", "191421.380000", "191421.383000", "191421.385000", "191421.388000", "191421.390000", "191421.393000", "191421.395000", "191421.398000", "191421.400000", "191421.403000", "191421.405000", "191421.408000", "191421.410000", "191421.413000", "191421.415000", "191421.417000", "191421.420000", "191441.373000", "191441.376000", "191441.379000", "191441.381000", "191441.383000", "191441.386000", "191441.388000", "191441.391000", "191441.393000", "191441.396000", "191441.398000", "191441.401000", "191441.403000", "191441.406000", "191441.408000", "191441.410000", "191441.413000", "191441.416000", "191441.418000", "191441.420000", "191501.372000", "191501.375000", "191501.378000", "191501.380000", "191501.383000", "191501.385000", "191501.387000", "191501.390000", "191501.392000", "191501.395000", "191501.397000", "191501.400000", "191501.402000", "191501.405000", "191501.407000", "191501.410000", "191501.412000", "191501.415000", "191501.417000", "191501.420000", "191521.372000", "191521.375000", "191521.378000", "191521.380000", "191521.383000", "191521.385000", "191521.387000", "191521.390000", "191521.392000", "191521.395000", "191521.397000", "191521.400000", "191521.402000", "191521.405000", "191521.407000", "191521.410000", "191521.412000", "191521.415000", "191521.417000", "191521.419000", "191541.373000", "191541.375000", "191541.378000", "191541.384000", "191541.386000", "191541.389000", "191541.391000", "191541.393000", "191541.396000", "191541.398000", "191541.401000", "191541.403000", "191541.406000", "191541.408000", "191541.410000", "191541.413000", "191541.415000", "191541.418000", "191541.433000", "191541.435000", "191601.373000", "191601.375000", "191601.378000", "191601.380000", "191601.383000", "191601.385000", "191601.388000", "191601.390000", "191601.392000", "191601.395000", "191601.397000", "191601.400000", "191601.402000", "191601.405000", "191601.407000", "191601.410000", "191601.412000", "191601.415000", "191601.417000", "191601.420000", "191621.372000", "191621.383000", "191621.386000", "191621.388000", "191621.391000", "191621.393000", "191621.396000", "191621.398000", "191621.401000", "191621.403000", "191621.406000", "191621.408000", "191621.411000", "191621.413000", "191621.415000", "191621.418000", "191621.420000", "191621.423000", "191621.425000", "191621.428000", "191641.372000", "191641.375000", "191641.377000", "191641.380000", "191641.383000", "191641.385000", "191641.387000", "191641.390000", "191641.392000", "191641.395000", "191641.397000", "191641.400000", "191641.402000", "191641.405000", "191641.407000", "191641.410000", "191641.412000", "191641.414000", "191641.417000", "191641.419000", "191701.374000", "191701.376000", "191701.379000", "191701.381000", "191701.384000", "191701.386000", "191701.389000", "191701.391000", "191701.394000", "191701.396000", "191701.398000", "191701.401000", "191701.403000", "191701.406000", "191701.408000", "191701.411000", "191701.413000", "191701.416000", "191701.418000", "191701.420000", "191721.373000", "191721.375000", "191721.378000", "191721.380000", "191721.383000", "191721.385000", "191721.388000", "191721.390000", "191721.393000", "191721.395000", "191721.398000", "191721.400000", "191721.402000", "191721.405000", "191721.407000", "191721.410000", "191721.412000", "191721.415000", "191721.417000", "191721.420000", "191741.372000", "191741.375000", "191741.377000", "191741.380000", "191741.383000", "191741.385000", "191741.388000", "191741.390000", "191741.393000", "191741.395000", "191741.398000", "191741.400000", "191741.402000", "191741.405000", "191741.407000", "191741.410000", "191741.412000", "191741.415000", "191741.417000", "191741.420000", "191801.372000", "191801.375000", "191801.378000", "191801.380000", "191801.383000", "191801.385000", "191801.387000", "191801.390000", "191801.392000", "191801.395000", "191801.397000", "191801.400000", "191801.402000", "191801.404000", "191801.407000", "191801.409000", "191801.412000", "191801.414000", "191801.417000", "191801.420000", "191821.372000", "191821.375000", "191821.378000", "191821.380000", "191821.382000", "191821.385000", "191821.387000", "191821.390000", "191821.392000", "191821.395000", "191821.397000", "191821.400000", "191821.402000", "191821.405000", "191821.407000", "191821.410000", "191821.412000", "191821.414000", "191821.417000", "191821.419000", "191841.373000", "191841.375000", "191841.378000", "191841.380000", "191841.383000", "191841.385000", "191841.388000", "191841.390000", "191841.393000", "191841.395000", "191841.398000", "191841.400000", "191841.403000", "191841.405000", "191841.408000", "191841.410000", "191841.412000", "191841.415000", "191841.417000", "191841.420000", "191901.372000", "191901.375000", "191901.378000", "191901.380000", "191901.383000", "191901.385000", "191901.388000", "191901.390000", "191901.393000", "191901.395000", "191901.398000", "191901.400000", "191901.402000", "191901.405000", "191901.407000", "191901.410000", "191901.412000", "191901.415000", "191901.417000", "191901.420000", "191916.968000", "191916.970000", "191916.973000", "191916.976000", "191916.978000", "191916.981000", "191916.984000", "191916.986000", "191916.989000", "191916.991000", "191916.994000", "191916.996000", "191917.000000", "191917.002000", "191917.013000", "191917.015000"],
      "InstanceNumber": [1, 2, 3, 4, 5, 6, 7, 8, 9, 10, 11, 12, 13, 14, 15, 16, 17, 18, 19, 20, 21, 22, 23, 24, 25, 26, 27, 28, 29, 30, 31, 32, 33, 34, 35, 36, 37, 38, 39, 40, 41, 42, 43, 44, 45, 46, 47, 48, 49, 50, 51, 52, 53, 54, 55, 56, 57, 58, 59, 60, 61, 62, 63, 64, 65, 66, 67, 68, 69, 70, 71, 72, 73, 74, 75, 76, 77, 78, 79, 80, 81, 82, 83, 84, 85, 86, 87, 88, 89, 90, 91, 92, 93, 94, 95, 96, 97, 98, 99, 100, 101, 102, 103, 104, 105, 106, 107, 108, 109, 110, 111, 112, 113, 114, 115, 116, 117, 118, 119, 120, 121, 122, 123, 124, 125, 126, 127, 128, 129, 130, 131, 132, 133, 134, 135, 136, 137, 138, 139, 140, 141, 142, 143, 144, 145, 146, 147, 148, 149, 150, 151, 152, 153, 154, 155, 156, 157, 158, 159, 160, 161, 162, 163, 164, 165, 166, 167, 168, 169, 170, 171, 172, 173, 174, 175, 176, 177, 178, 179, 180, 181, 182, 183, 184, 185, 186, 187, 188, 189, 190, 191, 192, 193, 194, 195, 196, 197, 198, 199, 200, 201, 202, 203, 204, 205, 206, 207, 208, 209, 210, 211, 212, 213, 214, 215, 216, 217, 218, 219, 220, 221, 222, 223, 224, 225, 226, 227, 228, 229, 230, 231, 232, 233, 234, 235, 236, 237, 238, 239, 240, 241, 242, 243, 244, 245, 246, 247, 248, 249, 250, 251, 252, 253, 254, 255, 256, 257, 258, 259, 260, 261, 262, 263, 264, 265, 266, 267, 268, 269, 270, 271, 272, 273, 274, 275, 276, 277, 278, 279, 280, 281, 282, 283, 284, 285, 286, 287, 288, 289, 290, 291, 292, 293, 294, 295, 296, 297, 298, 299, 300, 301, 302, 303, 304, 305, 306, 307, 308, 309, 310, 311, 312, 313, 314, 315, 316, 317, 318, 319, 320, 321, 322, 323, 324, 325, 326, 327, 328, 329, 330, 331, 332, 333, 334, 335, 336, 337, 338, 339, 340, 341, 342, 343, 344, 345, 346, 347, 348, 349, 350, 351, 352, 353, 354, 355, 356],
      "LargestImagePixelValue": [12114, 11828, 11611, 11730, 11657, 11653, 11492, 11479, 11386, 11443, 11542, 11465, 11557, 11454, 11481, 11459, 11537, 11371, 11417, 11537, 11552, 11484, 11397, 11498, 11567, 11502, 11415, 11510, 11362, 11594, 11397, 11384, 11624, 11268, 11495, 11393, 11403, 11342, 11406, 11313, 11525, 11542, 11355, 11470, 11468, 11348, 11415, 11153, 11289, 11356, 11294, 11564, 11376, 11280, 11383, 11322, 11385, 11372, 11134, 11372, 11381, 11365, 11498, 11316, 11217, 11511, 11166, 11200, 11398, 11279, 11171, 11442, 11222, 11227, 11427, 11245, 11355, 11366, 11157, 11301, 11502, 11189, 11371, 11211, 11241, 11336, 11108, 11227, 11472, 11101, 11293, 11395, 11108, 11313, 11312, 11104, 11416, 11348, 11141, 11355, 11172, 11155, 11440, 11316, 11139, 11414, 11208, 11228, 11436, 11215, 11367, 11319, 11173, 11462, 11462, 11115, 11351, 11309, 11197, 11444, 11109, 11472, 11267, 11245, 11242, 11021, 11440, 11240, 11136, 11487, 11412, 11154, 11332, 11677, 11502, 11698, 11611, 11430, 11533, 11575, 11411, 11389, 11441, 11420, 11519, 11706, 11466, 11440, 11600, 11421, 11269, 11323, 11402, 11448, 11588, 11378, 11516, 11384, 11366, 11453, 11232, 11436, 11378, 11468, 11422, 11325, 11447, 11420, 11303, 11385, 11409, 11586, 11293, 11293, 11341, 11425, 11321, 11222, 11391, 11435, 11391, 11299, 11535, 11459, 11334, 11441, 11294, 11337, 11378, 11439, 11487, 11443, 11442, 11441, 11441, 11391, 11385, 11288, 11117, 11327, 11425, 11171, 11321, 11389, 11139, 11272, 11398, 11206, 11306, 11383, 11216, 11196, 11221, 11147, 11172, 11133, 11472, 11205, 11302, 11566, 11192, 11265, 11331, 11331, 11361, 11036, 11169, 11150, 11269, 11173, 11134, 11251, 11219, 11275, 11258, 11184, 11256, 11365, 11087, 11025, 11135, 11214, 11039, 11297, 11273, 11044, 11050, 11370, 11336, 11187, 11320, 10993, 11225, 11178, 11214, 11358, 11495, 11066, 11223, 11189, 11160, 11316, 11273, 11232, 11719, 11384, 11198, 11383, 11343, 11214, 11301, 11241, 11307, 11394, 11279, 11184, 11430, 11337, 11321, 11350, 11312, 11382, 11356, 11151, 11427, 11276, 11111, 11331, 11415, 11356, 11322, 11266, 11289, 11297, 11212, 11281, 11270, 11185, 11148, 11500, 11313, 11266, 11327, 11405, 11211, 11381, 11509, 11228, 11288, 11393, 11239, 11436, 11369, 11234, 11355, 11315, 11376, 11378, 11357, 11304, 11420, 11188, 11302, 11477, 11226, 11203, 11418, 11319, 11223, 11537, 11400, 11313, 11483, 11491, 11364, 11445, 11327, 11188, 11402, 11280, 11477, 11443, 11457, 11299, 11229, 11368, 11448, 11576, 11386, 11352, 11419, 11519, 11286, 11266, 11466, 11447],
