{
  "AcquisitionMatrixPE": 106,
  "AcquisitionNumber": 1,
  "AcquisitionTime": "18:57:18.162500",
  "BandwidthPerPixelPhaseEncode": 13.477,
  "BaseResolution": 106,
  "BodyPartExamined": "BRAIN",
  "CoilCombinationMethod": "Sum of Squares",
  "ConsistencyInfo": "N4_VE11C_LATEST_20160120",
  "ConversionSoftware": "dcm2niix",
  "ConversionSoftwareVersion": "v1.0.20220720",
  "DerivedVendorReportedEchoSpacing": 0.000700005,
  "DeviceSerialNumber": "166108",
  "DwellTime": 2.6e-06,
  "EchoTime": 0.03,
  "EchoTrainLength": 80,
  "EffectiveEchoSpacing": 0.000700005,
  "FlipAngle": 62,
  "HeudiconvVersion": "1.3.0",
  "ImageComments": "Unaliased MB4/PE3/LB",
  "ImageOrientationPatientDICOM": [1, 0, 0, 0, 0.998135, -0.0610485],
  "ImageOrientationText": "Tra>Cor(-3.5)",
  "ImageType": [
    "ORIGINAL",
    "PRIMARY",
    "M",
    "MB",
    "ND",
    "MOSAIC"
],
  "ImagingFrequency": 123.244,
  "InPlanePhaseEncodingDirectionDICOM": "COL",
  "InstitutionAddress": "Bedford Way 26,London,London,GB,WC1H 0AP",
  "InstitutionName": "University College",
  "InstitutionalDepartmentName": "Department",
  "MRAcquisitionType": "2D",
  "MagneticFieldStrength": 3,
  "Manufacturer": "Siemens",
  "ManufacturersModelName": "Prisma",
  "MatrixCoilMode": "SENSE",
  "Modality": "MR",
  "MultibandAccelerationFactor": 4,
  "NonlinearGradientCorrection": false,
  "PartialFourier": 0.75,
  "PatientPosition": "HFS",
  "PercentPhaseFOV": 100,
  "PercentSampling": 100,
  "PhaseEncodingDirection": "j-",
  "PhaseEncodingSteps": 80,
  "PhaseResolution": 1,
  "PixelBandwidth": 1815,
  "ProcedureStepDescription": "Egor^MovieProject2",
  "ProtocolName": "func-bold_task-motor_run-01",
  "PulseSequenceDetails": "%CustomerSeq%\\cmrr_mbep2d_bold",
  "ReceiveCoilActiveElements": "HEA;HEP",
  "ReceiveCoilName": "Head_32",
  "ReconMatrixPE": 106,
  "RepetitionTime": 1,
  "SAR": 0.0353217,
  "ScanOptions": "PFP\\FS\\EXT",
  "ScanningSequence": "EP",
  "SequenceName": "epfid2d1_106",
  "SequenceVariant": "SK\\SS",
  "SeriesDescription": "func-bold_task-motor_run-01",
  "SeriesNumber": 6,
  "ShimSetting": [-1579, 636, 7371, 126, -67, 224, 41, -23],
  "SliceThickness": 2,
  "SliceTiming": [0, 0.535, 0.09, 0.625, 0.18, 0.7125, 0.2675, 0.8025, 0.3575, 0.8925, 0.4475, 0, 0.535, 0.09, 0.625, 0.18, 0.7125, 0.2675, 0.8025, 0.3575, 0.8925, 0.4475, 0, 0.535, 0.09, 0.625, 0.18, 0.7125, 0.2675, 0.8025, 0.3575, 0.8925, 0.4475, 0, 0.535, 0.09, 0.625, 0.18, 0.7125, 0.2675, 0.8025, 0.3575, 0.8925, 0.4475],
  "SoftwareVersions": "syngo MR E11",
  "SpacingBetweenSlices": 2,
  "StationName": "AWP166108",
  "TaskName": "somatotopy",
  "TotalReadoutTime": 0.0735005,
  "TxRefAmp": 218.921,
  "WipMemBlock": "1eeffa60-f529-48d1-a397-4186dd0d141b||Sequence: R016 ve11c/master r/e634e98; Dec 19 2017 11:00:25 by eja",
  "dcmmeta_affine": [
    [-2.0, 0.0, 0.0, 106.0],
    [0.0, 1.9962695837020874, -0.12209708243608475, -94.458251953125],
    [0.0, 0.12209708243608475, 1.996269702911377, -5.144126892089844],
    [0.0, 0.0, 0.0, 1.0]
],
  "dcmmeta_reorient_transform": [
    [0.0, -1.0, 0.0, 105.0],
    [1.0, 0.0, 0.0, 0.0],
    [0.0, 0.0, 1.0, 0.0],
    [0.0, 0.0, 0.0, 1.0]
],
  "dcmmeta_shape": [106, 106, 44, 467],
  "dcmmeta_slice_dim": 2,
  "dcmmeta_version": 0.6,
  "global": {
    "const": {
      "AcquisitionMatrix": [106, 0, 0, 106],
      "AngioFlag": "N",
      "BitsAllocated": 16,
      "BitsStored": 16,
      "BodyPartExamined": "BRAIN",
      "CardiacNumberOfImages": 1,
      "Columns": 742,
      "EchoNumbers": 1,
      "EchoTime": 30.0,
      "EchoTrainLength": 80,
      "FlipAngle": 62.0,
      "HighBit": 15,
      "ImageOrientationPatient": [1.0, 0.0, 0.0, 0.0, 0.99813479839876, -0.0610485399126],
      "ImagePositionPatient": [-742.0, -749.96378919545, 46.502938099178],
      "ImageType": [
        "ORIGINAL",
        "PRIMARY",
        "M",
        "MB",
        "ND",
        "MOSAIC"
],
      "ImagedNucleus": "1H",
      "ImagingFrequency": 123.243681,
      "InPlanePhaseEncodingDirection": "COL",
      "MRAcquisitionType": "2D",
      "MagneticFieldStrength": 3.0,
      "Manufacturer": "SIEMENS",
      "ManufacturerModelName": "Prisma",
      "Modality": "MR",
      "NominalInterval": 0,
      "NumberOfAverages": 1.0,
      "NumberOfPhaseEncodingSteps": 80,
      "PercentPhaseFieldOfView": 100.0,
      "PercentSampling": 100.0,
      "PerformedProcedureStepStartTime": "182502.395000",
      "PhotometricInterpretation": "MONOCHROME2",
      "PixelBandwidth": 1815.0,
      "PixelRepresentation": 0,
      "PixelSpacing": [2.0, 2.0],
      "ProtocolName": "func-bold_task-motor_run-01",
      "RepetitionTime": 1000.0,
      "Rows": 742,
      "SAR": 0.03532172011198,
      "SamplesPerPixel": 1,
      "ScanOptions": [
        "PFP",
        "FS",
        "EXT"
],
      "ScanningSequence": "EP",
      "SequenceName": "epfid2d1_106",
      "SequenceVariant": [
        "SK",
        "SS"
],
      "SeriesDescription": "func-bold_task-motor_run-01",
      "SeriesNumber": 6,
      "SeriesTime": "185757.678000",
      "SliceLocation": 0.63200642683428,
      "SliceThickness": 2.0,
      "SmallestImagePixelValue": 0,
      "SoftwareVersions": "syngo MR E11",
      "SpacingBetweenSlices": 2.0000000783722,
      "SpecificCharacterSet": "ISO_IR 100",
      "StudyID": "1",
      "StudyTime": "182502.340000",
      "TransmitCoilName": "Body",
      "VariableFlipAngleFlag": "N",
      "WindowCenterWidthExplanation": "Algo1",
      "dBdt": 0.0},
    "slices": {}
  },
  "time": {
    "samples": {
      "AcquisitionNumber": [1, 2, 3, 4, 5, 6, 7, 8, 9, 10, 11, 12, 13, 14, 15, 16, 17, 18, 19, 20, 21, 22, 23, 24, 25, 26, 27, 28, 29, 30, 31, 32, 33, 34, 35, 36, 37, 38, 39, 40, 41, 42, 43, 44, 45, 46, 47, 48, 49, 50, 51, 52, 53, 54, 55, 56, 57, 58, 59, 60, 61, 62, 63, 64, 65, 66, 67, 68, 69, 70, 71, 72, 73, 74, 75, 76, 77, 78, 79, 80, 81, 82, 83, 84, 85, 86, 87, 88, 89, 90, 91, 92, 93, 94, 95, 96, 97, 98, 99, 100, 101, 102, 103, 104, 105, 106, 107, 108, 109, 110, 111, 112, 113, 114, 115, 116, 117, 118, 119, 120, 121, 122, 123, 124, 125, 126, 127, 128, 129, 130, 131, 132, 133, 134, 135, 136, 137, 138, 139, 140, 141, 142, 143, 144, 145, 146, 147, 148, 149, 150, 151, 152, 153, 154, 155, 156, 157, 158, 159, 160, 161, 162, 163, 164, 165, 166, 167, 168, 169, 170, 171, 172, 173, 174, 175, 176, 177, 178, 179, 180, 181, 182, 183, 184, 185, 186, 187, 188, 189, 190, 191, 192, 193, 194, 195, 196, 197, 198, 199, 200, 201, 202, 203, 204, 205, 206, 207, 208, 209, 210, 211, 212, 213, 214, 215, 216, 217, 218, 219, 220, 221, 222, 223, 224, 225, 226, 227, 228, 229, 230, 231, 232, 233, 234, 235, 236, 237, 238, 239, 240, 241, 242, 243, 244, 245, 246, 247, 248, 249, 250, 251, 252, 253, 254, 255, 256, 257, 258, 259, 260, 261, 262, 263, 264, 265, 266, 267, 268, 269, 270, 271, 272, 273, 274, 275, 276, 277, 278, 279, 280, 281, 282, 283, 284, 285, 286, 287, 288, 289, 290, 291, 292, 293, 294, 295, 296, 297, 298, 299, 300, 301, 302, 303, 304, 305, 306, 307, 308, 309, 310, 311, 312, 313, 314, 315, 316, 317, 318, 319, 320, 321, 322, 323, 324, 325, 326, 327, 328, 329, 330, 331, 332, 333, 334, 335, 336, 337, 338, 339, 340, 341, 342, 343, 344, 345, 346, 347, 348, 349, 350, 351, 352, 353, 354, 355, 356, 357, 358, 359, 360, 361, 362, 363, 364, 365, 366, 367, 368, 369, 370, 371, 372, 373, 374, 375, 376, 377, 378, 379, 380, 381, 382, 383, 384, 385, 386, 387, 388, 389, 390, 391, 392, 393, 394, 395, 396, 397, 398, 399, 400, 401, 402, 403, 404, 405, 406, 407, 408, 409, 410, 411, 412, 413, 414, 415, 416, 417, 418, 419, 420, 421, 422, 423, 424, 425, 426, 427, 428, 429, 430, 431, 432, 433, 434, 435, 436, 437, 438, 439, 440, 441, 442, 443, 444, 445, 446, 447, 448, 449, 450, 451, 452, 453, 454, 455, 456, 457, 458, 459, 460, 461, 462, 463, 464, 465, 466, 467],
      "AcquisitionTime": ["185718.162500", "185719.162500", "185720.162500", "185721.162500", "185722.162500", "185723.162500", "185724.162500", "185725.162500", "185726.162500", "185727.162500", "185728.162500", "185729.162500", "185730.162500", "185731.162500", "185732.162500", "185733.162500", "185734.162500", "185735.162500", "185736.162500", "185737.162500", "185738.162500", "185739.162500", "185740.162500", "185741.162500", "185742.162500", "185743.162500", "185744.162500", "185745.162500", "185746.162500", "185747.162500", "185748.162500", "185749.162500", "185750.162500", "185751.162500", "185752.162500", "185753.162500", "185754.162500", "185755.162500", "185756.162500", "185757.162500", "185758.162500", "185759.162500", "185800.162500", "185801.162500", "185802.162500", "185803.162500", "185804.162500", "185805.162500", "185806.162500", "185807.162500", "185808.162500", "185809.162500", "185810.162500", "185811.162500", "185812.162500", "185813.162500", "185814.162500", "185815.162500", "185816.162500", "185817.162500", "185818.162500", "185819.162500", "185820.162500", "185821.162500", "185822.162500", "185823.162500", "185824.162500", "185825.162500", "185826.162500", "185827.162500", "185828.162500", "185829.162500", "185830.162500", "185831.162500", "185832.162500", "185833.162500", "185834.162500", "185835.162500", "185836.162500", "185837.162500", "185838.162500", "185839.162500", "185840.162500", "185841.162500", "185842.162500", "185843.162500", "185844.162500", "185845.162500", "185846.162500", "185847.162500", "185848.162500", "185849.162500", "185850.162500", "185851.162500", "185852.162500", "185853.162500", "185854.162500", "185855.162500", "185856.162500", "185857.162500", "185858.162500", "185859.162500", "185900.162500", "185901.162500", "185902.162500", "185903.162500", "185904.162500", "185905.162500", "185906.162500", "185907.162500", "185908.162500", "185909.162500", "185910.162500", "185911.162500", "185912.162500", "185913.162500", "185914.162500", "185915.162500", "185916.162500", "185917.162500", "185918.162500", "185919.162500", "185920.162500", "185921.162500", "185922.162500", "185923.162500", "185924.162500", "185925.162500", "185926.162500", "185927.162500", "185928.162500", "185929.162500", "185930.162500", "185931.162500", "185932.162500", "185933.162500", "185934.162500", "185935.162500", "185936.162500", "185937.162500", "185938.162500", "185939.162500", "185940.162500", "185941.162500", "185942.162500", "185943.162500", "185944.162500", "185945.162500", "185946.162500", "185947.162500", "185948.162500", "185949.162500", "185950.162500", "185951.162500", "185952.162500", "185953.162500", "185954.162500", "185955.162500", "185956.162500", "185957.162500", "185958.162500", "185959.162500", "190000.162500", "190001.162500", "190002.162500", "190003.162500", "190004.162500", "190005.162500", "190006.162500", "190007.162500", "190008.162500", "190009.162500", "190010.162500", "190011.162500", "190012.162500", "190013.162500", "190014.162500", "190015.162500", "190016.162500", "190017.162500", "190018.162500", "190019.162500", "190020.162500", "190021.162500", "190022.162500", "190023.162500", "190024.162500", "190025.162500", "190026.162500", "190027.162500", "190028.162500", "190029.162500", "190030.162500", "190031.162500", "190032.162500", "190033.162500", "190034.162500", "190035.162500", "190036.162500", "190037.162500", "190038.162500", "190039.162500", "190040.162500", "190041.162500", "190042.162500", "190043.162500", "190044.162500", "190045.162500", "190046.162500", "190047.162500", "190048.162500", "190049.162500", "190050.162500", "190051.162500", "190052.162500", "190053.162500", "190054.162500", "190055.162500", "190056.162500", "190057.162500", "190058.162500", "190059.162500", "190100.162500", "190101.162500", "190102.162500", "190103.162500", "190104.162500", "190105.162500", "190106.162500", "190107.162500", "190108.162500", "190109.162500", "190110.162500", "190111.162500", "190112.162500", "190113.162500", "190114.162500", "190115.162500", "190116.162500", "190117.162500", "190118.162500", "190119.162500", "190120.162500", "190121.162500", "190122.162500", "190123.162500", "190124.162500", "190125.162500", "190126.162500", "190127.162500", "190128.162500", "190129.162500", "190130.162500", "190131.162500", "190132.162500", "190133.162500", "190134.162500", "190135.162500", "190136.162500", "190137.162500", "190138.162500", "190139.162500", "190140.162500", "190141.162500", "190142.162500", "190143.162500", "190144.162500", "190145.162500", "190146.162500", "190147.162500", "190148.162500", "190149.162500", "190150.162500", "190151.162500", "190152.162500", "190153.162500", "190154.162500", "190155.162500", "190156.162500", "190157.162500", "190158.162500", "190159.162500", "190200.162500", "190201.162500", "190202.162500", "190203.162500", "190204.162500", "190205.162500", "190206.162500", "190207.162500", "190208.162500", "190209.162500", "190210.162500", "190211.162500", "190212.162500", "190213.162500", "190214.162500", "190215.162500", "190216.162500", "190217.162500", "190218.162500", "190219.162500", "190220.162500", "190221.162500", "190222.162500", "190223.162500", "190224.162500", "190225.162500", "190226.162500", "190227.162500", "190228.162500", "190229.162500", "190230.162500", "190231.162500", "190232.162500", "190233.162500", "190234.162500", "190235.162500", "190236.162500", "190237.162500", "190238.162500", "190239.162500", "190240.162500", "190241.162500", "190242.162500", "190243.162500", "190244.162500", "190245.162500", "190246.162500", "190247.162500", "190248.162500", "190249.162500", "190250.162500", "190251.162500", "190252.162500", "190253.162500", "190254.162500", "190255.162500", "190256.162500", "190257.162500", "190258.162500", "190259.162500", "190300.162500", "190301.162500", "190302.162500", "190303.162500", "190304.162500", "190305.162500", "190306.162500", "190307.162500", "190308.162500", "190309.162500", "190310.162500", "190311.162500", "190312.162500", "190313.162500", "190314.162500", "190315.162500", "190316.162500", "190317.162500", "190318.162500", "190319.162500", "190320.162500", "190321.162500", "190322.162500", "190323.162500", "190324.162500", "190325.162500", "190326.162500", "190327.162500", "190328.162500", "190329.162500", "190330.162500", "190331.162500", "190332.162500", "190333.162500", "190334.162500", "190335.162500", "190336.162500", "190337.162500", "190338.162500", "190339.162500", "190340.162500", "190341.162500", "190342.162500", "190343.162500", "190344.162500", "190345.162500", "190346.162500", "190347.162500", "190348.162500", "190349.162500", "190350.162500", "190351.162500", "190352.162500", "190353.162500", "190354.162500", "190355.162500", "190356.162500", "190357.162500", "190358.162500", "190359.162500", "190400.162500", "190401.162500", "190402.162500", "190403.162500", "190404.162500", "190405.162500", "190406.162500", "190407.162500", "190408.162500", "190409.162500", "190410.162500", "190411.162500", "190412.162500", "190413.162500", "190414.162500", "190415.162500", "190416.162500", "190417.162500", "190418.162500", "190419.162500", "190420.162500", "190421.162500", "190422.162500", "190423.162500", "190424.162500", "190425.162500", "190426.162500", "190427.162500", "190428.162500", "190429.162500", "190430.162500", "190431.162500", "190432.162500", "190433.162500", "190434.162500", "190435.162500", "190436.162500", "190437.162500", "190438.162500", "190439.162500", "190440.162500", "190441.162500", "190442.162500", "190443.162500", "190444.162500", "190445.162500", "190446.162500", "190447.162500", "190448.162500", "190449.162500", "190450.162500", "190451.162500", "190452.162500", "190453.162500", "190454.162500", "190455.162500", "190456.162500", "190457.162500", "190458.162500", "190459.162500", "190500.162500", "190501.162500", "190502.162500", "190503.162500", "190504.162500"],
      "ContentTime": ["185757.684000", "185757.687000", "185757.689000", "185757.692000", "185757.704000", "185757.706000", "185757.709000", "185757.711000", "185757.714000", "185757.716000", "185757.719000", "185757.721000", "185757.724000", "185757.727000", "185757.729000", "185757.732000", "185757.734000", "185757.737000", "185757.739000", "185757.742000", "185757.744000", "185757.747000", "185757.758000", "185757.761000", "185757.763000", "185757.766000", "185757.768000", "185757.771000", "185757.773000", "185757.776000", "185757.779000", "185757.781000", "185757.784000", "185757.786000", "185757.789000", "185757.791000", "185757.794000", "185757.796000", "185817.648000", "185817.651000", "185817.654000", "185817.656000", "185817.659000", "185817.661000", "185817.663000", "185817.666000", "185817.668000", "185817.671000", "185817.673000", "185817.676000", "185817.678000", "185817.680000", "185817.683000", "185817.685000", "185817.688000", "185817.690000", "185817.693000", "185817.698000", "185837.648000", "185837.651000", "185837.654000", "185837.656000", "185837.658000", "185837.661000", "185837.663000", "185837.666000", "185837.668000", "185837.671000", "185837.673000", "185837.675000", "185837.678000", "185837.680000", "185837.682000", "185837.685000", "185837.687000", "185837.690000", "185837.692000", "185837.695000", "185857.649000", "185857.652000", "185857.655000", "185857.657000", "185857.659000", "185857.662000", "185857.664000", "185857.667000", "185857.669000", "185857.672000", "185857.674000", "185857.676000", "185857.679000", "185857.681000", "185857.684000", "185857.686000", "185857.688000", "185857.691000", "185857.693000", "185857.696000", "185917.649000", "185917.652000", "185917.655000", "185917.657000", "185917.660000", "185917.662000", "185917.665000", "185917.667000", "185917.670000", "185917.672000", "185917.675000", "185917.677000", "185917.680000", "185917.682000", "185917.684000", "185917.687000", "185917.689000", "185917.701000", "185917.704000", "185917.706000", "185937.648000", "185937.651000", "185937.653000", "185937.656000", "185937.658000", "185937.661000", "185937.663000", "185937.666000", "185937.678000", "185937.681000", "185937.683000", "185937.686000", "185937.688000", "185937.690000", "185937.693000", "185937.695000", "185937.698000", "185937.700000", "185937.703000", "185937.705000", "185957.649000", "185957.651000", "185957.654000", "185957.656000", "185957.658000", "185957.661000", "185957.663000", "185957.666000", "185957.668000", "185957.671000", "185957.673000", "185957.676000", "185957.678000", "185957.681000", "185957.683000", "185957.685000", "185957.688000", "185957.690000", "185957.693000", "185957.695000", "190017.648000", "190017.651000", "190017.654000", "190017.656000", "190017.658000", "190017.661000", "190017.663000", "190017.666000", "190017.668000", "190017.671000", "190017.678000", "190017.680000", "190017.683000", "190017.686000", "190017.688000", "190017.691000", "190017.694000", "190017.696000", "190017.699000", "190017.701000", "190037.649000", "190037.651000", "190037.654000", "190037.656000", "190037.659000", "190037.661000", "190037.664000", "190037.666000", "190037.669000", "190037.671000", "190037.673000", "190037.676000", "190037.678000", "190037.681000", "190037.683000", "190037.686000", "190037.688000", "190037.691000", "190037.693000", "190037.696000", "190057.648000", "190057.651000", "190057.654000", "190057.656000", "190057.659000", "190057.661000", "190057.663000", "190057.666000", "190057.668000", "190057.671000", "190057.673000", "190057.676000", "190057.678000", "190057.681000", "190057.683000", "190057.686000", "190057.688000", "190057.691000", "190057.693000", "190057.696000", "190117.649000", "190117.652000", "190117.655000", "190117.657000", "190117.659000", "190117.662000", "190117.664000", "190117.667000", "190117.669000", "190117.672000", "190117.674000", "190117.677000", "190117.679000", "190117.681000", "190117.684000", "190117.694000", "190117.696000", "190117.698000", "190117.701000", "190117.703000", "190137.649000", "190137.652000", "190137.654000", "190137.657000", "190137.659000", "190137.662000", "190137.664000", "190137.667000", "190137.669000", "190137.672000", "190137.674000", "190137.677000", "190137.679000", "190137.682000", "190137.684000", "190137.687000", "190137.689000", "190137.692000", "190137.694000", "190137.697000", "190157.649000", "190157.651000", "190157.654000", "190157.656000", "190157.659000", "190157.661000", "190157.664000", "190157.666000", "190157.669000", "190157.671000", "190157.674000", "190157.676000", "190157.679000", "190157.681000", "190157.684000", "190157.686000", "190157.689000", "190157.691000", "190157.694000", "190157.696000", "190217.648000", "190217.651000", "190217.654000", "190217.656000", "190217.659000", "190217.661000", "190217.664000", "190217.666000", "190217.669000", "190217.671000", "190217.674000", "190217.676000", "190217.679000", "190217.681000", "190217.684000", "190217.686000", "190217.689000", "190217.691000", "190217.694000", "190217.696000", "190237.648000", "190237.651000", "190237.654000", "190237.656000", "190237.659000", "190237.661000", "190237.664000", "190237.666000", "190237.668000", "190237.671000", "190237.673000", "190237.676000", "190237.678000", "190237.681000", "190237.683000", "190237.686000", "190237.688000", "190237.690000", "190237.693000", "190237.695000", "190257.648000", "190257.651000", "190257.654000", "190257.656000", "190257.658000", "190257.661000", "190257.664000", "190257.666000", "190257.668000", "190257.671000", "190257.673000", "190257.676000", "190257.678000", "190257.681000", "190257.683000", "190257.686000", "190257.688000", "190257.691000", "190257.694000", "190257.696000", "190317.648000", "190317.651000", "190317.654000", "190317.656000", "190317.659000", "190317.661000", "190317.663000", "190317.666000", "190317.668000", "190317.671000", "190317.673000", "190317.676000", "190317.678000", "190317.681000", "190317.683000", "190317.686000", "190317.688000", "190317.691000", "190317.693000", "190317.696000", "190337.649000", "190337.652000", "190337.654000", "190337.657000", "190337.659000", "190337.662000", "190337.664000", "190337.667000", "190337.669000", "190337.672000", "190337.674000", "190337.677000", "190337.679000", "190337.681000", "190337.684000", "190337.686000", "190337.689000", "190337.691000", "190337.694000", "190337.696000", "190357.649000", "190357.652000", "190357.654000", "190357.657000", "190357.659000", "190357.662000", "190357.664000", "190357.667000", "190357.669000", "190357.672000", "190357.674000", "190357.676000", "190357.679000", "190357.681000", "190357.684000", "190357.686000", "190357.689000", "190357.691000", "190357.694000", "190357.696000", "190417.648000", "190417.651000", "190417.654000", "190417.656000", "190417.659000", "190417.661000", "190417.663000", "190417.666000", "190417.668000", "190417.671000", "190417.673000", "190417.676000", "190417.678000", "190417.681000", "190417.683000", "190417.685000", "190417.688000", "190417.690000", "190417.693000", "190417.695000", "190437.649000", "190437.651000", "190437.654000", "190437.656000", "190437.659000", "190437.661000", "190437.664000", "190437.666000", "190437.668000", "190437.671000", "190437.673000", "190437.676000", "190437.678000", "190437.681000", "190437.683000", "190437.685000", "190437.688000", "190437.690000", "190437.693000", "190437.695000", "190457.648000", "190457.651000", "190457.654000", "190457.656000", "190457.658000", "190457.661000", "190457.663000", "190457.666000", "190457.668000", "190457.671000", "190457.673000", "190457.676000", "190457.678000", "190457.680000", "190457.683000", "190457.685000", "190457.688000", "190457.690000", "190457.693000", "190457.695000", "190505.843000", "190505.847000", "190505.850000", "190505.853000", "190505.855000", "190505.858000", "190505.861000", "190505.863000", "190505.866000"],
