{
  "AcquisitionMatrixPE": 106,
  "AcquisitionNumber": 1,
  "AcquisitionTime": "12:33:48.517500",
  "BandwidthPerPixelPhaseEncode": 16.846,
  "BaseResolution": 106,
  "BodyPartExamined": "BRAIN",
  "CoilCombinationMethod": "Sum of Squares",
  "ConsistencyInfo": "N4_VE11C_LATEST_20160120",
  "ConversionSoftware": "dcm2niix",
  "ConversionSoftwareVersion": "v1.0.20220720",
  "DerivedVendorReportedEchoSpacing": 0.000560012,
  "DeviceSerialNumber": "166108",
  "DwellTime": 1.8e-06,
  "EchoTime": 0.0352,
  "EchoTrainLength": 106,
  "EffectiveEchoSpacing": 0.000560012,
  "FlipAngle": 60,
  "HeudiconvVersion": "1.3.0",
  "ImageComments": "Unaliased MB4/PE3/LB",
  "ImageOrientationPatientDICOM": [1, 0, 0, 0, 1, 0],
  "ImageOrientationText": "Tra",
  "ImageType": [
    "ORIGINAL",
    "PRIMARY",
    "M",
    "MB",
    "ND",
    "MOSAIC"
],
  "ImagingFrequency": 123.244,
  "InPlanePhaseEncodingDirectionDICOM": "COL",
  "InstitutionAddress": "Bedford Way 26,London,London,GB,WC1H 0AP",
  "InstitutionName": "University College",
  "InstitutionalDepartmentName": "Department",
  "MRAcquisitionType": "2D",
  "MagneticFieldStrength": 3,
  "Manufacturer": "Siemens",
  "ManufacturersModelName": "Prisma",
  "MatrixCoilMode": "SENSE",
  "Modality": "MR",
  "MultibandAccelerationFactor": 4,
  "NonlinearGradientCorrection": false,
  "PartialFourier": 1,
  "PatientPosition": "HFS",
  "PercentPhaseFOV": 100,
  "PercentSampling": 100,
  "PhaseEncodingDirection": "j-",
  "PhaseEncodingSteps": 106,
  "PhaseResolution": 1,
  "PixelBandwidth": 2620,
  "ProcedureStepDescription": "Egor^MovieProject2",
  "ProtocolName": "task-backtothefuture_run-3",
  "PulseSequenceDetails": "%CustomerSeq%\\cmrr_mbep2d_bold",
  "ReceiveCoilActiveElements": "HEA;HEP",
  "ReceiveCoilName": "Head_32",
  "ReconMatrixPE": 106,
  "RepetitionTime": 1.5,
  "SAR": 0.0735885,
  "ScanOptions": "FS\\EXT",
  "ScanningSequence": "EP",
  "SequenceName": "epfid2d1_106",
  "SequenceVariant": "SK\\SS",
  "SeriesDescription": "task-backtothefuture_run-3",
  "SeriesNumber": 12,
  "ShimSetting": [-1597, 601, 7417, 382, -41, -68, -1, -6],
  "SliceThickness": 2,
  "SliceTiming": [0, 1.0675, 0.6575, 0.2475, 1.315, 0.905, 0.4925, 0.0825, 1.15, 0.74, 0.3275, 1.3975, 0.9875, 0.575, 0.165, 1.2325, 0.8225, 0.41, 0, 1.0675, 0.6575, 0.2475, 1.315, 0.905, 0.4925, 0.0825, 1.15, 0.74, 0.3275, 1.3975, 0.9875, 0.575, 0.165, 1.2325, 0.8225, 0.41, 0, 1.0675, 0.6575, 0.2475, 1.315, 0.905, 0.4925, 0.0825, 1.15, 0.74, 0.3275, 1.3975, 0.9875, 0.575, 0.165, 1.2325, 0.8225, 0.41, 0, 1.0675, 0.6575, 0.2475, 1.315, 0.905, 0.4925, 0.0825, 1.15, 0.74, 0.3275, 1.3975, 0.9875, 0.575, 0.165, 1.2325, 0.8225, 0.41],
  "SoftwareVersions": "syngo MR E11",
  "SpacingBetweenSlices": 2,
  "StationName": "AWP166108",
  "TaskName": "backtothefuture",
  "TotalReadoutTime": 0.0588013,
  "TxRefAmp": 236.391,
  "WipMemBlock": "576918a0-5b51-40fd-b6ac-12bd6678f6c1||Sequence: R016 ve11c/master r/e634e98; Dec 19 2017 11:00:25 by eja",
  "dcmmeta_affine": [
    [-2.0, 0.0, 0.0, 106.0],
    [0.0, 2.0, 0.0, -78.69879150390625],
    [0.0, 0.0, 2.0, -59.55421829223633],
    [0.0, 0.0, 0.0, 1.0]
],
  "dcmmeta_reorient_transform": [
    [0.0, -1.0, 0.0, 105.0],
    [1.0, 0.0, 0.0, 0.0],
    [0.0, 0.0, 1.0, 0.0],
    [0.0, 0.0, 0.0, 1.0]
],
  "dcmmeta_shape": [106, 106, 72, 1608],
  "dcmmeta_slice_dim": 2,
  "dcmmeta_version": 0.6,
  "global": {
    "const": {
      "AcquisitionMatrix": [106, 0, 0, 106],
      "AngioFlag": "N",
      "BitsAllocated": 16,
      "BitsStored": 16,
      "BodyPartExamined": "BRAIN",
      "CardiacNumberOfImages": 1,
      "Columns": 954,
      "EchoNumbers": 1,
      "EchoTime": 35.2,
      "EchoTrainLength": 106,
      "FlipAngle": 60.0,
      "HighBit": 15,
      "ImageOrientationPatient": [1.0, 0.0, 0.0, 0.0, 1.0, 0.0],
      "ImagePositionPatient": [-954.0, -979.3012046814, -59.554218292236],
      "ImageType": [
        "ORIGINAL",
        "PRIMARY",
        "M",
        "MB",
        "ND",
        "MOSAIC"
],
      "ImagedNucleus": "1H",
      "ImagingFrequency": 123.243687,
      "InPlanePhaseEncodingDirection": "COL",
      "MRAcquisitionType": "2D",
      "MagneticFieldStrength": 3.0,
      "Manufacturer": "SIEMENS",
      "ManufacturerModelName": "Prisma",
      "Modality": "MR",
      "NominalInterval": 0,
      "NumberOfAverages": 1.0,
      "NumberOfPhaseEncodingSteps": 106,
      "PercentPhaseFieldOfView": 100.0,
      "PercentSampling": 100.0,
      "PerformedProcedureStepStartTime": "101945.574000",
      "PhotometricInterpretation": "MONOCHROME2",
      "PixelBandwidth": 2620.0,
      "PixelRepresentation": 0,
      "PixelSpacing": [2.0, 2.0],
      "ProtocolName": "task-backtothefuture_run-3",
      "RepetitionTime": 1500.0,
      "Rows": 954,
      "SAR": 0.07358850960825,
      "SamplesPerPixel": 1,
      "ScanOptions": [
        "FS",
        "EXT"
],
      "ScanningSequence": "EP",
      "SequenceName": "epfid2d1_106",
      "SequenceVariant": [
        "SK",
        "SS"
],
      "SeriesDescription": "task-backtothefuture_run-3",
      "SeriesNumber": 12,
      "SeriesTime": "123447.198000",
      "SliceLocation": -59.554218292236,
      "SliceThickness": 2.0,
      "SmallestImagePixelValue": 0,
      "SoftwareVersions": "syngo MR E11",
      "SpacingBetweenSlices": 2.0000000537281,
      "SpecificCharacterSet": "ISO_IR 100",
      "StudyID": "1",
      "StudyTime": "101945.508000",
      "TransmitCoilName": "Body",
      "VariableFlipAngleFlag": "N",
      "WindowCenterWidthExplanation": "Algo1",
      "dBdt": 0.0},
    "slices": {}
  },
  "time": {
    "samples": {
      "AcquisitionNumber": [1, 2, 3, 4, 5, 6, 7, 8, 9, 10, 11, 12, 13, 14, 15, 16, 17, 18, 19, 20, 21, 22, 23, 24, 25, 26, 27, 28, 29, 30, 31, 32, 33, 34, 35, 36, 37, 38, 39, 40, 41, 42, 43, 44, 45, 46, 47, 48, 49, 50, 51, 52, 53, 54, 55, 56, 57, 58, 59, 60, 61, 62, 63, 64, 65, 66, 67, 68, 69, 70, 71, 72, 73, 74, 75, 76, 77, 78, 79, 80, 81, 82, 83, 84, 85, 86, 87, 88, 89, 90, 91, 92, 93, 94, 95, 96, 97, 98, 99, 100, 101, 102, 103, 104, 105, 106, 107, 108, 109, 110, 111, 112, 113, 114, 115, 116, 117, 118, 119, 120, 121, 122, 123, 124, 125, 126, 127, 128, 129, 130, 131, 132, 133, 134, 135, 136, 137, 138, 139, 140, 141, 142, 143, 144, 145, 146, 147, 148, 149, 150, 151, 152, 153, 154, 155, 156, 157, 158, 159, 160, 161, 162, 163, 164, 165, 166, 167, 168, 169, 170, 171, 172, 173, 174, 175, 176, 177, 178, 179, 180, 181, 182, 183, 184, 185, 186, 187, 188, 189, 190, 191, 192, 193, 194, 195, 196, 197, 198, 199, 200, 201, 202, 203, 204, 205, 206, 207, 208, 209, 210, 211, 212, 213, 214, 215, 216, 217, 218, 219, 220, 221, 222, 223, 224, 225, 226, 227, 228, 229, 230, 231, 232, 233, 234, 235, 236, 237, 238, 239, 240, 241, 242, 243, 244, 245, 246, 247, 248, 249, 250, 251, 252, 253, 254, 255, 256, 257, 258, 259, 260, 261, 262, 263, 264, 265, 266, 267, 268, 269, 270, 271, 272, 273, 274, 275, 276, 277, 278, 279, 280, 281, 282, 283, 284, 285, 286, 287, 288, 289, 290, 291, 292, 293, 294, 295, 296, 297, 298, 299, 300, 301, 302, 303, 304, 305, 306, 307, 308, 309, 310, 311, 312, 313, 314, 315, 316, 317, 318, 319, 320, 321, 322, 323, 324, 325, 326, 327, 328, 329, 330, 331, 332, 333, 334, 335, 336, 337, 338, 339, 340, 341, 342, 343, 344, 345, 346, 347, 348, 349, 350, 351, 352, 353, 354, 355, 356, 357, 358, 359, 360, 361, 362, 363, 364, 365, 366, 367, 368, 369, 370, 371, 372, 373, 374, 375, 376, 377, 378, 379, 380, 381, 382, 383, 384, 385, 386, 387, 388, 389, 390, 391, 392, 393, 394, 395, 396, 397, 398, 399, 400, 401, 402, 403, 404, 405, 406, 407, 408, 409, 410, 411, 412, 413, 414, 415, 416, 417, 418, 419, 420, 421, 422, 423, 424, 425, 426, 427, 428, 429, 430, 431, 432, 433, 434, 435, 436, 437, 438, 439, 440, 441, 442, 443, 444, 445, 446, 447, 448, 449, 450, 451, 452, 453, 454, 455, 456, 457, 458, 459, 460, 461, 462, 463, 464, 465, 466, 467, 468, 469, 470, 471, 472, 473, 474, 475, 476, 477, 478, 479, 480, 481, 482, 483, 484, 485, 486, 487, 488, 489, 490, 491, 492, 493, 494, 495, 496, 497, 498, 499, 500, 501, 502, 503, 504, 505, 506, 507, 508, 509, 510, 511, 512, 513, 514, 515, 516, 517, 518, 519, 520, 521, 522, 523, 524, 525, 526, 527, 528, 529, 530, 531, 532, 533, 534, 535, 536, 537, 538, 539, 540, 541, 542, 543, 544, 545, 546, 547, 548, 549, 550, 551, 552, 553, 554, 555, 556, 557, 558, 559, 560, 561, 562, 563, 564, 565, 566, 567, 568, 569, 570, 571, 572, 573, 574, 575, 576, 577, 578, 579, 580, 581, 582, 583, 584, 585, 586, 587, 588, 589, 590, 591, 592, 593, 594, 595, 596, 597, 598, 599, 600, 601, 602, 603, 604, 605, 606, 607, 608, 609, 610, 611, 612, 613, 614, 615, 616, 617, 618, 619, 620, 621, 622, 623, 624, 625, 626, 627, 628, 629, 630, 631, 632, 633, 634, 635, 636, 637, 638, 639, 640, 641, 642, 643, 644, 645, 646, 647, 648, 649, 650, 651, 652, 653, 654, 655, 656, 657, 658, 659, 660, 661, 662, 663, 664, 665, 666, 667, 668, 669, 670, 671, 672, 673, 674, 675, 676, 677, 678, 679, 680, 681, 682, 683, 684, 685, 686, 687, 688, 689, 690, 691, 692, 693, 694, 695, 696, 697, 698, 699, 700, 701, 702, 703, 704, 705, 706, 707, 708, 709, 710, 711, 712, 713, 714, 715, 716, 717, 718, 719, 720, 721, 722, 723, 724, 725, 726, 727, 728, 729, 730, 731, 732, 733, 734, 735, 736, 737, 738, 739, 740, 741, 742, 743, 744, 745, 746, 747, 748, 749, 750, 751, 752, 753, 754, 755, 756, 757, 758, 759, 760, 761, 762, 763, 764, 765, 766, 767, 768, 769, 770, 771, 772, 773, 774, 775, 776, 777, 778, 779, 780, 781, 782, 783, 784, 785, 786, 787, 788, 789, 790, 791, 792, 793, 794, 795, 796, 797, 798, 799, 800, 801, 802, 803, 804, 805, 806, 807, 808, 809, 810, 811, 812, 813, 814, 815, 816, 817, 818, 819, 820, 821, 822, 823, 824, 825, 826, 827, 828, 829, 830, 831, 832, 833, 834, 835, 836, 837, 838, 839, 840, 841, 842, 843, 844, 845, 846, 847, 848, 849, 850, 851, 852, 853, 854, 855, 856, 857, 858, 859, 860, 861, 862, 863, 864, 865, 866, 867, 868, 869, 870, 871, 872, 873, 874, 875, 876, 877, 878, 879, 880, 881, 882, 883, 884, 885, 886, 887, 888, 889, 890, 891, 892, 893, 894, 895, 896, 897, 898, 899, 900, 901, 902, 903, 904, 905, 906, 907, 908, 909, 910, 911, 912, 913, 914, 915, 916, 917, 918, 919, 920, 921, 922, 923, 924, 925, 926, 927, 928, 929, 930, 931, 932, 933, 934, 935, 936, 937, 938, 939, 940, 941, 942, 943, 944, 945, 946, 947, 948, 949, 950, 951, 952, 953, 954, 955, 956, 957, 958, 959, 960, 961, 962, 963, 964, 965, 966, 967, 968, 969, 970, 971, 972, 973, 974, 975, 976, 977, 978, 979, 980, 981, 982, 983, 984, 985, 986, 987, 988, 989, 990, 991, 992, 993, 994, 995, 996, 997, 998, 999, 1000, 1001, 1002, 1003, 1004, 1005, 1006, 1007, 1008, 1009, 1010, 1011, 1012, 1013, 1014, 1015, 1016, 1017, 1018, 1019, 1020, 1021, 1022, 1023, 1024, 1025, 1026, 1027, 1028, 1029, 1030, 1031, 1032, 1033, 1034, 1035, 1036, 1037, 1038, 1039, 1040, 1041, 1042, 1043, 1044, 1045, 1046, 1047, 1048, 1049, 1050, 1051, 1052, 1053, 1054, 1055, 1056, 1057, 1058, 1059, 1060, 1061, 1062, 1063, 1064, 1065, 1066, 1067, 1068, 1069, 1070, 1071, 1072, 1073, 1074, 1075, 1076, 1077, 1078, 1079, 1080, 1081, 1082, 1083, 1084, 1085, 1086, 1087, 1088, 1089, 1090, 1091, 1092, 1093, 1094, 1095, 1096, 1097, 1098, 1099, 1100, 1101, 1102, 1103, 1104, 1105, 1106, 1107, 1108, 1109, 1110, 1111, 1112, 1113, 1114, 1115, 1116, 1117, 1118, 1119, 1120, 1121, 1122, 1123, 1124, 1125, 1126, 1127, 1128, 1129, 1130, 1131, 1132, 1133, 1134, 1135, 1136, 1137, 1138, 1139, 1140, 1141, 1142, 1143, 1144, 1145, 1146, 1147, 1148, 1149, 1150, 1151, 1152, 1153, 1154, 1155, 1156, 1157, 1158, 1159, 1160, 1161, 1162, 1163, 1164, 1165, 1166, 1167, 1168, 1169, 1170, 1171, 1172, 1173, 1174, 1175, 1176, 1177, 1178, 1179, 1180, 1181, 1182, 1183, 1184, 1185, 1186, 1187, 1188, 1189, 1190, 1191, 1192, 1193, 1194, 1195, 1196, 1197, 1198, 1199, 1200, 1201, 1202, 1203, 1204, 1205, 1206, 1207, 1208, 1209, 1210, 1211, 1212, 1213, 1214, 1215, 1216, 1217, 1218, 1219, 1220, 1221, 1222, 1223, 1224, 1225, 1226, 1227, 1228, 1229, 1230, 1231, 1232, 1233, 1234, 1235, 1236, 1237, 1238, 1239, 1240, 1241, 1242, 1243, 1244, 1245, 1246, 1247, 1248, 1249, 1250, 1251, 1252, 1253, 1254, 1255, 1256, 1257, 1258, 1259, 1260, 1261, 1262, 1263, 1264, 1265, 1266, 1267, 1268, 1269, 1270, 1271, 1272, 1273, 1274, 1275, 1276, 1277, 1278, 1279, 1280, 1281, 1282, 1283, 1284, 1285, 1286, 1287, 1288, 1289, 1290, 1291, 1292, 1293, 1294, 1295, 1296, 1297, 1298, 1299, 1300, 1301, 1302, 1303, 1304, 1305, 1306, 1307, 1308, 1309, 1310, 1311, 1312, 1313, 1314, 1315, 1316, 1317, 1318, 1319, 1320, 1321, 1322, 1323, 1324, 1325, 1326, 1327, 1328, 1329, 1330, 1331, 1332, 1333, 1334, 1335, 1336, 1337, 1338, 1339, 1340, 1341, 1342, 1343, 1344, 1345, 1346, 1347, 1348, 1349, 1350, 1351, 1352, 1353, 1354, 1355, 1356, 1357, 1358, 1359, 1360, 1361, 1362, 1363, 1364, 1365, 1366, 1367, 1368, 1369, 1370, 1371, 1372, 1373, 1374, 1375, 1376, 1377, 1378, 1379, 1380, 1381, 1382, 1383, 1384, 1385, 1386, 1387, 1388, 1389, 1390, 1391, 1392, 1393, 1394, 1395, 1396, 1397, 1398, 1399, 1400, 1401, 1402, 1403, 1404, 1405, 1406, 1407, 1408, 1409, 1410, 1411, 1412, 1413, 1414, 1415, 1416, 1417, 1418, 1419, 1420, 1421, 1422, 1423, 1424, 1425, 1426, 1427, 1428, 1429, 1430, 1431, 1432, 1433, 1434, 1435, 1436, 1437, 1438, 1439, 1440, 1441, 1442, 1443, 1444, 1445, 1446, 1447, 1448, 1449, 1450, 1451, 1452, 1453, 1454, 1455, 1456, 1457, 1458, 1459, 1460, 1461, 1462, 1463, 1464, 1465, 1466, 1467, 1468, 1469, 1470, 1471, 1472, 1473, 1474, 1475, 1476, 1477, 1478, 1479, 1480, 1481, 1482, 1483, 1484, 1485, 1486, 1487, 1488, 1489, 1490, 1491, 1492, 1493, 1494, 1495, 1496, 1497, 1498, 1499, 1500, 1501, 1502, 1503, 1504, 1505, 1506, 1507, 1508, 1509, 1510, 1511, 1512, 1513, 1514, 1515, 1516, 1517, 1518, 1519, 1520, 1521, 1522, 1523, 1524, 1525, 1526, 1527, 1528, 1529, 1530, 1531, 1532, 1533, 1534, 1535, 1536, 1537, 1538, 1539, 1540, 1541, 1542, 1543, 1544, 1545, 1546, 1547, 1548, 1549, 1550, 1551, 1552, 1553, 1554, 1555, 1556, 1557, 1558, 1559, 1560, 1561, 1562, 1563, 1564, 1565, 1566, 1567, 1568, 1569, 1570, 1571, 1572, 1573, 1574, 1575, 1576, 1577, 1578, 1579, 1580, 1581, 1582, 1583, 1584, 1585, 1586, 1587, 1588, 1589, 1590, 1591, 1592, 1593, 1594, 1595, 1596, 1597, 1598, 1599, 1600, 1601, 1602, 1603, 1604, 1605, 1606, 1607, 1608],
      "AcquisitionTime": ["123348.517500", "123350.017500", "123351.517500", "123353.017500", "123354.517500", "123356.017500", "123357.517500", "123359.017500", "123400.517500", "123402.017500", "123403.517500", "123405.017500", "123406.517500", "123408.017500", "123409.517500", "123411.017500", "123412.517500", "123414.017500", "123415.517500", "123417.017500", "123418.517500", "123420.017500", "123421.517500", "123423.017500", "123424.517500", "123426.017500", "123427.517500", "123429.017500", "123430.517500", "123432.017500", "123433.517500", "123435.017500", "123436.517500", "123438.017500", "123439.517500", "123441.017500", "123442.517500", "123444.017500", "123445.517500", "123447.017500", "123448.517500", "123450.017500", "123451.517500", "123453.017500", "123454.517500", "123456.017500", "123457.517500", "123459.017500", "123500.517500", "123502.017500", "123503.517500", "123505.017500", "123506.517500", "123508.017500", "123509.517500", "123511.017500", "123512.517500", "123514.017500", "123515.517500", "123517.017500", "123518.517500", "123520.017500", "123521.517500", "123523.017500", "123524.517500", "123526.017500", "123527.517500", "123529.017500", "123530.517500", "123532.017500", "123533.517500", "123535.017500", "123536.517500", "123538.017500", "123539.517500", "123541.017500", "123542.517500", "123544.017500", "123545.517500", "123547.017500", "123548.517500", "123550.017500", "123551.517500", "123553.017500", "123554.517500", "123556.017500", "123557.517500", "123559.017500", "123600.517500", "123602.017500", "123603.517500", "123605.017500", "123606.517500", "123608.017500", "123609.517500", "123611.017500", "123612.517500", "123614.017500", "123615.517500", "123617.017500", "123618.517500", "123620.017500", "123621.517500", "123623.017500", "123624.517500", "123626.017500", "123627.517500", "123629.017500", "123630.517500", "123632.017500", "123633.517500", "123635.017500", "123636.517500", "123638.017500", "123639.517500", "123641.017500", "123642.517500", "123644.017500", "123645.517500", "123647.017500", "123648.517500", "123650.017500", "123651.517500", "123653.017500", "123654.517500", "123656.017500", "123657.517500", "123659.017500", "123700.517500", "123702.017500", "123703.517500", "123705.017500", "123706.517500", "123708.017500", "123709.517500", "123711.017500", "123712.517500", "123714.017500", "123715.517500", "123717.017500", "123718.517500", "123720.017500", "123721.517500", "123723.017500", "123724.517500", "123726.017500", "123727.517500", "123729.017500", "123730.517500", "123732.017500", "123733.517500", "123735.017500", "123736.517500", "123738.017500", "123739.517500", "123741.017500", "123742.517500", "123744.017500", "123745.517500", "123747.017500", "123748.517500", "123750.017500", "123751.517500", "123753.017500", "123754.517500", "123756.017500", "123757.517500", "123759.017500", "123800.517500", "123802.017500", "123803.517500", "123805.017500", "123806.517500", "123808.017500", "123809.517500", "123811.017500", "123812.517500", "123814.017500", "123815.517500", "123817.017500", "123818.517500", "123820.017500", "123821.517500", "123823.017500", "123824.517500", "123826.017500", "123827.517500", "123829.017500", "123830.517500", "123832.017500", "123833.517500", "123835.017500", "123836.517500", "123838.017500", "123839.517500", "123841.017500", "123842.517500", "123844.017500", "123845.517500", "123847.017500", "123848.517500", "123850.017500", "123851.517500", "123853.017500", "123854.517500", "123856.017500", "123857.517500", "123859.017500", "123900.517500", "123902.017500", "123903.517500", "123905.017500", "123906.517500", "123908.017500", "123909.517500", "123911.017500", "123912.517500", "123914.017500", "123915.517500", "123917.017500", "123918.517500", "123920.017500", "123921.517500", "123923.017500", "123924.517500", "123926.017500", "123927.517500", "123929.017500", "123930.517500", "123932.017500", "123933.517500", "123935.017500", "123936.517500", "123938.017500", "123939.517500", "123941.017500", "123942.517500", "123944.017500", "123945.517500", "123947.017500", "123948.517500", "123950.017500", "123951.517500", "123953.017500", "123954.517500", "123956.017500", "123957.517500", "123959.017500", "124000.517500", "124002.017500", "124003.517500", "124005.017500", "124006.517500", "124008.017500", "124009.517500", "124011.017500", "124012.517500", "124014.017500", "124015.517500", "124017.017500", "124018.517500", "124020.017500", "124021.517500", "124023.017500", "124024.517500", "124026.017500", "124027.517500", "124029.017500", "124030.517500", "124032.017500", "124033.517500", "124035.017500", "124036.517500", "124038.017500", "124039.517500", "124041.017500", "124042.517500", "124044.017500", "124045.517500", "124047.017500", "124048.517500", "124050.017500", "124051.517500", "124053.017500", "124054.517500", "124056.017500", "124057.517500", "124059.017500", "124100.517500", "124102.017500", "124103.517500", "124105.017500", "124106.517500", "124108.017500", "124109.517500", "124111.017500", "124112.517500", "124114.017500", "124115.517500", "124117.017500", "124118.517500", "124120.017500", "124121.517500", "124123.017500", "124124.517500", "124126.017500", "124127.517500", "124129.017500", "124130.517500", "124132.017500", "124133.517500", "124135.017500", "124136.517500", "124138.017500", "124139.517500", "124141.017500", "124142.517500", "124144.017500", "124145.517500", "124147.017500", "124148.517500", "124150.017500", "124151.517500", "124153.017500", "124154.517500", "124156.017500", "124157.517500", "124159.017500", "124200.517500", "124202.017500", "124203.517500", "124205.017500", "124206.517500", "124208.017500", "124209.517500", "124211.017500", "124212.517500", "124214.017500", "124215.517500", "124217.017500", "124218.517500", "124220.017500", "124221.517500", "124223.017500", "124224.517500", "124226.017500", "124227.517500", "124229.017500", "124230.517500", "124232.017500", "124233.517500", "124235.017500", "124236.517500", "124238.017500", "124239.517500", "124241.017500", "124242.517500", "124244.017500", "124245.517500", "124247.017500", "124248.517500", "124250.017500", "124251.517500", "124253.017500", "124254.517500", "124256.017500", "124257.517500", "124259.017500", "124300.517500", "124302.017500", "124303.517500", "124305.017500", "124306.517500", "124308.017500", "124309.517500", "124311.017500", "124312.517500", "124314.017500", "124315.517500", "124317.017500", "124318.517500", "124320.017500", "124321.517500", "124323.017500", "124324.517500", "124326.017500", "124327.517500", "124329.017500", "124330.517500", "124332.017500", "124333.517500", "124335.017500", "124336.517500", "124338.017500", "124339.517500", "124341.017500", "124342.517500", "124344.017500", "124345.517500", "124347.017500", "124348.517500", "124350.017500", "124351.517500", "124353.017500", "124354.517500", "124356.017500", "124357.517500", "124359.017500", "124400.517500", "124402.017500", "124403.517500", "124405.017500", "124406.517500", "124408.017500", "124409.517500", "124411.017500", "124412.517500", "124414.017500", "124415.517500", "124417.017500", "124418.517500", "124420.017500", "124421.517500", "124423.017500", "124424.517500", "124426.017500", "124427.517500", "124429.017500", "124430.517500", "124432.017500", "124433.517500", "124435.017500", "124436.517500", "124438.017500", "124439.517500", "124441.017500", "124442.517500", "124444.017500", "124445.517500", "124447.017500", "124448.517500", "124450.017500", "124451.517500", "124453.017500", "124454.517500", "124456.017500", "124457.517500", "124459.017500", "124500.517500", "124502.017500", "124503.517500", "124505.017500", "124506.517500", "124508.017500", "124509.517500", "124511.017500", "124512.517500", "124514.017500", "124515.517500", "124517.017500", "124518.517500", "124520.017500", "124521.517500", "124523.017500", "124524.517500", "124526.017500", "124527.517500", "124529.017500", "124530.517500", "124532.017500", "124533.517500", "124535.017500", "124536.517500", "124538.017500", "124539.517500", "124541.017500", "124542.517500", "124544.017500", "124545.517500", "124547.017500", "124548.517500", "124550.017500", "124551.517500", "124553.017500", "124554.517500", "124556.017500", "124557.517500", "124559.017500", "124600.517500", "124602.017500", "124603.517500", "124605.017500", "124606.517500", "124608.017500", "124609.517500", "124611.017500", "124612.517500", "124614.017500", "124615.517500", "124617.017500", "124618.517500", "124620.017500", "124621.517500", "124623.017500", "124624.517500", "124626.017500", "124627.517500", "124629.017500", "124630.517500", "124632.017500", "124633.517500", "124635.017500", "124636.517500", "124638.017500", "124639.517500", "124641.017500", "124642.517500", "124644.017500", "124645.517500", "124647.017500", "124648.517500", "124650.017500", "124651.517500", "124653.017500", "124654.517500", "124656.017500", "124657.517500", "124659.017500", "124700.517500", "124702.017500", "124703.517500", "124705.017500", "124706.517500", "124708.017500", "124709.517500", "124711.017500", "124712.517500", "124714.017500", "124715.517500", "124717.017500", "124718.517500", "124720.017500", "124721.517500", "124723.017500", "124724.517500", "124726.017500", "124727.517500", "124729.017500", "124730.517500", "124732.017500", "124733.517500", "124735.017500", "124736.517500", "124738.017500", "124739.517500", "124741.017500", "124742.517500", "124744.017500", "124745.517500", "124747.017500", "124748.517500", "124750.017500", "124751.517500", "124753.017500", "124754.517500", "124756.017500", "124757.517500", "124759.017500", "124800.517500", "124802.017500", "124803.517500", "124805.017500", "124806.517500", "124808.017500", "124809.517500", "124811.017500", "124812.517500", "124814.017500", "124815.517500", "124817.017500", "124818.517500", "124820.017500", "124821.517500", "124823.017500", "124824.517500", "124826.017500", "124827.517500", "124829.017500", "124830.517500", "124832.017500", "124833.517500", "124835.017500", "124836.517500", "124838.017500", "124839.517500", "124841.017500", "124842.517500", "124844.017500", "124845.517500", "124847.017500", "124848.517500", "124850.017500", "124851.517500", "124853.017500", "124854.517500", "124856.017500", "124857.517500", "124859.017500", "124900.517500", "124902.017500", "124903.517500", "124905.017500", "124906.517500", "124908.017500", "124909.517500", "124911.017500", "124912.517500", "124914.017500", "124915.517500", "124917.017500", "124918.517500", "124920.017500", "124921.517500", "124923.017500", "124924.517500", "124926.017500", "124927.517500", "124929.017500", "124930.517500", "124932.017500", "124933.517500", "124935.017500", "124936.517500", "124938.017500", "124939.517500", "124941.017500", "124942.517500", "124944.017500", "124945.517500", "124947.017500", "124948.517500", "124950.017500", "124951.517500", "124953.017500", "124954.517500", "124956.017500", "124957.517500", "124959.017500", "125000.517500", "125002.017500", "125003.517500", "125005.017500", "125006.517500", "125008.017500", "125009.517500", "125011.017500", "125012.517500", "125014.017500", "125015.517500", "125017.017500", "125018.517500", "125020.017500", "125021.517500", "125023.017500", "125024.517500", "125026.017500", "125027.517500", "125029.017500", "125030.517500", "125032.017500", "125033.517500", "125035.017500", "125036.517500", "125038.017500", "125039.517500", "125041.017500", "125042.517500", "125044.017500", "125045.517500", "125047.017500", "125048.517500", "125050.017500", "125051.517500", "125053.017500", "125054.517500", "125056.017500", "125057.517500", "125059.017500", "125100.517500", "125102.017500", "125103.517500", "125105.017500", "125106.517500", "125108.017500", "125109.517500", "125111.017500", "125112.517500", "125114.017500", "125115.517500", "125117.017500", "125118.517500", "125120.017500", "125121.517500", "125123.017500", "125124.517500", "125126.017500", "125127.517500", "125129.017500", "125130.517500", "125132.017500", "125133.517500", "125135.017500", "125136.517500", "125138.017500", "125139.517500", "125141.017500", "125142.517500", "125144.017500", "125145.517500", "125147.017500", "125148.517500", "125150.017500", "125151.517500", "125153.017500", "125154.517500", "125156.017500", "125157.517500", "125159.017500", "125200.517500", "125202.017500", "125203.517500", "125205.017500", "125206.517500", "125208.017500", "125209.517500", "125211.017500", "125212.517500", "125214.017500", "125215.517500", "125217.017500", "125218.517500", "125220.017500", "125221.517500", "125223.017500", "125224.517500", "125226.017500", "125227.517500", "125229.017500", "125230.517500", "125232.017500", "125233.517500", "125235.017500", "125236.517500", "125238.017500", "125239.517500", "125241.017500", "125242.517500", "125244.017500", "125245.517500", "125247.017500", "125248.517500", "125250.017500", "125251.517500", "125253.017500", "125254.517500", "125256.017500", "125257.517500", "125259.017500", "125300.517500", "125302.017500", "125303.517500", "125305.017500", "125306.517500", "125308.017500", "125309.517500", "125311.017500", "125312.517500", "125314.017500", "125315.517500", "125317.017500", "125318.517500", "125320.017500", "125321.517500", "125323.017500", "125324.517500", "125326.017500", "125327.517500", "125329.017500", "125330.517500", "125332.017500", "125333.517500", "125335.017500", "125336.517500", "125338.017500", "125339.517500", "125341.017500", "125342.517500", "125344.017500", "125345.517500", "125347.017500", "125348.517500", "125350.017500", "125351.517500", "125353.017500", "125354.517500", "125356.017500", "125357.517500", "125359.017500", "125400.517500", "125402.017500", "125403.517500", "125405.017500", "125406.517500", "125408.017500", "125409.517500", "125411.017500", "125412.517500", "125414.017500", "125415.517500", "125417.017500", "125418.517500", "125420.017500", "125421.517500", "125423.017500", "125424.517500", "125426.017500", "125427.517500", "125429.017500", "125430.517500", "125432.017500", "125433.517500", "125435.017500", "125436.517500", "125438.017500", "125439.517500", "125441.017500", "125442.517500", "125444.017500", "125445.517500", "125447.017500", "125448.517500", "125450.017500", "125451.517500", "125453.017500", "125454.517500", "125456.017500", "125457.517500", "125459.017500", "125500.517500", "125502.017500", "125503.517500", "125505.017500", "125506.517500", "125508.017500", "125509.517500", "125511.017500", "125512.517500", "125514.017500", "125515.517500", "125517.017500", "125518.517500", "125520.017500", "125521.517500", "125523.017500", "125524.517500", "125526.017500", "125527.517500", "125529.017500", "125530.517500", "125532.017500", "125533.517500", "125535.017500", "125536.517500", "125538.017500", "125539.517500", "125541.017500", "125542.517500", "125544.017500", "125545.517500", "125547.017500", "125548.517500", "125550.017500", "125551.517500", "125553.017500", "125554.517500", "125556.017500", "125557.517500", "125559.017500", "125600.517500", "125602.017500", "125603.517500", "125605.017500", "125606.517500", "125608.017500", "125609.517500", "125611.017500", "125612.517500", "125614.017500", "125615.517500", "125617.017500", "125618.517500", "125620.017500", "125621.517500", "125623.017500", "125624.517500", "125626.017500", "125627.517500", "125629.017500", "125630.517500", "125632.017500", "125633.517500", "125635.017500", "125636.517500", "125638.017500", "125639.517500", "125641.017500", "125642.517500", "125644.017500", "125645.517500", "125647.017500", "125648.517500", "125650.017500", "125651.517500", "125653.017500", "125654.517500", "125656.017500", "125657.517500", "125659.017500", "125700.517500", "125702.