{
  "AcquisitionMatrixPE": 106,
  "AcquisitionNumber": 1,
  "AcquisitionTime": "20:01:57.372500",
  "BandwidthPerPixelPhaseEncode": 13.477,
  "BaseResolution": 106,
  "BodyPartExamined": "BRAIN",
  "CoilCombinationMethod": "Sum of Squares",
  "ConsistencyInfo": "N4_VE11C_LATEST_20160120",
  "ConversionSoftware": "dcm2niix",
  "ConversionSoftwareVersion": "v1.0.20220720",
  "DerivedVendorReportedEchoSpacing": 0.000700005,
  "DeviceSerialNumber": "166108",
  "DwellTime": 2.6e-06,
  "EchoTime": 0.03,
  "EchoTrainLength": 80,
  "EffectiveEchoSpacing": 0.000700005,
  "FlipAngle": 62,
  "HeudiconvVersion": "1.3.0",
  "ImageComments": "Unaliased MB4/PE3/LB",
  "ImageOrientationPatientDICOM": [1, 0, 0, 0, 0.91496, -0.403545],
  "ImageOrientationText": "Tra>Cor(-23.8)",
  "ImageType": [
    "ORIGINAL",
    "PRIMARY",
    "M",
    "MB",
    "ND",
    "MOSAIC"
],
  "ImagingFrequency": 123.244,
  "InPlanePhaseEncodingDirectionDICOM": "COL",
  "InstitutionAddress": "Bedford Way 26,London,London,GB,WC1H 0AP",
  "InstitutionName": "University College",
  "InstitutionalDepartmentName": "Department",
  "MRAcquisitionType": "2D",
  "MagneticFieldStrength": 3,
  "Manufacturer": "Siemens",
  "ManufacturersModelName": "Prisma",
  "MatrixCoilMode": "SENSE",
  "Modality": "MR",
  "MultibandAccelerationFactor": 4,
  "NonlinearGradientCorrection": false,
  "PartialFourier": 0.75,
  "PatientPosition": "HFS",
  "PercentPhaseFOV": 100,
  "PercentSampling": 100,
  "PhaseEncodingDirection": "j-",
  "PhaseEncodingSteps": 80,
  "PhaseResolution": 1,
  "PixelBandwidth": 1815,
  "ProcedureStepDescription": "Tessa^LHON",
  "ProtocolName": "func-bold_task-tono_run-02",
  "PulseSequenceDetails": "%CustomerSeq%\\cmrr_mbep2d_bold",
  "ReceiveCoilActiveElements": "HEA;HEP",
  "ReceiveCoilName": "Head_32",
  "ReconMatrixPE": 106,
  "RepetitionTime": 1,
  "SAR": 0.0435148,
  "ScanOptions": "PFP\\FS\\EXT",
  "ScanningSequence": "EP",
  "SequenceName": "epfid2d1_106",
  "SequenceVariant": "SK\\SS",
  "SeriesDescription": "func-bold_task-tono_run-02",
  "SeriesNumber": 20,
  "ShimSetting": [-1486, 525, 7438, 219, 29, -163, 113, -85],
  "SliceThickness": 2,
  "SliceTiming": [0, 0.535, 0.09, 0.625, 0.18, 0.7125, 0.2675, 0.8025, 0.3575, 0.8925, 0.445, 0, 0.535, 0.09, 0.625, 0.18, 0.7125, 0.2675, 0.8025, 0.3575, 0.8925, 0.445, 0, 0.535, 0.09, 0.625, 0.18, 0.7125, 0.2675, 0.8025, 0.3575, 0.8925, 0.445, 0, 0.535, 0.09, 0.625, 0.18, 0.7125, 0.2675, 0.8025, 0.3575, 0.8925, 0.445],
  "SoftwareVersions": "syngo MR E11",
  "SpacingBetweenSlices": 2,
  "StationName": "AWP166108",
  "TaskName": "tonotopy",
  "TotalReadoutTime": 0.0735005,
  "TxRefAmp": 217.472,
  "WipMemBlock": "05285488-3f4b-4235-bf2f-aec81648707b||Sequence: R016 ve11c/master r/e634e98; Dec 19 2017 11:00:25 by eja",
  "dcmmeta_affine": [
    [-2.0, 0.0, 0.0, 106.0],
    [0.0, 1.8299193382263184, -0.8070906400680542, -56.275856018066406],
    [0.0, 0.8070906400680542, 1.8299193382263184, -65.56316375732422],
    [0.0, 0.0, 0.0, 1.0]
],
  "dcmmeta_reorient_transform": [
    [0.0, -1.0, 0.0, 105.0],
    [1.0, 0.0, 0.0, 0.0],
    [0.0, 0.0, 1.0, 0.0],
    [0.0, 0.0, 0.0, 1.0]
],
  "dcmmeta_shape": [106, 106, 44, 264],
  "dcmmeta_slice_dim": 2,
  "dcmmeta_version": 0.6,
  "global": {
    "const": {
      "AcquisitionMatrix": [106, 0, 0, 106],
      "AngioFlag": "N",
      "BitsAllocated": 16,
      "BitsStored": 16,
      "BodyPartExamined": "BRAIN",
      "CardiacNumberOfImages": 1,
      "Columns": 742,
      "EchoNumbers": 1,
      "EchoTime": 30.0,
      "EchoTrainLength": 80,
      "FlipAngle": 62.0,
      "HighBit": 15,
      "ImageOrientationPatient": [1.0, 0.0, 0.0, 0.0, 0.91495965822336, -0.4035453181785],
      "ImagePositionPatient": [-742.0, -717.78001406409, 275.83617418416],
      "ImageType": [
        "ORIGINAL",
        "PRIMARY",
        "M",
        "MB",
        "ND",
        "MOSAIC"
],
      "ImagedNucleus": "1H",
      "ImagingFrequency": 123.243636,
      "InPlanePhaseEncodingDirection": "COL",
      "MRAcquisitionType": "2D",
      "MagneticFieldStrength": 3.0,
      "Manufacturer": "SIEMENS",
      "ManufacturerModelName": "Prisma",
      "Modality": "MR",
      "NominalInterval": 0,
      "NumberOfAverages": 1.0,
      "NumberOfPhaseEncodingSteps": 80,
      "PercentPhaseFieldOfView": 100.0,
      "PercentSampling": 100.0,
      "PerformedProcedureStepStartTime": "183732.004000",
      "PhotometricInterpretation": "MONOCHROME2",
      "PixelBandwidth": 1815.0,
      "PixelRepresentation": 0,
      "PixelSpacing": [2.0, 2.0],
      "ProtocolName": "func-bold_task-tono_run-02",
      "RepetitionTime": 1000.0,
      "Rows": 742,
      "SAR": 0.04351475046686,
      "SamplesPerPixel": 1,
      "ScanOptions": [
        "PFP",
        "FS",
        "EXT"
],
      "ScanningSequence": "EP",
      "SequenceName": "epfid2d1_106",
      "SequenceVariant": [
        "SK",
        "SS"
],
      "SeriesDescription": "func-bold_task-tono_run-02",
      "SeriesNumber": 20,
      "SeriesTime": "200235.191000",
      "SliceLocation": -37.277792500491,
      "SliceThickness": 2.0,
      "SmallestImagePixelValue": 0,
      "SoftwareVersions": "syngo MR E11",
      "SpacingBetweenSlices": 1.99999998331,
      "SpecificCharacterSet": "ISO_IR 100",
      "StudyID": "1",
      "StudyTime": "183731.950000",
      "TransmitCoilName": "Body",
      "VariableFlipAngleFlag": "N",
      "WindowCenterWidthExplanation": "Algo1",
      "dBdt": 0.0},
    "slices": {}
  },
  "time": {
    "samples": {
      "AcquisitionNumber": [1, 2, 3, 4, 5, 6, 7, 8, 9, 10, 11, 12, 13, 14, 15, 16, 17, 18, 19, 20, 21, 22, 23, 24, 25, 26, 27, 28, 29, 30, 31, 32, 33, 34, 35, 36, 37, 38, 39, 40, 41, 42, 43, 44, 45, 46, 47, 48, 49, 50, 51, 52, 53, 54, 55, 56, 57, 58, 59, 60, 61, 62, 63, 64, 65, 66, 67, 68, 69, 70, 71, 72, 73, 74, 75, 76, 77, 78, 79, 80, 81, 82, 83, 84, 85, 86, 87, 88, 89, 90, 91, 92, 93, 94, 95, 96, 97, 98, 99, 100, 101, 102, 103, 104, 105, 106, 107, 108, 109, 110, 111, 112, 113, 114, 115, 116, 117, 118, 119, 120, 121, 122, 123, 124, 125, 126, 127, 128, 129, 130, 131, 132, 133, 134, 135, 136, 137, 138, 139, 140, 141, 142, 143, 144, 145, 146, 147, 148, 149, 150, 151, 152, 153, 154, 155, 156, 157, 158, 159, 160, 161, 162, 163, 164, 165, 166, 167, 168, 169, 170, 171, 172, 173, 174, 175, 176, 177, 178, 179, 180, 181, 182, 183, 184, 185, 186, 187, 188, 189, 190, 191, 192, 193, 194, 195, 196, 197, 198, 199, 200, 201, 202, 203, 204, 205, 206, 207, 208, 209, 210, 211, 212, 213, 214, 215, 216, 217, 218, 219, 220, 221, 222, 223, 224, 225, 226, 227, 228, 229, 230, 231, 232, 233, 234, 235, 236, 237, 238, 239, 240, 241, 242, 243, 244, 245, 246, 247, 248, 249, 250, 251, 252, 253, 254, 255, 256, 257, 258, 259, 260, 261, 262, 263, 264],
      "AcquisitionTime": ["200157.372500", "200158.372500", "200159.372500", "200200.372500", "200201.372500", "200202.372500", "200203.372500", "200204.372500", "200205.372500", "200206.372500", "200207.372500", "200208.372500", "200209.372500", "200210.372500", "200211.372500", "200212.372500", "200213.372500", "200214.372500", "200215.372500", "200216.372500", "200217.372500", "200218.372500", "200219.372500", "200220.372500", "200221.372500", "200222.372500", "200223.372500", "200224.372500", "200225.372500", "200226.372500", "200227.372500", "200228.372500", "200229.372500", "200230.372500", "200231.372500", "200232.372500", "200233.372500", "200234.372500", "200235.372500", "200236.372500", "200237.372500", "200238.372500", "200239.372500", "200240.372500", "200241.372500", "200242.372500", "200243.372500", "200244.372500", "200245.372500", "200246.372500", "200247.372500", "200248.372500", "200249.372500", "200250.372500", "200251.372500", "200252.372500", "200253.372500", "200254.372500", "200255.372500", "200256.372500", "200257.372500", "200258.372500", "200259.372500", "200300.372500", "200301.372500", "200302.372500", "200303.372500", "200304.372500", "200305.372500", "200306.372500", "200307.372500", "200308.372500", "200309.372500", "200310.372500", "200311.372500", "200312.372500", "200313.372500", "200314.372500", "200315.372500", "200316.372500", "200317.372500", "200318.372500", "200319.372500", "200320.372500", "200321.372500", "200322.372500", "200323.372500", "200324.372500", "200325.372500", "200326.372500", "200327.372500", "200328.372500", "200329.372500", "200330.372500", "200331.372500", "200332.372500", "200333.372500", "200334.372500", "200335.372500", "200336.372500", "200337.372500", "200338.372500", "200339.372500", "200340.372500", "200341.372500", "200342.372500", "200343.372500", "200344.372500", "200345.372500", "200346.372500", "200347.372500", "200348.372500", "200349.372500", "200350.372500", "200351.372500", "200352.372500", "200353.372500", "200354.372500", "200355.372500", "200356.372500", "200357.372500", "200358.372500", "200359.372500", "200400.372500", "200401.372500", "200402.372500", "200403.372500", "200404.372500", "200405.372500", "200406.372500", "200407.372500", "200408.372500", "200409.372500", "200410.372500", "200411.372500", "200412.372500", "200413.372500", "200414.372500", "200415.372500", "200416.372500", "200417.372500", "200418.372500", "200419.372500", "200420.372500", "200421.372500", "200422.372500", "200423.372500", "200424.372500", "200425.372500", "200426.372500", "200427.372500", "200428.372500", "200429.372500", "200430.372500", "200431.372500", "200432.372500", "200433.372500", "200434.372500", "200435.372500", "200436.372500", "200437.372500", "200438.372500", "200439.372500", "200440.372500", "200441.372500", "200442.372500", "200443.372500", "200444.372500", "200445.372500", "200446.372500", "200447.372500", "200448.372500", "200449.372500", "200450.372500", "200451.372500", "200452.372500", "200453.372500", "200454.372500", "200455.372500", "200456.372500", "200457.372500", "200458.372500", "200459.372500", "200500.372500", "200501.372500", "200502.372500", "200503.372500", "200504.372500", "200505.372500", "200506.372500", "200507.372500", "200508.372500", "200509.372500", "200510.372500", "200511.372500", "200512.372500", "200513.372500", "200514.372500", "200515.372500", "200516.372500", "200517.372500", "200518.372500", "200519.372500", "200520.372500", "200521.372500", "200522.372500", "200523.372500", "200524.372500", "200525.372500", "200526.372500", "200527.372500", "200528.372500", "200529.372500", "200530.372500", "200531.372500", "200532.372500", "200533.372500", "200534.372500", "200535.372500", "200536.372500", "200537.372500", "200538.372500", "200539.372500", "200540.372500", "200541.372500", "200542.372500", "200543.372500", "200544.372500", "200545.372500", "200546.372500", "200547.372500", "200548.372500", "200549.372500", "200550.372500", "200551.372500", "200552.372500", "200553.372500", "200554.372500", "200555.372500", "200556.372500", "200557.372500", "200558.372500", "200559.372500", "200600.372500", "200601.372500", "200602.372500", "200603.372500", "200604.372500", "200605.372500", "200606.372500", "200607.372500", "200608.372500", "200609.372500", "200610.372500", "200611.372500", "200612.372500", "200613.372500", "200614.372500", "200615.372500", "200616.372500", "200617.372500", "200618.372500", "200619.372500", "200620.372500"],
      "ContentTime": ["200235.194000", "200235.197000", "200235.199000", "200235.202000", "200235.204000", "200235.207000", "200235.209000", "200235.212000", "200235.214000", "200235.217000", "200235.219000", "200235.229000", "200235.232000", "200235.234000", "200235.237000", "200235.239000", "200235.242000", "200235.244000", "200235.247000", "200235.249000", "200235.252000", "200235.254000", "200235.256000", "200235.259000", "200235.261000", "200235.264000", "200235.266000", "200235.269000", "200235.271000", "200235.274000", "200235.276000", "200235.284000", "200235.286000", "200235.289000", "200235.291000", "200235.294000", "200235.296000", "200255.164000", "200255.166000", "200255.169000", "200255.171000", "200255.174000", "200255.176000", "200255.179000", "200255.181000", "200255.184000", "200255.186000", "200255.189000", "200255.191000", "200255.194000", "200255.196000", "200255.199000", "200255.201000", "200255.204000", "200255.206000", "200255.209000", "200255.219000", "200315.163000", "200315.166000", "200315.169000", "200315.171000", "200315.174000", "200315.176000", "200315.179000", "200315.181000", "200315.184000", "200315.186000", "200315.189000", "200315.191000", "200315.194000", "200315.196000", "200315.198000", "200315.201000", "200315.203000", "200315.206000", "200315.208000", "200315.211000", "200335.164000", "200335.167000", "200335.170000", "200335.172000", "200335.175000", "200335.177000", "200335.180000", "200335.182000", "200335.185000", "200335.187000", "200335.190000", "200335.192000", "200335.195000", "200335.197000", "200335.200000", "200335.202000", "200335.211000", "200335.213000", "200335.216000", "200335.218000", "200355.164000", "200355.167000", "200355.170000", "200355.172000", "200355.175000", "200355.177000", "200355.180000", "200355.182000", "200355.184000", "200355.187000", "200355.190000", "200355.192000", "200355.194000", "200355.197000", "200355.199000", "200355.202000", "200355.204000", "200355.207000", "200355.209000", "200355.212000", "200415.164000", "200415.167000", "200415.170000", "200415.172000", "200415.175000", "200415.177000", "200415.180000", "200415.182000", "200415.184000", "200415.187000", "200415.190000", "200415.192000", "200415.194000", "200415.197000", "200415.200000", "200415.202000", "200415.204000", "200415.207000", "200415.209000", "200415.212000", "200435.163000", "200435.166000", "200435.169000", "200435.171000", "200435.174000", "200435.176000", "200435.179000", "200435.181000", "200435.184000", "200435.186000", "200435.189000", "200435.191000", "200435.194000", "200435.196000", "200435.199000", "200435.201000", "200435.204000", "200435.206000", "200435.209000", "200435.211000", "200455.164000", "200455.166000", "200455.169000", "200455.171000", "200455.174000", "200455.176000", "200455.179000", "200455.181000", "200455.184000", "200455.186000", "200455.189000", "200455.191000", "200455.194000", "200455.196000", "200455.199000", "200455.201000", "200455.204000", "200455.206000", "200455.209000", "200455.211000", "200515.163000", "200515.166000", "200515.183000", "200515.185000", "200515.187000", "200515.190000", "200515.192000", "200515.195000", "200515.197000", "200515.200000", "200515.203000", "200515.205000", "200515.207000", "200515.210000", "200515.212000", "200515.215000", "200515.217000", "200515.220000", "200515.222000", "200515.225000", "200535.164000", "200535.166000", "200535.169000", "200535.171000", "200535.174000", "200535.176000", "200535.179000", "200535.181000", "200535.184000", "200535.186000", "200535.189000", "200535.191000", "200535.194000", "200535.196000", "200535.199000", "200535.202000", "200535.204000", "200535.206000", "200535.209000", "200535.211000", "200555.164000", "200555.167000", "200555.170000", "200555.172000", "200555.175000", "200555.177000", "200555.180000", "200555.182000", "200555.185000", "200555.187000", "200555.190000", "200555.192000", "200555.195000", "200555.197000", "200555.200000", "200555.202000", "200555.205000", "200555.207000", "200555.210000", "200555.212000", "200615.165000", "200615.167000", "200615.170000", "200615.172000", "200615.175000", "200615.177000", "200615.180000", "200615.182000", "200615.185000", "200615.187000", "200615.190000", "200615.192000", "200615.195000", "200615.197000", "200615.200000", "200615.202000", "200615.205000", "200615.207000", "200615.210000", "200615.212000", "200621.465000", "200621.469000", "200621.473000", "200621.475000", "200621.478000", "200621.482000", "200621.485000"],
      "InstanceCreationTime": ["200235.194000", "200235.197000", "200235.199000", "200235.202000", "200235.204000", "200235.207000", "200235.209000", "200235.212000", "200235.214000", "200235.217000", "200235.219000", "200235.229000", "200235.232000", "200235.234000", "200235.237000", "200235.239000", "200235.242000", "200235.244000", "200235.247000", "200235.249000", "200235.252000", "200235.254000", "200235.256000", "200235.259000", "200235.261000", "200235.264000", "200235.266000", "200235.269000", "200235.271000", "200235.274000", "200235.276000", "200235.284000", "200235.286000", "200235.289000", "200235.291000", "200235.294000", "200235.296000", "200255.164000", "200255.166000", "200255.169000", "200255.171000", "200255.174000", "200255.176000", "200255.179000", "200255.181000", "200255.184000", "200255.186000", "200255.189000", "200255.191000", "200255.194000", "200255.196000", "200255.199000", "200255.201000", "200255.204000", "200255.206000", "200255.209000", "200255.219000", "200315.163000", "200315.166000", "200315.169000", "200315.171000", "200315.174000", "200315.176000", "200315.179000", "200315.181000", "200315.184000", "200315.186000", "200315.189000", "200315.191000", "200315.194000", "200315.196000", "200315.198000", "200315.201000", "200315.203000", "200315.206000", "200315.208000", "200315.211000", "200335.164000", "200335.167000", "200335.170000", "200335.172000", "200335.175000", "200335.177000", "200335.180000", "200335.182000", "200335.185000", "200335.187000", "200335.190000", "200335.192000", "200335.195000", "200335.197000", "200335.200000", "200335.202000", "200335.211000", "200335.213000", "200335.216000", "200335.218000", "200355.164000", "200355.167000", "200355.170000", "200355.172000", "200355.175000", "200355.177000", "200355.180000", "200355.182000", "200355.184000", "200355.187000", "200355.190000", "200355.192000", "200355.194000", "200355.197000", "200355.199000", "200355.202000", "200355.204000", "200355.207000", "200355.209000", "200355.212000", "200415.164000", "200415.167000", "200415.170000", "200415.172000", "200415.175000", "200415.177000", "200415.180000", "200415.182000", "200415.184000", "200415.187000", "200415.190000", "200415.192000", "200415.194000", "200415.197000", "200415.200000", "200415.202000", "200415.204000", "200415.207000", "200415.209000", "200415.212000", "200435.163000", "200435.166000", "200435.169000", "200435.171000", "200435.174000", "200435.176000", "200435.179000", "200435.181000", "200435.184000", "200435.186000", "200435.189000", "200435.191000", "200435.194000", "200435.196000", "200435.199000", "200435.201000", "200435.204000", "200435.206000", "200435.209000", "200435.211000", "200455.164000", "200455.166000", "200455.169000", "200455.171000", "200455.174000", "200455.176000", "200455.179000", "200455.181000", "200455.184000", "200455.186000", "200455.189000", "200455.191000", "200455.194000", "200455.196000", "200455.199000", "200455.201000", "200455.204000", "200455.206000", "200455.209000", "200455.211000", "200515.163000", "200515.166000", "200515.183000", "200515.185000", "200515.187000", "200515.190000", "200515.192000", "200515.195000", "200515.197000", "200515.200000", "200515.203000", "200515.205000", "200515.207000", "200515.210000", "200515.212000", "200515.215000", "200515.217000", "200515.220000", "200515.222000", "200515.225000", "200535.164000", "200535.166000", "200535.169000", "200535.171000", "200535.174000", "200535.176000", "200535.179000", "200535.181000", "200535.184000", "200535.186000", "200535.189000", "200535.191000", "200535.194000", "200535.196000", "200535.199000", "200535.202000", "200535.204000", "200535.206000", "200535.209000", "200535.211000", "200555.164000", "200555.167000", "200555.170000", "200555.172000", "200555.175000", "200555.177000", "200555.180000", "200555.182000", "200555.185000", "200555.187000", "200555.190000", "200555.192000", "200555.195000", "200555.197000", "200555.200000", "200555.202000", "200555.205000", "200555.207000", "200555.210000", "200555.212000", "200615.165000", "200615.167000", "200615.170000", "200615.172000", "200615.175000", "200615.177000", "200615.180000", "200615.182000", "200615.185000", "200615.187000", "200615.190000", "200615.192000", "200615.195000", "200615.197000", "200615.200000", "200615.202000", "200615.205000", "200615.207000", "200615.210000", "200615.212000", "200621.465000", "200621.469000", "200621.473000", "200621.475000", "200621.478000", "200621.482000", "200621.485000"],
      "InstanceNumber": [1, 2, 3, 4, 5, 6, 7, 8, 9, 10, 11, 12, 13, 14, 15, 16, 17, 18, 19, 20, 21, 22, 23, 24, 25, 26, 27, 28, 29, 30, 31, 32, 33, 34, 35, 36, 37, 38, 39, 40, 41, 42, 43, 44, 45, 46, 47, 48, 49, 50, 51, 52, 53, 54, 55, 56, 57, 58, 59, 60, 61, 62, 63, 64, 65, 66, 67, 68, 69, 70, 71, 72, 73, 74, 75, 76, 77, 78, 79, 80, 81, 82, 83, 84, 85, 86, 87, 88, 89, 90, 91, 92, 93, 94, 95, 96, 97, 98, 99, 100, 101, 102, 103, 104, 105, 106, 107, 108, 109, 110, 111, 112, 113, 114, 115, 116, 117, 118, 119, 120, 121, 122, 123, 124, 125, 126, 127, 128, 129, 130, 131, 132, 133, 134, 135, 136, 137, 138, 139, 140, 141, 142, 143, 144, 145, 146, 147, 148, 149, 150, 151, 152, 153, 154, 155, 156, 157, 158, 159, 160, 161, 162, 163, 164, 165, 166, 167, 168, 169, 170, 171, 172, 173, 174, 175, 176, 177, 178, 179, 180, 181, 182, 183, 184, 185, 186, 187, 188, 189, 190, 191, 192, 193, 194, 195, 196, 197, 198, 199, 200, 201, 202, 203, 204, 205, 206, 207, 208, 209, 210, 211, 212, 213, 214, 215, 216, 217, 218, 219, 220, 221, 222, 223, 224, 225, 226, 227, 228, 229, 230, 231, 232, 233, 234, 235, 236, 237, 238, 239, 240, 241, 242, 243, 244, 245, 246, 247, 248, 249, 250, 251, 252, 253, 254, 255, 256, 257, 258, 259, 260, 261, 262, 263, 264],
      "LargestImagePixelValue": [10766, 10567, 10399, 10354, 10269, 10275, 10404, 10366, 10290, 10324, 10288, 10185, 10177, 10323, 10281, 10352, 10324, 10297, 10330, 10417, 10177, 10219, 10263, 10241, 10231, 10263, 10310, 10153, 10196, 10302, 10187, 10231, 10323, 10226, 10260, 10290, 10360, 10271, 10358, 10266, 10216, 10313, 10305, 10163, 10285, 10312, 10134, 10249, 10375, 10229, 10235, 10228, 10189, 10184, 10344, 10321, 10268, 10290, 10349, 10301, 10361, 10385, 10229, 10245, 10302, 10216, 10342, 10294, 10135, 10352, 10269, 10157, 10324, 10346, 10238, 10239, 10272, 10307, 10305, 10328, 10334, 10385, 10458, 10422, 10436, 10246, 10423, 10386, 10357, 10319, 10434, 10429, 10288, 10332, 10183, 10283, 10347, 10228, 10278, 10236, 10330, 10250, 10190, 10259, 10155, 10262, 10341, 10257, 10303, 10322, 10265, 10363, 10411, 10351, 10299, 10394, 10408, 10250, 10337, 10391, 10311, 10360, 10296, 10156, 10243, 10216, 10213, 10233, 10291, 10266, 10184, 10095, 10046, 10197, 10321, 10235, 10232, 10405, 10317, 10219, 10347, 10291, 10324, 10371, 10381, 10150, 10224, 10348, 10247, 10169, 10341, 10234, 10168, 10266, 10336, 10321, 10272, 10227, 10187, 10386, 10220, 10352, 10337, 10308, 10235, 10409, 10513, 10432, 10375, 10271, 10289, 10232, 10399, 10234, 10333, 10344, 10378, 10441, 10389, 10322, 10347, 10329, 10205, 10300, 10385, 10333, 10271, 10236, 10422, 10253, 10233, 10364, 10391, 10263, 10325, 10206, 10289, 10404, 10121, 10253, 10241, 10293, 10338, 10286, 10307, 10290, 10302, 10281, 10231, 10216, 10275, 10225, 10205, 10263, 10200, 10292, 10253, 10300, 10186, 10294, 10296, 10341, 10221, 10258, 10320, 10241, 10285, 10353, 10203, 10330, 10238, 10267, 10331, 10228, 10109, 10201, 10252, 10220, 10323, 10327, 10322, 10181, 10386, 10288, 10289, 10320, 10271, 10372, 10385, 10268, 10229, 10277, 10335, 10186, 10361, 10267, 10170, 10210, 10184, 10083, 10138, 10250, 10130, 10148],
      "TriggerTime": [8102.5, 9102.5, 10102.5, 11102.5, 12102.5, 13102.5, 14102.5, 15102.5, 16102.5, 17102.5, 18102.5, 19102.5, 20102.5, 21102.5, 22102.5, 23102.5, 24102.5, 25102.5, 26102.5, 27102.5, 28102.5, 29102.5, 30102.5, 31102.5, 32102.5, 33102.5, 34102.5, 35102.5, 36102.5, 37102.5, 38102.5, 39102.5, 40102.5, 41102.5, 42102.5, 43102.5, 44102.5, 45102.5, 46102.5, 47102.5, 48102.5, 49102.5, 50102.5, 51102.5, 52102.5, 53102.5, 54102.5, 55102.5, 56102.5, 57102.5, 58102.5, 59102.5, 60102.5, 61102.5, 62102.5, 63102.5, 64102.5, 65102.5, 66102.5, 67102.5, 68102.5, 69102.5, 70102.5, 71102.5, 72102.5, 73102.5, 74102.5, 75102.5, 76102.5, 77102.5, 78102.5, 79102.5, 80102.5, 81102.5, 82102.5, 83102.5, 84102.5, 85102.5, 86102.5, 87102.5, 88102.5, 89102.5, 90102.5, 91102.5, 92102.5, 93102.5, 94102.5, 95102.5, 96102.5, 97102.5, 98102.5, 99102.5, 100102.5, 101102.5, 102102.5, 103102.5, 104102.5, 105102.5, 106102.5, 107102.5, 108102.5, 109102.5, 110102.5, 111102.5, 112102.5, 113102.5, 114102.5, 115102.5, 116102.5, 117102.5, 118102.5, 119102.5, 120102.5, 121102.5, 122102.5, 123102.5, 124102.5, 125102.5, 126102.5, 127102.5, 128102.5, 129102.5, 130102.5, 131102.5, 132102.5, 133102.5, 134102.5, 135102.5, 136102.5, 137102.5, 138102.5, 139102.5, 140102.5, 141102.5, 142102.5, 143102.5, 144102.5, 145102.5, 146102.5, 147102.5, 148102.5, 149102.5, 150102.5, 151102.5, 152102.5, 153102.5, 154102.5, 155102.5, 156102.5, 157102.5, 158102.5, 159102.5, 160102.5, 161102.5, 162102.5, 163102.5, 164102.5, 165102.5, 166102.5, 167102.5, 168102.5, 169102.5, 170102.5, 171102.5, 172102.5, 173102.5, 174102.5, 175102.5, 176102.5, 177102.5, 178102.5, 179102.5, 180102.5, 181102.5, 182102.5, 183102.5, 184102.5, 185102.5, 186102.5, 187102.5, 188102.5, 189102.5, 190102.5, 191102.5, 192102.5, 193102.5, 194102.5, 195102.5, 196102.5, 197102.5, 198102.5, 199102.5, 200102.5, 201102.5, 202102.5, 203102.5, 204102.5, 205102.5, 206102.5, 207102.5, 208102.5, 209102.5, 210102.5, 211102.5, 212102.5, 213102.5, 214102.5, 215102.5, 216102.5, 217102.5, 218102.5, 219102.5, 220102.5, 221102.5, 222102.5, 223102.5, 224102.5, 225102.5, 226102.5, 227102.5, 228102.5, 229102.5, 230102.5, 231102.5, 232102.5, 233102.5, 234102.5, 235102.5, 236102.5, 237102.5, 238102.5, 239102.5, 240102.5, 241102.5, 242102.5, 243102.5, 244102.5, 245102.5, 246102.5, 247102.5, 248102.5, 249102.5, 250102.5, 251102.5, 252102.5, 253102.5, 254102.5, 255102.5, 256102.5, 257102.5, 258102.5, 259102.5, 260102.5, 261102.5, 262102.5, 263102.5, 264102.5, 265102.5, 266102.5, 267102.5, 268102.5, 269102.5, 270102.5, 271102.5],
      "WindowCenter": [4259.0, 4233.0, 4217.0, 4215.0, 4215.0, 4208.0, 4208.0, 4197.0, 4199.0, 4200.0, 4200.0, 4209.0, 4211.0, 4213.0, 4213.0, 4226.0, 4226.0, 4226.0, 4228.0, 4237.0, 4227.0, 4229.0, 4236.0, 4236.0, 4240.0, 4241.0, 4223.0, 4223.0, 4225.0, 4229.0, 4225.0, 4227.0, 4238.0, 4228.0, 4237.0, 4226.0, 4225.0, 4228.0, 4238.0, 4243.0, 4240.0, 4249.0, 4238.0, 4238.0, 4240.0, 4233.0, 4226.0, 4226.0, 4226.0, 4226.0, 4238.0, 4239.0, 4224.0, 4224.0, 4225.0, 4212.0, 4223.0, 4226.0, 4237.0, 4241.0, 4244.0, 4242.0, 4227.0, 4228.0, 4225.0, 4220.0, 4223.0, 4223.0, 4225.0, 4224.0, 4224.0, 4222.0, 4238.0, 4230.0, 4224.0, 4238.0, 4242.0, 4237.0, 4228.0, 4240.0, 4238.0, 4240.0, 4241.0, 4240.0, 4236.0, 4224.0, 4237.0, 4226.0, 4225.0, 4236.0, 4238.0, 4236.0, 4240.0, 4236.0, 4240.0, 4238.0, 4241.0, 4235.0, 4235.0, 4226.0, 4223.0, 4227.0, 4223.0, 4235.0, 4239.0, 4238.0, 4238.0, 4225.0, 4223.0, 4223.0, 4220.0, 4227.0, 4237.0, 4238.0, 4236.0, 4240.0, 4239.0, 4237.0, 4240.0, 4228.0, 4228.0, 4226.0, 4226.0, 4224.0, 4229.0, 4234.0, 4239.0, 4239.0, 4237.0, 4227.0, 4223.0, 4226.0, 4213.0, 4225.0, 4225.0, 4239.0, 4237.0, 4238.0, 4241.0, 4238.0, 4238.0, 4238.0, 4237.0, 4237.0, 4239.0, 4240.0, 4238.0, 4240.0, 4242.0, 4239.0, 4241.0, 4229.0, 4225.0, 4227.0, 4224.0, 4237.0, 4237.0, 4229.0, 4239.0, 4238.0, 4228.0, 4238.0, 4237.0, 4239.0, 4239.0, 4250.0, 4236.0, 4235.0, 4237.0, 4227.0, 4227.0, 4226.0, 4228.0, 4227.0, 4223.0, 4225.0, 4225.0, 4236.0, 4238.0, 4227.0, 4228.0, 4226.0, 4226.0, 4234.0, 4241.0, 4238.0, 4234.0, 4239.0, 4239.0, 4224.0, 4229.0, 4239.0, 4236.0, 4238.0, 4226.0, 4226.0, 4224.0, 4235.0, 4223.0, 4227.0, 4238.0, 4237.0, 4237.0, 4237.0, 4242.0, 4241.0, 4241.0, 4249.0, 4240.0, 4239.0, 4239.0, 4227.0, 4226.0, 4228.0, 4227.0, 4215.0, 4228.0, 4224.0, 4226.0, 4228.0, 4224.0, 4227.0, 4238.0, 4239.0, 4228.0, 4228.0, 4223.0, 4227.0, 4214.0, 4224.0, 4226.0, 4227.0, 4239.0, 4243.0, 4241.0, 4240.0, 4239.0, 4225.0, 4227.0, 4228.0, 4227.0, 4226.0, 4236.0, 4238.0, 4228.0, 4224.0, 4227.0, 4228.0, 4238.0, 4237.0, 4239.0, 4239.0, 4228.0, 4226.0, 4226.0, 4228.0, 4214.0, 4226.0, 4221.0, 4225.0, 4238.0, 4239.0, 4237.0, 4240.0],
