{
  "AcquisitionMatrixPE": 106,
  "AcquisitionNumber": 1,
  "AcquisitionTime": "19:46:16.702500",
  "BandwidthPerPixelPhaseEncode": 16.846,
  "BaseResolution": 106,
  "BodyPartExamined": "BRAIN",
  "CoilCombinationMethod": "Sum of Squares",
  "ConsistencyInfo": "N4_VE11C_LATEST_20160120",
  "ConversionSoftware": "dcm2niix",
  "ConversionSoftwareVersion": "v1.0.20220720",
  "DerivedVendorReportedEchoSpacing": 0.000560012,
  "DeviceSerialNumber": "166108",
  "DwellTime": 1.8e-06,
  "EchoTime": 0.0352,
  "EchoTrainLength": 106,
  "EffectiveEchoSpacing": 0.000560012,
  "FlipAngle": 60,
  "HeudiconvVersion": "1.3.0",
  "ImageComments": "Unaliased MB4/PE3/LB",
  "ImageOrientationPatientDICOM": [1, 0, 0, 0, 0.934826, -0.355107],
  "ImageOrientationText": "Tra>Cor(-20.8)",
  "ImageType": [
    "ORIGINAL",
    "PRIMARY",
    "M",
    "MB",
    "ND",
    "MOSAIC"
],
  "ImagingFrequency": 123.244,
  "InPlanePhaseEncodingDirectionDICOM": "COL",
  "InstitutionAddress": "Bedford Way 26,London,London,GB,WC1H 0AP",
  "InstitutionName": "University College",
  "InstitutionalDepartmentName": "Department",
  "MRAcquisitionType": "2D",
  "MagneticFieldStrength": 3,
  "Manufacturer": "Siemens",
  "ManufacturersModelName": "Prisma",
  "MatrixCoilMode": "SENSE",
  "Modality": "MR",
  "MultibandAccelerationFactor": 4,
  "NonlinearGradientCorrection": false,
  "PartialFourier": 1,
  "PatientPosition": "HFS",
  "PercentPhaseFOV": 100,
  "PercentSampling": 100,
  "PhaseEncodingDirection": "j-",
  "PhaseEncodingSteps": 106,
  "PhaseResolution": 1,
  "PixelBandwidth": 2620,
  "ProcedureStepDescription": "Tessa^LHON",
  "ProtocolName": "func-bold_task-pRF_run-03",
  "PulseSequenceDetails": "%CustomerSeq%\\cmrr_mbep2d_bold",
  "ReceiveCoilActiveElements": "HEA;HEP",
  "ReceiveCoilName": "Head_32",
  "ReconMatrixPE": 106,
  "RepetitionTime": 1,
  "SAR": 0.0782089,
  "ScanOptions": "FS\\EXT",
  "ScanningSequence": "EP",
  "SequenceName": "epfid2d1_106",
  "SequenceVariant": "SK\\SS",
  "SeriesDescription": "func-bold_task-pRF_run-03",
  "SeriesNumber": 14,
  "ShimSetting": [-1511, 568, 7422, 336, 2, -2, 122, -46],
  "SliceThickness": 2,
  "SliceTiming": [0, 0.4075, 0.815, 0.245, 0.6525, 0.08, 0.49, 0.8975, 0.325, 0.735, 0.1625, 0.57, 0, 0.4075, 0.815, 0.245, 0.6525, 0.08, 0.49, 0.8975, 0.325, 0.735, 0.1625, 0.57, 0, 0.4075, 0.815, 0.245, 0.6525, 0.08, 0.49, 0.8975, 0.325, 0.735, 0.1625, 0.57, 0, 0.4075, 0.815, 0.245, 0.6525, 0.08, 0.49, 0.8975, 0.325, 0.735, 0.1625, 0.57],
  "SoftwareVersions": "syngo MR E11",
  "SpacingBetweenSlices": 2,
  "StationName": "AWP166108",
  "TaskName": "retinotopy",
  "TotalReadoutTime": 0.0588013,
  "TxRefAmp": 217.472,
  "WipMemBlock": "e1c8a34f-8e6e-4b7b-86b1-40db9d120a2e||Sequence: R016 ve11c/master r/e634e98; Dec 19 2017 11:00:25 by eja",
  "dcmmeta_affine": [
    [-2.0, 0.0, 0.0, 106.0],
    [0.0, 1.8696513175964355, -0.7102138996124268, -74.98003387451172],
    [0.0, 0.7102138996124268, 1.8696513175964355, -54.342628479003906],
    [0.0, 0.0, 0.0, 1.0]
],
  "dcmmeta_reorient_transform": [
    [0.0, -1.0, 0.0, 105.0],
    [1.0, 0.0, 0.0, 0.0],
    [0.0, 0.0, 1.0, 0.0],
    [0.0, 0.0, 0.0, 1.0]
],
  "dcmmeta_shape": [106, 106, 48, 356],
  "dcmmeta_slice_dim": 2,
  "dcmmeta_version": 0.6,
  "global": {
    "const": {
      "AcquisitionMatrix": [106, 0, 0, 106],
      "AngioFlag": "N",
      "BitsAllocated": 16,
      "BitsStored": 16,
      "BodyPartExamined": "BRAIN",
      "CardiacNumberOfImages": 1,
      "Columns": 742,
      "EchoNumbers": 1,
      "EchoTime": 35.2,
      "EchoTrainLength": 106,
      "FlipAngle": 60.0,
      "HighBit": 15,
      "ImageOrientationPatient": [1.0, 0.0, 0.0, 0.0, 0.93482567701056, -0.3551069607903],
      "ImagePositionPatient": [-742.0, -715.88248698234, 246.07786016095],
      "ImageType": [
        "ORIGINAL",
        "PRIMARY",
        "M",
        "MB",
        "ND",
        "MOSAIC"
],
      "ImagedNucleus": "1H",
      "ImagingFrequency": 123.243631,
      "InPlanePhaseEncodingDirection": "COL",
      "MRAcquisitionType": "2D",
      "MagneticFieldStrength": 3.0,
      "Manufacturer": "SIEMENS",
      "ManufacturerModelName": "Prisma",
      "Modality": "MR",
      "NominalInterval": 0,
      "NumberOfAverages": 1.0,
      "NumberOfPhaseEncodingSteps": 106,
      "PercentPhaseFieldOfView": 100.0,
      "PercentSampling": 100.0,
      "PerformedProcedureStepStartTime": "183732.004000",
      "PhotometricInterpretation": "MONOCHROME2",
      "PixelBandwidth": 2620.0,
      "PixelRepresentation": 0,
      "PixelSpacing": [2.0, 2.0],
      "ProtocolName": "func-bold_task-pRF_run-03",
      "RepetitionTime": 1000.0,
      "Rows": 742,
      "SAR": 0.07820894245908,
      "SamplesPerPixel": 1,
      "ScanOptions": [
        "FS",
        "EXT"
],
      "ScanningSequence": "EP",
      "SequenceName": "epfid2d1_106",
      "SequenceVariant": [
        "SK",
        "SS"
],
      "SeriesDescription": "func-bold_task-pRF_run-03",
      "SeriesNumber": 14,
      "SeriesTime": "194655.197000",
      "SliceLocation": -24.174952013059,
      "SliceThickness": 2.0,
      "SmallestImagePixelValue": 0,
      "SoftwareVersions": "syngo MR E11",
      "SpacingBetweenSlices": 1.9999999197338,
      "SpecificCharacterSet": "ISO_IR 100",
      "StudyID": "1",
      "StudyTime": "183731.950000",
      "TransmitCoilName": "Body",
      "VariableFlipAngleFlag": "N",
      "WindowCenterWidthExplanation": "Algo1",
      "dBdt": 0.0},
    "slices": {}
  },
  "time": {
    "samples": {
      "AcquisitionNumber": [1, 2, 3, 4, 5, 6, 7, 8, 9, 10, 11, 12, 13, 14, 15, 16, 17, 18, 19, 20, 21, 22, 23, 24, 25, 26, 27, 28, 29, 30, 31, 32, 33, 34, 35, 36, 37, 38, 39, 40, 41, 42, 43, 44, 45, 46, 47, 48, 49, 50, 51, 52, 53, 54, 55, 56, 57, 58, 59, 60, 61, 62, 63, 64, 65, 66, 67, 68, 69, 70, 71, 72, 73, 74, 75, 76, 77, 78, 79, 80, 81, 82, 83, 84, 85, 86, 87, 88, 89, 90, 91, 92, 93, 94, 95, 96, 97, 98, 99, 100, 101, 102, 103, 104, 105, 106, 107, 108, 109, 110, 111, 112, 113, 114, 115, 116, 117, 118, 119, 120, 121, 122, 123, 124, 125, 126, 127, 128, 129, 130, 131, 132, 133, 134, 135, 136, 137, 138, 139, 140, 141, 142, 143, 144, 145, 146, 147, 148, 149, 150, 151, 152, 153, 154, 155, 156, 157, 158, 159, 160, 161, 162, 163, 164, 165, 166, 167, 168, 169, 170, 171, 172, 173, 174, 175, 176, 177, 178, 179, 180, 181, 182, 183, 184, 185, 186, 187, 188, 189, 190, 191, 192, 193, 194, 195, 196, 197, 198, 199, 200, 201, 202, 203, 204, 205, 206, 207, 208, 209, 210, 211, 212, 213, 214, 215, 216, 217, 218, 219, 220, 221, 222, 223, 224, 225, 226, 227, 228, 229, 230, 231, 232, 233, 234, 235, 236, 237, 238, 239, 240, 241, 242, 243, 244, 245, 246, 247, 248, 249, 250, 251, 252, 253, 254, 255, 256, 257, 258, 259, 260, 261, 262, 263, 264, 265, 266, 267, 268, 269, 270, 271, 272, 273, 274, 275, 276, 277, 278, 279, 280, 281, 282, 283, 284, 285, 286, 287, 288, 289, 290, 291, 292, 293, 294, 295, 296, 297, 298, 299, 300, 301, 302, 303, 304, 305, 306, 307, 308, 309, 310, 311, 312, 313, 314, 315, 316, 317, 318, 319, 320, 321, 322, 323, 324, 325, 326, 327, 328, 329, 330, 331, 332, 333, 334, 335, 336, 337, 338, 339, 340, 341, 342, 343, 344, 345, 346, 347, 348, 349, 350, 351, 352, 353, 354, 355, 356],
      "AcquisitionTime": ["194616.702500", "194617.702500", "194618.702500", "194619.702500", "194620.702500", "194621.702500", "194622.702500", "194623.702500", "194624.702500", "194625.702500", "194626.702500", "194627.702500", "194628.702500", "194629.702500", "194630.702500", "194631.702500", "194632.702500", "194633.702500", "194634.702500", "194635.702500", "194636.702500", "194637.702500", "194638.702500", "194639.702500", "194640.702500", "194641.702500", "194642.702500", "194643.702500", "194644.702500", "194645.702500", "194646.702500", "194647.702500", "194648.702500", "194649.702500", "194650.702500", "194651.702500", "194652.702500", "194653.702500", "194654.702500", "194655.702500", "194656.702500", "194657.702500", "194658.702500", "194659.702500", "194700.702500", "194701.702500", "194702.702500", "194703.702500", "194704.702500", "194705.702500", "194706.702500", "194707.702500", "194708.702500", "194709.702500", "194710.702500", "194711.702500", "194712.702500", "194713.702500", "194714.702500", "194715.702500", "194716.702500", "194717.702500", "194718.702500", "194719.702500", "194720.702500", "194721.702500", "194722.702500", "194723.702500", "194724.702500", "194725.702500", "194726.702500", "194727.702500", "194728.702500", "194729.702500", "194730.702500", "194731.702500", "194732.702500", "194733.702500", "194734.702500", "194735.702500", "194736.702500", "194737.702500", "194738.702500", "194739.702500", "194740.702500", "194741.702500", "194742.702500", "194743.702500", "194744.702500", "194745.702500", "194746.702500", "194747.702500", "194748.702500", "194749.702500", "194750.702500", "194751.702500", "194752.702500", "194753.702500", "194754.702500", "194755.702500", "194756.702500", "194757.702500", "194758.702500", "194759.702500", "194800.702500", "194801.702500", "194802.702500", "194803.702500", "194804.702500", "194805.702500", "194806.702500", "194807.702500", "194808.702500", "194809.702500", "194810.702500", "194811.702500", "194812.702500", "194813.702500", "194814.702500", "194815.702500", "194816.702500", "194817.702500", "194818.702500", "194819.702500", "194820.702500", "194821.702500", "194822.702500", "194823.702500", "194824.702500", "194825.702500", "194826.702500", "194827.702500", "194828.702500", "194829.702500", "194830.702500", "194831.702500", "194832.702500", "194833.702500", "194834.702500", "194835.702500", "194836.702500", "194837.702500", "194838.702500", "194839.702500", "194840.702500", "194841.702500", "194842.702500", "194843.702500", "194844.702500", "194845.702500", "194846.702500", "194847.702500", "194848.702500", "194849.702500", "194850.702500", "194851.702500", "194852.702500", "194853.702500", "194854.702500", "194855.702500", "194856.702500", "194857.702500", "194858.702500", "194859.702500", "194900.702500", "194901.702500", "194902.702500", "194903.702500", "194904.702500", "194905.702500", "194906.702500", "194907.702500", "194908.702500", "194909.702500", "194910.702500", "194911.702500", "194912.702500", "194913.702500", "194914.702500", "194915.702500", "194916.702500", "194917.702500", "194918.702500", "194919.702500", "194920.702500", "194921.702500", "194922.702500", "194923.702500", "194924.702500", "194925.702500", "194926.702500", "194927.702500", "194928.702500", "194929.702500", "194930.702500", "194931.702500", "194932.702500", "194933.702500", "194934.702500", "194935.702500", "194936.702500", "194937.702500", "194938.702500", "194939.702500", "194940.702500", "194941.702500", "194942.702500", "194943.702500", "194944.702500", "194945.702500", "194946.702500", "194947.702500", "194948.702500", "194949.702500", "194950.702500", "194951.702500", "194952.702500", "194953.702500", "194954.702500", "194955.702500", "194956.702500", "194957.702500", "194958.702500", "194959.702500", "195000.702500", "195001.702500", "195002.702500", "195003.702500", "195004.702500", "195005.702500", "195006.702500", "195007.702500", "195008.702500", "195009.702500", "195010.702500", "195011.702500", "195012.702500", "195013.702500", "195014.702500", "195015.702500", "195016.702500", "195017.702500", "195018.702500", "195019.702500", "195020.702500", "195021.702500", "195022.702500", "195023.702500", "195024.702500", "195025.702500", "195026.702500", "195027.702500", "195028.702500", "195029.702500", "195030.702500", "195031.702500", "195032.702500", "195033.702500", "195034.702500", "195035.702500", "195036.702500", "195037.702500", "195038.702500", "195039.702500", "195040.702500", "195041.702500", "195042.702500", "195043.702500", "195044.702500", "195045.702500", "195046.702500", "195047.702500", "195048.702500", "195049.702500", "195050.702500", "195051.702500", "195052.702500", "195053.702500", "195054.702500", "195055.702500", "195056.702500", "195057.702500", "195058.702500", "195059.702500", "195100.702500", "195101.702500", "195102.702500", "195103.702500", "195104.702500", "195105.702500", "195106.702500", "195107.702500", "195108.702500", "195109.702500", "195110.702500", "195111.702500", "195112.702500", "195113.702500", "195114.702500", "195115.702500", "195116.702500", "195117.702500", "195118.702500", "195119.702500", "195120.702500", "195121.702500", "195122.702500", "195123.702500", "195124.702500", "195125.702500", "195126.702500", "195127.702500", "195128.702500", "195129.702500", "195130.702500", "195131.702500", "195132.702500", "195133.702500", "195134.702500", "195135.702500", "195136.702500", "195137.702500", "195138.702500", "195139.702500", "195140.702500", "195141.702500", "195142.702500", "195143.702500", "195144.702500", "195145.702500", "195146.702500", "195147.702500", "195148.702500", "195149.702500", "195150.702500", "195151.702500", "195152.702500", "195153.702500", "195154.702500", "195155.702500", "195156.702500", "195157.702500", "195158.702500", "195159.702500", "195200.702500", "195201.702500", "195202.702500", "195203.702500", "195204.702500", "195205.702500", "195206.702500", "195207.702500", "195208.702500", "195209.702500", "195210.702500", "195211.702500"],
      "ContentTime": ["194655.200000", "194655.203000", "194655.205000", "194655.208000", "194655.221000", "194655.223000", "194655.226000", "194655.228000", "194655.231000", "194655.233000", "194655.236000", "194655.239000", "194655.242000", "194655.245000", "194655.248000", "194655.251000", "194655.253000", "194655.256000", "194655.259000", "194655.266000", "194655.268000", "194655.271000", "194655.273000", "194655.276000", "194655.278000", "194655.281000", "194655.283000", "194655.286000", "194655.288000", "194655.291000", "194655.293000", "194655.296000", "194655.298000", "194655.301000", "194655.303000", "194655.306000", "194655.308000", "194715.165000", "194715.167000", "194715.170000", "194715.173000", "194715.175000", "194715.178000", "194715.180000", "194715.183000", "194715.185000", "194715.188000", "194715.190000", "194715.193000", "194715.195000", "194715.198000", "194715.200000", "194715.203000", "194715.206000", "194715.208000", "194715.211000", "194715.213000", "194735.164000", "194735.167000", "194735.170000", "194735.172000", "194735.175000", "194735.177000", "194735.180000", "194735.182000", "194735.185000", "194735.187000", "194735.190000", "194735.192000", "194735.195000", "194735.198000", "194735.200000", "194735.203000", "194735.205000", "194735.208000", "194735.211000", "194735.214000", "194755.164000", "194755.167000", "194755.170000", "194755.182000", "194755.184000", "194755.187000", "194755.189000", "194755.192000", "194755.194000", "194755.197000", "194755.200000", "194755.202000", "194755.205000", "194755.207000", "194755.210000", "194755.213000", "194755.218000", "194755.220000", "194755.223000", "194755.225000", "194815.165000", "194815.167000", "194815.170000", "194815.173000", "194815.175000", "194815.178000", "194815.180000", "194815.183000", "194815.185000", "194815.188000", "194815.190000", "194815.193000", "194815.196000", "194815.206000", "194815.209000", "194815.212000", "194815.214000", "194815.217000", "194815.219000", "194815.222000", "194835.164000", "194835.166000", "194835.169000", "194835.171000", "194835.174000", "194835.177000", "194835.179000", "194835.182000", "194835.184000", "194835.187000", "194835.189000", "194835.192000", "194835.194000", "194835.197000", "194835.200000", "194835.202000", "194835.204000", "194835.207000", "194835.209000", "194835.212000", "194855.163000", "194855.166000", "194855.169000", "194855.171000", "194855.174000", "194855.176000", "194855.179000", "194855.182000", "194855.184000", "194855.187000", "194855.189000", "194855.192000", "194855.194000", "194855.197000", "194855.200000", "194855.203000", "194855.206000", "194855.209000", "194855.212000", "194855.214000", "194915.163000", "194915.166000", "194915.169000", "194915.171000", "194915.174000", "194915.176000", "194915.179000", "194915.181000", "194915.184000", "194915.186000", "194915.189000", "194915.192000", "194915.194000", "194915.197000", "194915.199000", "194915.202000", "194915.205000", "194915.207000", "194915.210000", "194915.223000", "194935.164000", "194935.167000", "194935.169000", "194935.172000", "194935.175000", "194935.177000", "194935.180000", "194935.182000", "194935.185000", "194935.187000", "194935.190000", "194935.192000", "194935.195000", "194935.198000", "194935.200000", "194935.203000", "194935.206000", "194935.209000", "194935.212000", "194935.215000", "194955.165000", "194955.167000", "194955.170000", "194955.191000", "194955.194000", "194955.197000", "194955.199000", "194955.202000", "194955.204000", "194955.207000", "194955.209000", "194955.212000", "194955.214000", "194955.217000", "194955.219000", "194955.222000", "194955.225000", "194955.228000", "194955.231000", "194955.234000", "195015.164000", "195015.167000", "195015.170000", "195015.172000", "195015.175000", "195015.177000", "195015.180000", "195015.182000", "195015.185000", "195015.187000", "195015.190000", "195015.192000", "195015.195000", "195015.198000", "195015.200000", "195015.203000", "195015.207000", "195015.210000", "195015.212000", "195015.215000", "195035.163000", "195035.166000", "195035.168000", "195035.171000", "195035.174000", "195035.176000", "195035.179000", "195035.182000", "195035.184000", "195035.187000", "195035.190000", "195035.192000", "195035.195000", "195035.197000", "195035.200000", "195035.203000", "195035.206000", "195035.209000", "195035.212000", "195035.215000", "195055.163000", "195055.166000", "195055.169000", "195055.171000", "195055.174000", "195055.176000", "195055.179000", "195055.181000", "195055.184000", "195055.186000", "195055.189000", "195055.191000", "195055.194000", "195055.197000", "195055.199000", "195055.202000", "195055.205000", "195055.208000", "195055.211000", "195055.214000", "195115.164000", "195115.166000", "195115.169000", "195115.171000", "195115.174000", "195115.177000", "195115.179000", "195115.182000", "195115.185000", "195115.187000", "195115.189000", "195115.192000", "195115.195000", "195115.197000", "195115.200000", "195115.203000", "195115.206000", "195115.209000", "195115.212000", "195115.215000", "195135.163000", "195135.166000", "195135.169000", "195135.171000", "195135.174000", "195135.176000", "195135.179000", "195135.181000", "195135.184000", "195135.187000", "195135.189000", "195135.192000", "195135.195000", "195135.197000", "195135.200000", "195135.202000", "195135.205000", "195135.207000", "195135.210000", "195135.212000", "195155.164000", "195155.167000", "195155.169000", "195155.172000", "195155.175000", "195155.177000", "195155.180000", "195155.182000", "195155.185000", "195155.187000", "195155.190000", "195155.192000", "195155.195000", "195155.197000", "195155.200000", "195155.203000", "195155.207000", "195155.210000", "195155.212000", "195155.215000", "195213.268000", "195213.271000", "195213.274000", "195213.277000", "195213.280000", "195213.283000", "195213.286000", "195213.289000", "195213.291000", "195213.294000", "195213.296000", "195213.299000", "195213.301000", "195213.304000", "195213.307000", "195213.310000", "195213.312000", "195213.315000", "195213.318000"],
      "InstanceCreationTime": ["194655.200000", "194655.203000", "194655.205000", "194655.208000", "194655.221000", "194655.223000", "194655.226000", "194655.228000", "194655.231000", "194655.233000", "194655.236000", "194655.239000", "194655.242000", "194655.245000", "194655.248000", "194655.251000", "194655.253000", "194655.256000", "194655.259000", "194655.266000", "194655.268000", "194655.271000", "194655.273000", "194655.276000", "194655.278000", "194655.281000", "194655.283000", "194655.286000", "194655.288000", "194655.291000", "194655.293000", "194655.296000", "194655.298000", "194655.301000", "194655.303000", "194655.306000", "194655.308000", "194715.165000", "194715.167000", "194715.170000", "194715.173000", "194715.175000", "194715.178000", "194715.180000", "194715.183000", "194715.185000", "194715.188000", "194715.190000", "194715.193000", "194715.195000", "194715.198000", "194715.200000", "194715.203000", "194715.206000", "194715.208000", "194715.211000", "194715.213000", "194735.164000", "194735.167000", "194735.170000", "194735.172000", "194735.175000", "194735.177000", "194735.180000", "194735.182000", "194735.185000", "194735.187000", "194735.190000", "194735.192000", "194735.195000", "194735.198000", "194735.200000", "194735.203000", "194735.205000", "194735.208000", "194735.211000", "194735.214000", "194755.164000", "194755.167000", "194755.170000", "194755.182000", "194755.184000", "194755.187000", "194755.189000", "194755.192000", "194755.194000", "194755.197000", "194755.200000", "194755.202000", "194755.205000", "194755.207000", "194755.210000", "194755.213000", "194755.218000", "194755.220000", "194755.223000", "194755.225000", "194815.165000", "194815.167000", "194815.170000", "194815.173000", "194815.175000", "194815.178000", "194815.180000", "194815.183000", "194815.185000", "194815.188000", "194815.190000", "194815.193000", "194815.196000", "194815.206000", "194815.209000", "194815.212000", "194815.214000", "194815.217000", "194815.219000", "194815.222000", "194835.164000", "194835.166000", "194835.169000", "194835.171000", "194835.174000", "194835.177000", "194835.179000", "194835.182000", "194835.184000", "194835.187000", "194835.189000", "194835.192000", "194835.194000", "194835.197000", "194835.200000", "194835.202000", "194835.204000", "194835.207000", "194835.209000", "194835.212000", "194855.163000", "194855.166000", "194855.169000", "194855.171000", "194855.174000", "194855.176000", "194855.179000", "194855.182000", "194855.184000", "194855.187000", "194855.189000", "194855.192000", "194855.194000", "194855.197000", "194855.200000", "194855.203000", "194855.206000", "194855.209000", "194855.212000", "194855.214000", "194915.163000", "194915.166000", "194915.169000", "194915.171000", "194915.174000", "194915.176000", "194915.179000", "194915.181000", "194915.184000", "194915.186000", "194915.189000", "194915.192000", "194915.194000", "194915.197000", "194915.199000", "194915.202000", "194915.205000", "194915.207000", "194915.210000", "194915.223000", "194935.164000", "194935.167000", "194935.169000", "194935.172000", "194935.175000", "194935.177000", "194935.180000", "194935.182000", "194935.185000", "194935.187000", "194935.190000", "194935.192000", "194935.195000", "194935.198000", "194935.200000", "194935.203000", "194935.206000", "194935.209000", "194935.212000", "194935.215000", "194955.165000", "194955.167000", "194955.170000", "194955.191000", "194955.194000", "194955.197000", "194955.199000", "194955.202000", "194955.204000", "194955.207000", "194955.209000", "194955.212000", "194955.214000", "194955.217000", "194955.219000", "194955.222000", "194955.225000", "194955.228000", "194955.231000", "194955.234000", "195015.164000", "195015.167000", "195015.170000", "195015.172000", "195015.175000", "195015.177000", "195015.180000", "195015.182000", "195015.185000", "195015.187000", "195015.190000", "195015.192000", "195015.195000", "195015.198000", "195015.200000", "195015.203000", "195015.207000", "195015.210000", "195015.212000", "195015.215000", "195035.163000", "195035.166000", "195035.168000", "195035.171000", "195035.174000", "195035.176000", "195035.179000", "195035.182000", "195035.184000", "195035.187000", "195035.190000", "195035.192000", "195035.195000", "195035.197000", "195035.200000", "195035.203000", "195035.206000", "195035.209000", "195035.212000", "195035.215000", "195055.163000", "195055.166000", "195055.169000", "195055.171000", "195055.174000", "195055.176000", "195055.179000", "195055.181000", "195055.184000", "195055.186000", "195055.189000", "195055.191000", "195055.194000", "195055.197000", "195055.199000", "195055.202000", "195055.205000", "195055.208000", "195055.211000", "195055.214000", "195115.164000", "195115.166000", "195115.169000", "195115.171000", "195115.174000", "195115.177000", "195115.179000", "195115.182000", "195115.185000", "195115.187000", "195115.189000", "195115.192000", "195115.195000", "195115.197000", "195115.200000", "195115.203000", "195115.206000", "195115.209000", "195115.212000", "195115.215000", "195135.163000", "195135.166000", "195135.169000", "195135.171000", "195135.174000", "195135.176000", "195135.179000", "195135.181000", "195135.184000", "195135.187000", "195135.189000", "195135.192000", "195135.195000", "195135.197000", "195135.200000", "195135.202000", "195135.205000", "195135.207000", "195135.210000", "195135.212000", "195155.164000", "195155.167000", "195155.169000", "195155.172000", "195155.175000", "195155.177000", "195155.180000", "195155.182000", "195155.185000", "195155.187000", "195155.190000", "195155.192000", "195155.195000", "195155.197000", "195155.200000", "195155.203000", "195155.207000", "195155.210000", "195155.212000", "195155.215000", "195213.268000", "195213.271000", "195213.274000", "195213.277000", "195213.280000", "195213.283000", "195213.286000", "195213.289000", "195213.291000", "195213.294000", "195213.296000", "195213.299000", "195213.301000", "195213.304000", "195213.307000", "195213.310000", "195213.312000", "195213.315000", "195213.318000"],
      "InstanceNumber": [1, 2, 3, 4, 5, 6, 7, 8, 9, 10, 11, 12, 13, 14, 15, 16, 17, 18, 19, 20, 21, 22, 23, 24, 25, 26, 27, 28, 29, 30, 31, 32, 33, 34, 35, 36, 37, 38, 39, 40, 41, 42, 43, 44, 45, 46, 47, 48, 49, 50, 51, 52, 53, 54, 55, 56, 57, 58, 59, 60, 61, 62, 63, 64, 65, 66, 67, 68, 69, 70, 71, 72, 73, 74, 75, 76, 77, 78, 79, 80, 81, 82, 83, 84, 85, 86, 87, 88, 89, 90, 91, 92, 93, 94, 95, 96, 97, 98, 99, 100, 101, 102, 103, 104, 105, 106, 107, 108, 109, 110, 111, 112, 113, 114, 115, 116, 117, 118, 119, 120, 121, 122, 123, 124, 125, 126, 127, 128, 129, 130, 131, 132, 133, 134, 135, 136, 137, 138, 139, 140, 141, 142, 143, 144, 145, 146, 147, 148, 149, 150, 151, 152, 153, 154, 155, 156, 157, 158, 159, 160, 161, 162, 163, 164, 165, 166, 167, 168, 169, 170, 171, 172, 173, 174, 175, 176, 177, 178, 179, 180, 181, 182, 183, 184, 185, 186, 187, 188, 189, 190, 191, 192, 193, 194, 195, 196, 197, 198, 199, 200, 201, 202, 203, 204, 205, 206, 207, 208, 209, 210, 211, 212, 213, 214, 215, 216, 217, 218, 219, 220, 221, 222, 223, 224, 225, 226, 227, 228, 229, 230, 231, 232, 233, 234, 235, 236, 237, 238, 239, 240, 241, 242, 243, 244, 245, 246, 247, 248, 249, 250, 251, 252, 253, 254, 255, 256, 257, 258, 259, 260, 261, 262, 263, 264, 265, 266, 267, 268, 269, 270, 271, 272, 273, 274, 275, 276, 277, 278, 279, 280, 281, 282, 283, 284, 285, 286, 287, 288, 289, 290, 291, 292, 293, 294, 295, 296, 297, 298, 299, 300, 301, 302, 303, 304, 305, 306, 307, 308, 309, 310, 311, 312, 313, 314, 315, 316, 317, 318, 319, 320, 321, 322, 323, 324, 325, 326, 327, 328, 329, 330, 331, 332, 333, 334, 335, 336, 337, 338, 339, 340, 341, 342, 343, 344, 345, 346, 347, 348, 349, 350, 351, 352, 353, 354, 355, 356],
      "LargestImagePixelValue": [10705, 10417, 10077, 10231, 9992, 9958, 9990, 9903, 9938, 9941, 9977, 9806, 9996, 9921, 9840, 10086, 10078, 9967, 10001, 9770, 9650, 9885, 9845, 9847, 9951, 9852, 9826, 9929, 9965, 10108, 10081, 10104, 10030, 10016, 9881, 9996, 9906, 9947, 9847, 9904, 10072, 9929, 9987, 9960, 10047, 9941, 9928, 10136, 10256, 10014, 10208, 10147, 10091, 10085, 10285, 10256, 10145, 10076, 10086, 10024, 9999, 10130, 10285, 10127, 10055, 10029, 10044, 10048, 10038, 10032, 10244, 10232, 10199, 10203, 10314, 10114, 10115, 10113, 10067, 10004, 9781, 9801, 9829, 9943, 9995, 9954, 10051, 10043, 10144, 9990, 10089, 10091, 9963, 10081, 10120, 10134, 10015, 9957, 10018, 10132, 10156, 10109, 10030, 9997, 10004, 10069, 10085, 10178, 10112, 10070, 9920, 9918, 10062, 9911, 9966, 10058, 10089, 9973, 10186, 10150, 10109, 10040, 10252, 10260, 10125, 10170, 10320, 10121, 10347, 10214, 10278, 10156, 10178, 10142, 10167, 10099, 10185, 10220, 10240, 10194, 10159, 10136, 10293, 10189, 10144, 10228, 10095, 10144, 10237, 10127, 10265, 10234, 10314, 10139, 10102, 10166, 10028, 10101, 10126, 10194, 10080, 10117, 10319, 10173, 10284, 10364, 10238, 10151, 9976, 10182, 10247, 10112, 10169, 10174, 10012, 10077, 9921, 9927, 10068, 9956, 10069, 10036, 10151, 10170, 10267, 10121, 10104, 10209, 10129, 10030, 10071, 10030, 10192, 10145, 10172, 10132, 10250, 10225, 10159, 10134, 10091, 10177, 10151, 10206, 10166, 10204, 10031, 9981, 10127, 10076, 10075, 10122, 10046, 10243, 10154, 10098, 10061, 10054, 10218, 10137, 10127, 10085, 10155, 10137, 10068, 10190, 10115, 10201, 10080, 9985, 10163, 10143, 10100, 10130, 10256, 10170, 10112, 10099, 10116, 10247, 10174, 10078, 10149, 10066, 10037, 10085, 10107, 10244, 10166, 10303, 10083, 10104, 10160, 10191, 10234, 10178, 10129, 10071, 10100, 10501, 10237, 10227, 10313, 10359, 10230, 10211, 10154, 10216, 10184, 10196, 10255, 10233, 10213, 10298, 10242, 10273, 10191, 10135, 10107, 10041, 10013, 9997, 10127, 10256, 10013, 10179, 10175, 10127, 10135, 9935, 10239, 10115, 10192, 10016, 10238, 10072, 10137, 9997, 9989, 9993, 10154, 10168, 10068, 9998, 10130, 10097, 10007, 10010, 10223, 10056, 10091, 10185, 10308, 10218, 10182, 10098, 9912, 10091, 10116, 9984, 9885, 10051, 9974, 10067, 10109, 9999, 9892, 9982, 10106, 10074, 10098, 10046, 9991, 10080, 9954, 10047, 9943, 10050, 10105, 10110, 9953, 9980, 10117, 9985, 10110, 10098, 10011, 10028, 10006, 9920, 10162, 10036, 10030, 9982, 10127, 10104],
