{
  "AcquisitionMatrixPE": 106,
  "AcquisitionNumber": 1,
  "AcquisitionTime": "20:33:3.995000",
  "BandwidthPerPixelPhaseEncode": 16.846,
  "BaseResolution": 106,
  "BodyPartExamined": "BRAIN",
  "CoilCombinationMethod": "Sum of Squares",
  "ConsistencyInfo": "N4_VE11C_LATEST_20160120",
  "ConversionSoftware": "dcm2niix",
  "ConversionSoftwareVersion": "v1.0.20220720",
  "DerivedVendorReportedEchoSpacing": 0.000560012,
  "DeviceSerialNumber": "166108",
  "DwellTime": 1.8e-06,
  "EchoTime": 0.0352,
  "EchoTrainLength": 106,
  "EffectiveEchoSpacing": 0.000560012,
  "FlipAngle": 60,
  "HeudiconvVersion": "1.3.0",
  "ImageComments": "Unaliased MB4/PE3/LB",
  "ImageOrientationPatientDICOM": [1, 0, 0, 0, 1, 0],
  "ImageOrientationText": "Tra",
  "ImageType": [
    "ORIGINAL",
    "PRIMARY",
    "M",
    "MB",
    "ND",
    "MOSAIC"
],
  "ImagingFrequency": 123.244,
  "InPlanePhaseEncodingDirectionDICOM": "COL",
  "InstitutionAddress": "Bedford Way 26,London,London,GB,WC1H 0AP",
  "InstitutionName": "University College",
  "InstitutionalDepartmentName": "Department",
  "MRAcquisitionType": "2D",
  "MagneticFieldStrength": 3,
  "Manufacturer": "Siemens",
  "ManufacturersModelName": "Prisma",
  "MatrixCoilMode": "SENSE",
  "Modality": "MR",
  "MultibandAccelerationFactor": 4,
  "NonlinearGradientCorrection": false,
  "PartialFourier": 1,
  "PatientPosition": "HFS",
  "PercentPhaseFOV": 100,
  "PercentSampling": 100,
  "PhaseEncodingDirection": "j-",
  "PhaseEncodingSteps": 106,
  "PhaseResolution": 1,
  "PixelBandwidth": 2620,
  "ProcedureStepDescription": "Egor^MovieProject2",
  "ProtocolName": "task-backtothefuture_run-3",
  "PulseSequenceDetails": "%CustomerSeq%\\cmrr_mbep2d_bold",
  "ReceiveCoilActiveElements": "HEA;HEP",
  "ReceiveCoilName": "Head_32",
  "ReconMatrixPE": 106,
  "RepetitionTime": 1.5,
  "SAR": 0.0993824,
  "ScanOptions": "FS\\EXT",
  "ScanningSequence": "EP",
  "SequenceName": "epfid2d1_106",
  "SequenceVariant": "SK\\SS",
  "SeriesDescription": "task-backtothefuture_run-3",
  "SeriesNumber": 12,
  "ShimSetting": [-1520, 606, 7409, 212, -123, 170, 247, -33],
  "SliceThickness": 2,
  "SliceTiming": [0, 1.0675, 0.6575, 0.245, 1.315, 0.905, 0.4925, 0.0825, 1.15, 0.74, 0.3275, 1.3975, 0.985, 0.575, 0.165, 1.2325, 0.8225, 0.41, 0, 1.0675, 0.6575, 0.245, 1.315, 0.905, 0.4925, 0.0825, 1.15, 0.74, 0.3275, 1.3975, 0.985, 0.575, 0.165, 1.2325, 0.8225, 0.41, 0, 1.0675, 0.6575, 0.245, 1.315, 0.905, 0.4925, 0.0825, 1.15, 0.74, 0.3275, 1.3975, 0.985, 0.575, 0.165, 1.2325, 0.8225, 0.41, 0, 1.0675, 0.6575, 0.245, 1.315, 0.905, 0.4925, 0.0825, 1.15, 0.74, 0.3275, 1.3975, 0.985, 0.575, 0.165, 1.2325, 0.8225, 0.41],
  "SoftwareVersions": "syngo MR E11",
  "SpacingBetweenSlices": 2,
  "StationName": "AWP166108",
  "TaskName": "backtothefuture",
  "TotalReadoutTime": 0.0588013,
  "TxRefAmp": 298.236,
  "WipMemBlock": "9a1d0660-2b03-4fa7-a37f-6272d1acb199||Sequence: R016 ve11c/master r/e634e98; Dec 19 2017 11:00:25 by eja",
  "dcmmeta_affine": [
    [-2.0, 0.0, 0.0, 106.0],
    [0.0, 2.0, 0.0, -79.90361785888672],
    [0.0, 0.0, 2.0, -68.59036254882812],
    [0.0, 0.0, 0.0, 1.0]
],
  "dcmmeta_reorient_transform": [
    [0.0, -1.0, 0.0, 105.0],
    [1.0, 0.0, 0.0, 0.0],
    [0.0, 0.0, 1.0, 0.0],
    [0.0, 0.0, 0.0, 1.0]
],
  "dcmmeta_shape": [106, 106, 72, 1608],
  "dcmmeta_slice_dim": 2,
  "dcmmeta_version": 0.6,
  "global": {
    "const": {
      "AcquisitionMatrix": [106, 0, 0, 106],
      "AngioFlag": "N",
      "BitsAllocated": 16,
      "BitsStored": 16,
      "BodyPartExamined": "BRAIN",
      "CardiacNumberOfImages": 1,
      "Columns": 954,
      "EchoNumbers": 1,
      "EchoTime": 35.2,
      "EchoTrainLength": 106,
      "FlipAngle": 60.0,
      "HighBit": 15,
      "ImageOrientationPatient": [1.0, 0.0, 0.0, 0.0, 1.0, 0.0],
      "ImagePositionPatient": [-954.0, -978.09638595581, -68.590362548828],
      "ImageType": [
        "ORIGINAL",
        "PRIMARY",
        "M",
        "MB",
        "ND",
        "MOSAIC"
],
      "ImagedNucleus": "1H",
      "ImagingFrequency": 123.243618,
      "InPlanePhaseEncodingDirection": "COL",
      "MRAcquisitionType": "2D",
      "MagneticFieldStrength": 3.0,
      "Manufacturer": "SIEMENS",
      "ManufacturerModelName": "Prisma",
      "Modality": "MR",
      "NominalInterval": 0,
      "NumberOfAverages": 1.0,
      "NumberOfPhaseEncodingSteps": 106,
      "PercentPhaseFieldOfView": 100.0,
      "PercentSampling": 100.0,
      "PerformedProcedureStepStartTime": "182620.111000",
      "PhotometricInterpretation": "MONOCHROME2",
      "PixelBandwidth": 2620.0,
      "PixelRepresentation": 0,
      "PixelSpacing": [2.0, 2.0],
      "ProtocolName": "task-backtothefuture_run-3",
      "RepetitionTime": 1500.0,
      "Rows": 954,
      "SAR": 0.09938241098855,
      "SamplesPerPixel": 1,
      "ScanOptions": [
        "FS",
        "EXT"
],
      "ScanningSequence": "EP",
      "SequenceName": "epfid2d1_106",
      "SequenceVariant": [
        "SK",
        "SS"
],
      "SeriesDescription": "task-backtothefuture_run-3",
      "SeriesNumber": 12,
      "SeriesTime": "203345.300000",
      "SliceLocation": -68.590362548828,
      "SliceThickness": 2.0,
      "SmallestImagePixelValue": 0,
      "SoftwareVersions": "syngo MR E11",
      "SpacingBetweenSlices": 2.0,
      "SpecificCharacterSet": "ISO_IR 100",
      "StudyID": "1",
      "StudyTime": "182620.044000",
      "TransmitCoilName": "Body",
      "VariableFlipAngleFlag": "N",
      "WindowCenterWidthExplanation": "Algo1",
      "dBdt": 0.0},
    "slices": {}
  },
  "time": {
    "samples": {
      "AcquisitionNumber": [1, 2, 3, 4, 5, 6, 7, 8, 9, 10, 11, 12, 13, 14, 15, 16, 17, 18, 19, 20, 21, 22, 23, 24, 25, 26, 27, 28, 29, 30, 31, 32, 33, 34, 35, 36, 37, 38, 39, 40, 41, 42, 43, 44, 45, 46, 47, 48, 49, 50, 51, 52, 53, 54, 55, 56, 57, 58, 59, 60, 61, 62, 63, 64, 65, 66, 67, 68, 69, 70, 71, 72, 73, 74, 75, 76, 77, 78, 79, 80, 81, 82, 83, 84, 85, 86, 87, 88, 89, 90, 91, 92, 93, 94, 95, 96, 97, 98, 99, 100, 101, 102, 103, 104, 105, 106, 107, 108, 109, 110, 111, 112, 113, 114, 115, 116, 117, 118, 119, 120, 121, 122, 123, 124, 125, 126, 127, 128, 129, 130, 131, 132, 133, 134, 135, 136, 137, 138, 139, 140, 141, 142, 143, 144, 145, 146, 147, 148, 149, 150, 151, 152, 153, 154, 155, 156, 157, 158, 159, 160, 161, 162, 163, 164, 165, 166, 167, 168, 169, 170, 171, 172, 173, 174, 175, 176, 177, 178, 179, 180, 181, 182, 183, 184, 185, 186, 187, 188, 189, 190, 191, 192, 193, 194, 195, 196, 197, 198, 199, 200, 201, 202, 203, 204, 205, 206, 207, 208, 209, 210, 211, 212, 213, 214, 215, 216, 217, 218, 219, 220, 221, 222, 223, 224, 225, 226, 227, 228, 229, 230, 231, 232, 233, 234, 235, 236, 237, 238, 239, 240, 241, 242, 243, 244, 245, 246, 247, 248, 249, 250, 251, 252, 253, 254, 255, 256, 257, 258, 259, 260, 261, 262, 263, 264, 265, 266, 267, 268, 269, 270, 271, 272, 273, 274, 275, 276, 277, 278, 279, 280, 281, 282, 283, 284, 285, 286, 287, 288, 289, 290, 291, 292, 293, 294, 295, 296, 297, 298, 299, 300, 301, 302, 303, 304, 305, 306, 307, 308, 309, 310, 311, 312, 313, 314, 315, 316, 317, 318, 319, 320, 321, 322, 323, 324, 325, 326, 327, 328, 329, 330, 331, 332, 333, 334, 335, 336, 337, 338, 339, 340, 341, 342, 343, 344, 345, 346, 347, 348, 349, 350, 351, 352, 353, 354, 355, 356, 357, 358, 359, 360, 361, 362, 363, 364, 365, 366, 367, 368, 369, 370, 371, 372, 373, 374, 375, 376, 377, 378, 379, 380, 381, 382, 383, 384, 385, 386, 387, 388, 389, 390, 391, 392, 393, 394, 395, 396, 397, 398, 399, 400, 401, 402, 403, 404, 405, 406, 407, 408, 409, 410, 411, 412, 413, 414, 415, 416, 417, 418, 419, 420, 421, 422, 423, 424, 425, 426, 427, 428, 429, 430, 431, 432, 433, 434, 435, 436, 437, 438, 439, 440, 441, 442, 443, 444, 445, 446, 447, 448, 449, 450, 451, 452, 453, 454, 455, 456, 457, 458, 459, 460, 461, 462, 463, 464, 465, 466, 467, 468, 469, 470, 471, 472, 473, 474, 475, 476, 477, 478, 479, 480, 481, 482, 483, 484, 485, 486, 487, 488, 489, 490, 491, 492, 493, 494, 495, 496, 497, 498, 499, 500, 501, 502, 503, 504, 505, 506, 507, 508, 509, 510, 511, 512, 513, 514, 515, 516, 517, 518, 519, 520, 521, 522, 523, 524, 525, 526, 527, 528, 529, 530, 531, 532, 533, 534, 535, 536, 537, 538, 539, 540, 541, 542, 543, 544, 545, 546, 547, 548, 549, 550, 551, 552, 553, 554, 555, 556, 557, 558, 559, 560, 561, 562, 563, 564, 565, 566, 567, 568, 569, 570, 571, 572, 573, 574, 575, 576, 577, 578, 579, 580, 581, 582, 583, 584, 585, 586, 587, 588, 589, 590, 591, 592, 593, 594, 595, 596, 597, 598, 599, 600, 601, 602, 603, 604, 605, 606, 607, 608, 609, 610, 611, 612, 613, 614, 615, 616, 617, 618, 619, 620, 621, 622, 623, 624, 625, 626, 627, 628, 629, 630, 631, 632, 633, 634, 635, 636, 637, 638, 639, 640, 641, 642, 643, 644, 645, 646, 647, 648, 649, 650, 651, 652, 653, 654, 655, 656, 657, 658, 659, 660, 661, 662, 663, 664, 665, 666, 667, 668, 669, 670, 671, 672, 673, 674, 675, 676, 677, 678, 679, 680, 681, 682, 683, 684, 685, 686, 687, 688, 689, 690, 691, 692, 693, 694, 695, 696, 697, 698, 699, 700, 701, 702, 703, 704, 705, 706, 707, 708, 709, 710, 711, 712, 713, 714, 715, 716, 717, 718, 719, 720, 721, 722, 723, 724, 725, 726, 727, 728, 729, 730, 731, 732, 733, 734, 735, 736, 737, 738, 739, 740, 741, 742, 743, 744, 745, 746, 747, 748, 749, 750, 751, 752, 753, 754, 755, 756, 757, 758, 759, 760, 761, 762, 763, 764, 765, 766, 767, 768, 769, 770, 771, 772, 773, 774, 775, 776, 777, 778, 779, 780, 781, 782, 783, 784, 785, 786, 787, 788, 789, 790, 791, 792, 793, 794, 795, 796, 797, 798, 799, 800, 801, 802, 803, 804, 805, 806, 807, 808, 809, 810, 811, 812, 813, 814, 815, 816, 817, 818, 819, 820, 821, 822, 823, 824, 825, 826, 827, 828, 829, 830, 831, 832, 833, 834, 835, 836, 837, 838, 839, 840, 841, 842, 843, 844, 845, 846, 847, 848, 849, 850, 851, 852, 853, 854, 855, 856, 857, 858, 859, 860, 861, 862, 863, 864, 865, 866, 867, 868, 869, 870, 871, 872, 873, 874, 875, 876, 877, 878, 879, 880, 881, 882, 883, 884, 885, 886, 887, 888, 889, 890, 891, 892, 893, 894, 895, 896, 897, 898, 899, 900, 901, 902, 903, 904, 905, 906, 907, 908, 909, 910, 911, 912, 913, 914, 915, 916, 917, 918, 919, 920, 921, 922, 923, 924, 925, 926, 927, 928, 929, 930, 931, 932, 933, 934, 935, 936, 937, 938, 939, 940, 941, 942, 943, 944, 945, 946, 947, 948, 949, 950, 951, 952, 953, 954, 955, 956, 957, 958, 959, 960, 961, 962, 963, 964, 965, 966, 967, 968, 969, 970, 971, 972, 973, 974, 975, 976, 977, 978, 979, 980, 981, 982, 983, 984, 985, 986, 987, 988, 989, 990, 991, 992, 993, 994, 995, 996, 997, 998, 999, 1000, 1001, 1002, 1003, 1004, 1005, 1006, 1007, 1008, 1009, 1010, 1011, 1012, 1013, 1014, 1015, 1016, 1017, 1018, 1019, 1020, 1021, 1022, 1023, 1024, 1025, 1026, 1027, 1028, 1029, 1030, 1031, 1032, 1033, 1034, 1035, 1036, 1037, 1038, 1039, 1040, 1041, 1042, 1043, 1044, 1045, 1046, 1047, 1048, 1049, 1050, 1051, 1052, 1053, 1054, 1055, 1056, 1057, 1058, 1059, 1060, 1061, 1062, 1063, 1064, 1065, 1066, 1067, 1068, 1069, 1070, 1071, 1072, 1073, 1074, 1075, 1076, 1077, 1078, 1079, 1080, 1081, 1082, 1083, 1084, 1085, 1086, 1087, 1088, 1089, 1090, 1091, 1092, 1093, 1094, 1095, 1096, 1097, 1098, 1099, 1100, 1101, 1102, 1103, 1104, 1105, 1106, 1107, 1108, 1109, 1110, 1111, 1112, 1113, 1114, 1115, 1116, 1117, 1118, 1119, 1120, 1121, 1122, 1123, 1124, 1125, 1126, 1127, 1128, 1129, 1130, 1131, 1132, 1133, 1134, 1135, 1136, 1137, 1138, 1139, 1140, 1141, 1142, 1143, 1144, 1145, 1146, 1147, 1148, 1149, 1150, 1151, 1152, 1153, 1154, 1155, 1156, 1157, 1158, 1159, 1160, 1161, 1162, 1163, 1164, 1165, 1166, 1167, 1168, 1169, 1170, 1171, 1172, 1173, 1174, 1175, 1176, 1177, 1178, 1179, 1180, 1181, 1182, 1183, 1184, 1185, 1186, 1187, 1188, 1189, 1190, 1191, 1192, 1193, 1194, 1195, 1196, 1197, 1198, 1199, 1200, 1201, 1202, 1203, 1204, 1205, 1206, 1207, 1208, 1209, 1210, 1211, 1212, 1213, 1214, 1215, 1216, 1217, 1218, 1219, 1220, 1221, 1222, 1223, 1224, 1225, 1226, 1227, 1228, 1229, 1230, 1231, 1232, 1233, 1234, 1235, 1236, 1237, 1238, 1239, 1240, 1241, 1242, 1243, 1244, 1245, 1246, 1247, 1248, 1249, 1250, 1251, 1252, 1253, 1254, 1255, 1256, 1257, 1258, 1259, 1260, 1261, 1262, 1263, 1264, 1265, 1266, 1267, 1268, 1269, 1270, 1271, 1272, 1273, 1274, 1275, 1276, 1277, 1278, 1279, 1280, 1281, 1282, 1283, 1284, 1285, 1286, 1287, 1288, 1289, 1290, 1291, 1292, 1293, 1294, 1295, 1296, 1297, 1298, 1299, 1300, 1301, 1302, 1303, 1304, 1305, 1306, 1307, 1308, 1309, 1310, 1311, 1312, 1313, 1314, 1315, 1316, 1317, 1318, 1319, 1320, 1321, 1322, 1323, 1324, 1325, 1326, 1327, 1328, 1329, 1330, 1331, 1332, 1333, 1334, 1335, 1336, 1337, 1338, 1339, 1340, 1341, 1342, 1343, 1344, 1345, 1346, 1347, 1348, 1349, 1350, 1351, 1352, 1353, 1354, 1355, 1356, 1357, 1358, 1359, 1360, 1361, 1362, 1363, 1364, 1365, 1366, 1367, 1368, 1369, 1370, 1371, 1372, 1373, 1374, 1375, 1376, 1377, 1378, 1379, 1380, 1381, 1382, 1383, 1384, 1385, 1386, 1387, 1388, 1389, 1390, 1391, 1392, 1393, 1394, 1395, 1396, 1397, 1398, 1399, 1400, 1401, 1402, 1403, 1404, 1405, 1406, 1407, 1408, 1409, 1410, 1411, 1412, 1413, 1414, 1415, 1416, 1417, 1418, 1419, 1420, 1421, 1422, 1423, 1424, 1425, 1426, 1427, 1428, 1429, 1430, 1431, 1432, 1433, 1434, 1435, 1436, 1437, 1438, 1439, 1440, 1441, 1442, 1443, 1444, 1445, 1446, 1447, 1448, 1449, 1450, 1451, 1452, 1453, 1454, 1455, 1456, 1457, 1458, 1459, 1460, 1461, 1462, 1463, 1464, 1465, 1466, 1467, 1468, 1469, 1470, 1471, 1472, 1473, 1474, 1475, 1476, 1477, 1478, 1479, 1480, 1481, 1482, 1483, 1484, 1485, 1486, 1487, 1488, 1489, 1490, 1491, 1492, 1493, 1494, 1495, 1496, 1497, 1498, 1499, 1500, 1501, 1502, 1503, 1504, 1505, 1506, 1507, 1508, 1509, 1510, 1511, 1512, 1513, 1514, 1515, 1516, 1517, 1518, 1519, 1520, 1521, 1522, 1523, 1524, 1525, 1526, 1527, 1528, 1529, 1530, 1531, 1532, 1533, 1534, 1535, 1536, 1537, 1538, 1539, 1540, 1541, 1542, 1543, 1544, 1545, 1546, 1547, 1548, 1549, 1550, 1551, 1552, 1553, 1554, 1555, 1556, 1557, 1558, 1559, 1560, 1561, 1562, 1563, 1564, 1565, 1566, 1567, 1568, 1569, 1570, 1571, 1572, 1573, 1574, 1575, 1576, 1577, 1578, 1579, 1580, 1581, 1582, 1583, 1584, 1585, 1586, 1587, 1588, 1589, 1590, 1591, 1592, 1593, 1594, 1595, 1596, 1597, 1598, 1599, 1600, 1601, 1602, 1603, 1604, 1605, 1606, 1607, 1608],
      "AcquisitionTime": ["203303.995000", "203305.495000", "203306.995000", "203308.495000", "203309.995000", "203311.495000", "203312.995000", "203314.495000", "203315.995000", "203317.495000", "203318.995000", "203320.495000", "203321.995000", "203323.495000", "203324.995000", "203326.495000", "203327.995000", "203329.495000", "203330.995000", "203332.495000", "203333.995000", "203335.495000", "203336.995000", "203338.495000", "203339.995000", "203341.495000", "203342.995000", "203344.495000", "203345.995000", "203347.495000", "203348.995000", "203350.495000", "203351.995000", "203353.495000", "203354.995000", "203356.495000", "203357.995000", "203359.495000", "203400.995000", "203402.495000", "203403.995000", "203405.495000", "203406.995000", "203408.495000", "203409.995000", "203411.495000", "203412.995000", "203414.495000", "203415.995000", "203417.495000", "203418.995000", "203420.495000", "203421.995000", "203423.495000", "203424.995000", "203426.495000", "203427.995000", "203429.495000", "203430.995000", "203432.495000", "203433.995000", "203435.495000", "203436.995000", "203438.495000", "203439.995000", "203441.495000", "203442.995000", "203444.495000", "203445.995000", "203447.495000", "203448.995000", "203450.495000", "203451.995000", "203453.495000", "203454.995000", "203456.495000", "203457.995000", "203459.495000", "203500.995000", "203502.495000", "203503.995000", "203505.495000", "203506.995000", "203508.495000", "203509.995000", "203511.495000", "203512.995000", "203514.495000", "203515.995000", "203517.495000", "203518.995000", "203520.495000", "203521.995000", "203523.495000", "203524.995000", "203526.495000", "203527.995000", "203529.495000", "203530.995000", "203532.495000", "203533.995000", "203535.495000", "203536.995000", "203538.495000", "203539.995000", "203541.495000", "203542.995000", "203544.495000", "203545.995000", "203547.495000", "203548.995000", "203550.495000", "203551.995000", "203553.495000", "203554.995000", "203556.495000", "203557.995000", "203559.495000", "203600.995000", "203602.495000", "203603.995000", "203605.495000", "203606.995000", "203608.495000", "203609.995000", "203611.495000", "203612.995000", "203614.495000", "203615.995000", "203617.495000", "203618.995000", "203620.495000", "203621.995000", "203623.495000", "203624.995000", "203626.495000", "203627.995000", "203629.495000", "203630.995000", "203632.495000", "203633.995000", "203635.495000", "203636.995000", "203638.495000", "203639.995000", "203641.495000", "203642.995000", "203644.495000", "203645.995000", "203647.495000", "203648.995000", "203650.495000", "203651.995000", "203653.495000", "203654.995000", "203656.495000", "203657.995000", "203659.495000", "203700.995000", "203702.495000", "203703.995000", "203705.495000", "203706.995000", "203708.495000", "203709.995000", "203711.495000", "203712.995000", "203714.495000", "203715.995000", "203717.495000", "203718.995000", "203720.495000", "203721.995000", "203723.495000", "203724.995000", "203726.495000", "203727.995000", "203729.495000", "203730.995000", "203732.495000", "203733.995000", "203735.495000", "203736.995000", "203738.495000", "203739.995000", "203741.495000", "203742.995000", "203744.495000", "203745.995000", "203747.495000", "203748.995000", "203750.495000", "203751.995000", "203753.495000", "203754.995000", "203756.495000", "203757.995000", "203759.495000", "203800.995000", "203802.495000", "203803.995000", "203805.495000", "203806.995000", "203808.495000", "203809.995000", "203811.495000", "203812.995000", "203814.495000", "203815.995000", "203817.495000", "203818.995000", "203820.495000", "203821.995000", "203823.495000", "203824.995000", "203826.495000", "203827.995000", "203829.495000", "203830.995000", "203832.495000", "203833.995000", "203835.495000", "203836.995000", "203838.495000", "203839.995000", "203841.495000", "203842.995000", "203844.495000", "203845.995000", "203847.495000", "203848.995000", "203850.495000", "203851.995000", "203853.495000", "203854.995000", "203856.495000", "203857.995000", "203859.495000", "203900.995000", "203902.495000", "203903.995000", "203905.495000", "203906.995000", "203908.495000", "203909.995000", "203911.495000", "203912.995000", "203914.495000", "203915.995000", "203917.495000", "203918.995000", "203920.495000", "203921.995000", "203923.495000", "203924.995000", "203926.495000", "203927.995000", "203929.495000", "203930.995000", "203932.495000", "203933.995000", "203935.495000", "203936.995000", "203938.495000", "203939.995000", "203941.495000", "203942.995000", "203944.495000", "203945.995000", "203947.495000", "203948.995000", "203950.495000", "203951.995000", "203953.495000", "203954.995000", "203956.495000", "203957.995000", "203959.495000", "204000.995000", "204002.495000", "204003.995000", "204005.495000", "204006.995000", "204008.495000", "204009.995000", "204011.495000", "204012.995000", "204014.495000", "204015.995000", "204017.495000", "204018.995000", "204020.495000", "204021.995000", "204023.495000", "204024.995000", "204026.495000", "204027.995000", "204029.495000", "204030.995000", "204032.495000", "204033.995000", "204035.495000", "204036.995000", "204038.495000", "204039.995000", "204041.495000", "204042.995000", "204044.495000", "204045.995000", "204047.495000", "204048.995000", "204050.495000", "204051.995000", "204053.495000", "204054.995000", "204056.495000", "204057.995000", "204059.495000", "204100.995000", "204102.495000", "204103.995000", "204105.495000", "204106.995000", "204108.495000", "204109.995000", "204111.495000", "204112.995000", "204114.495000", "204115.995000", "204117.495000", "204118.995000", "204120.495000", "204121.995000", "204123.495000", "204124.995000", "204126.495000", "204127.995000", "204129.495000", "204130.995000", "204132.495000", "204133.995000", "204135.495000", "204136.995000", "204138.495000", "204139.995000", "204141.495000", "204142.995000", "204144.495000", "204145.995000", "204147.495000", "204148.995000", "204150.495000", "204151.995000", "204153.495000", "204154.995000", "204156.495000", "204157.995000", "204159.495000", "204200.995000", "204202.495000", "204203.995000", "204205.495000", "204206.995000", "204208.495000", "204209.995000", "204211.495000", "204212.995000", "204214.495000", "204215.995000", "204217.495000", "204218.995000", "204220.495000", "204221.995000", "204223.495000", "204224.995000", "204226.495000", "204227.995000", "204229.495000", "204230.995000", "204232.495000", "204233.995000", "204235.495000", "204236.995000", "204238.495000", "204239.995000", "204241.495000", "204242.995000", "204244.495000", "204245.995000", "204247.495000", "204248.995000", "204250.495000", "204251.995000", "204253.495000", "204254.995000", "204256.495000", "204257.995000", "204259.495000", "204300.995000", "204302.495000", "204303.995000", "204305.495000", "204306.995000", "204308.495000", "204309.995000", "204311.495000", "204312.995000", "204314.495000", "204315.995000", "204317.495000", "204318.995000", "204320.495000", "204321.995000", "204323.495000", "204324.995000", "204326.495000", "204327.995000", "204329.495000", "204330.995000", "204332.495000", "204333.995000", "204335.495000", "204336.995000", "204338.495000", "204339.995000", "204341.495000", "204342.995000", "204344.495000", "204345.995000", "204347.495000", "204348.995000", "204350.495000", "204351.995000", "204353.495000", "204354.995000", "204356.495000", "204357.995000", "204359.495000", "204400.995000", "204402.495000", "204403.995000", "204405.495000", "204406.995000", "204408.495000", "204409.995000", "204411.495000", "204412.995000", "204414.495000", "204415.995000", "204417.495000", "204418.995000", "204420.495000", "204421.995000", "204423.495000", "204424.995000", "204426.495000", "204427.995000", "204429.495000", "204430.995000", "204432.495000", "204433.995000", "204435.495000", "204436.995000", "204438.495000", "204439.995000", "204441.495000", "204442.995000", "204444.495000", "204445.995000", "204447.495000", "204448.995000", "204450.495000", "204451.995000", "204453.495000", "204454.995000", "204456.495000", "204457.995000", "204459.495000", "204500.995000", "204502.495000", "204503.995000", "204505.495000", "204506.995000", "204508.495000", "204509.995000", "204511.495000", "204512.995000", "204514.495000", "204515.995000", "204517.495000", "204518.995000", "204520.495000", "204521.995000", "204523.495000", "204524.995000", "204526.495000", "204527.995000", "204529.495000", "204530.995000", "204532.495000", "204533.995000", "204535.495000", "204536.995000", "204538.495000", "204539.995000", "204541.495000", "204542.995000", "204544.495000", "204545.995000", "204547.495000", "204548.995000", "204550.495000", "204551.995000", "204553.495000", "204554.995000", "204556.495000", "204557.995000", "204559.495000", "204600.995000", "204602.495000", "204603.995000", "204605.495000", "204606.995000", "204608.495000", "204609.995000", "204611.495000", "204612.995000", "204614.495000", "204615.995000", "204617.495000", "204618.995000", "204620.495000", "204621.995000", "204623.495000", "204624.995000", "204626.495000", "204627.995000", "204629.495000", "204630.995000", "204632.495000", "204633.995000", "204635.495000", "204636.995000", "204638.495000", "204639.995000", "204641.495000", "204642.995000", "204644.495000", "204645.995000", "204647.495000", "204648.995000", "204650.495000", "204651.995000", "204653.495000", "204654.995000", "204656.495000", "204657.995000", "204659.495000", "204700.995000", "204702.495000", "204703.995000", "204705.495000", "204706.995000", "204708.495000", "204709.995000", "204711.495000", "204712.995000", "204714.495000", "204715.995000", "204717.495000", "204718.995000", "204720.495000", "204721.995000", "204723.495000", "204724.995000", "204726.495000", "204727.995000", "204729.495000", "204730.995000", "204732.495000", "204733.995000", "204735.495000", "204736.995000", "204738.495000", "204739.995000", "204741.495000", "204742.995000", "204744.495000", "204745.995000", "204747.495000", "204748.995000", "204750.495000", "204751.995000", "204753.495000", "204754.995000", "204756.495000", "204757.995000", "204759.495000", "204800.995000", "204802.495000", "204803.995000", "204805.495000", "204806.995000", "204808.495000", "204809.995000", "204811.495000", "204812.995000", "204814.495000", "204815.995000", "204817.495000", "204818.995000", "204820.495000", "204821.995000", "204823.495000", "204824.995000", "204826.495000", "204827.995000", "204829.495000", "204830.995000", "204832.495000", "204833.995000", "204835.495000", "204836.995000", "204838.495000", "204839.995000", "204841.495000", "204842.995000", "204844.495000", "204845.995000", "204847.495000", "204848.995000", "204850.495000", "204851.995000", "204853.495000", "204854.995000", "204856.495000", "204857.995000", "204859.495000", "204900.995000", "204902.495000", "204903.995000", "204905.495000", "204906.995000", "204908.495000", "204909.995000", "204911.495000", "204912.995000", "204914.495000", "204915.995000", "204917.495000", "204918.995000", "204920.495000", "204921.995000", "204923.495000", "204924.995000", "204926.495000", "204927.995000", "204929.495000", "204930.995000", "204932.495000", "204933.995000", "204935.495000", "204936.995000", "204938.495000", "204939.995000", "204941.495000", "204942.995000", "204944.495000", "204945.995000", "204947.495000", "204948.995000", "204950.495000", "204951.995000", "204953.495000", "204954.995000", "204956.495000", "204957.995000", "204959.495000", "205000.995000", "205002.495000", "205003.995000", "205005.495000", "205006.995000", "205008.495000", "205009.995000", "205011.495000", "205012.995000", "205014.495000", "205015.995000", "205017.495000", "205018.995000", "205020.495000", "205021.995000", "205023.495000", "205024.995000", "205026.495000", "205027.995000", "205029.495000", "205030.995000", "205032.495000", "205033.995000", "205035.495000", "205036.995000", "205038.495000", "205039.995000", "205041.495000", "205042.995000", "205044.495000", "205045.995000", "205047.495000", "205048.995000", "205050.495000", "205051.995000", "205053.495000", "205054.995000", "205056.495000", "205057.995000", "205059.495000", "205100.995000", "205102.495000", "205103.995000", "205105.495000", "205106.995000", "205108.495000", "205109.995000", "205111.495000", "205112.995000", "205114.495000", "205115.995000", "205117.495000", "205118.995000", "205120.495000", "205121.995000", "205123.495000", "205124.995000", "205126.495000", "205127.995000", "205129.495000", "205130.995000", "205132.495000", "205133.995000", "205135.495000", "205136.995000", "205138.495000", "205139.995000", "205141.495000", "205142.995000", "205144.495000", "205145.995000", "205147.495000", "205148.995000", "205150.495000", "205151.995000", "205153.495000", "205154.995000", "205156.495000", "205157.995000", "205159.495000", "205200.995000", "205202.495000", "205203.995000", "205205.495000", "205206.995000", "205208.495000", "205209.995000", "205211.495000", "205212.995000", "205214.495000", "205215.995000", "205217.495000", "205218.995000", "205220.495000", "205221.995000", "205223.495000", "205224.995000", "205226.495000", "205227.995000", "205229.495000", "205230.995000", "205232.495000", "205233.995000", "205235.495000", "205236.995000", "205238.495000", "205239.995000", "205241.495000", "205242.995000", "205244.495000", "205245.995000", "205247.495000", "205248.995000", "205250.495000", "205251.995000", "205253.495000", "205254.995000", "205256.495000", "205257.995000", "205259.495000", "205300.995000", "205302.495000", "205303.995000", "205305.495000", "205306.995000", "205308.495000", "205309.995000", "205311.495000", "205312.995000", "205314.495000", "205315.995000", "205317.495000", "205318.995000", "205320.495000", "205321.995000", "205323.495000", "205324.995000", "205326.495000", "205327.995000", "205329.495000", "205330.995000", "205332.495000", "205333.995000", "205335.495000", "205336.995000", "205338.495000", "205339.995000", "205341.495000", "205342.995000", "205344.495000", "205345.995000", "205347.495000", "205348.995000", "205350.495000", "205351.995000", "205353.495000", "205354.995000", "205356.495000", "205357.995000", "205359.495000", "205400.995000", "205402.495000", "205403.995000", "205405.495000", "205406.995000", "205408.495000", "205409.995000", "205411.495000", "205412.995000", "205414.495000", "205415.995000", "205417.495000", "205418.995000", "205420.495000", "205421.995000", "205423.495000", "205424.995000", "205426.495000", "205427.995000", "205429.495000", "205430.995000", "205432.495000", "205433.995000", "205435.495000", "205436.995000", "205438.495000", "205439.995000", "205441.495000", "205442.995000", "205444.495000", "205445.995000", "205447.495000", "205448.995000", "205450.495000", "205451.995000", "205453.495000", "205454.995000", "205456.495000", "205457.995000", "205459.495000", "205500.995000", "205502.495000", "205503.995000", "205505.495000", "205506.995000", "205508.495000", "205509.995000", "205511.495000", "205512.995000", "205514.495000", "205515.995000", "205517.495000", "205518.995000", "205520.495000", "205521.995000", "205523.495000", "205524.995000", "205526.495000", "205527.995000", "205529.495000", "205530.995000", "205532.495000", "205533.995000", "205535.495000", "205536.995000", "205538.495000", "205539.995000", "205541.495000", "205542.995000", "205544.495000", "205545.995000", "205547.495000", "205548.995000", "205550.495000", "205551.995000", "205553.495000", "205554.995000", "205556.495000", "205557.995000", "205559.495000", "205600.995000", "205602.495000", "205603.995000", "205605.495000", "205606.995000", "205608.495000", "205609.995000", "205611.495000", "205612.995000", "205614.495000", "205615.995000", "205617.495000", "205618.