{
  "AcquisitionMatrixPE": 106,
  "AcquisitionNumber": 1,
  "AcquisitionTime": "14:19:39.297500",
  "BandwidthPerPixelPhaseEncode": 16.846,
  "BaseResolution": 106,
  "BodyPartExamined": "BRAIN",
  "CoilCombinationMethod": "Sum of Squares",
  "ConsistencyInfo": "N4_VE11C_LATEST_20160120",
  "ConversionSoftware": "dcm2niix",
  "ConversionSoftwareVersion": "v1.0.20220720",
  "DerivedVendorReportedEchoSpacing": 0.000560012,
  "DeviceSerialNumber": "166108",
  "DwellTime": 1.8e-06,
  "EchoTime": 0.0352,
  "EchoTrainLength": 106,
  "EffectiveEchoSpacing": 0.000560012,
  "FlipAngle": 60,
  "HeudiconvVersion": "1.3.0",
  "ImageComments": "Unaliased MB4/PE3/LB",
  "ImageOrientationPatientDICOM": [1, 0, 0, 0, 1, 0],
  "ImageOrientationText": "Tra",
  "ImageType": [
    "ORIGINAL",
    "PRIMARY",
    "M",
    "MB",
    "ND",
    "MOSAIC"
],
  "ImagingFrequency": 123.244,
  "InPlanePhaseEncodingDirectionDICOM": "COL",
  "InstitutionAddress": "Bedford Way 26,London,London,GB,WC1H 0AP",
  "InstitutionName": "University College",
  "InstitutionalDepartmentName": "Department",
  "MRAcquisitionType": "2D",
  "MagneticFieldStrength": 3,
  "Manufacturer": "Siemens",
  "ManufacturersModelName": "Prisma",
  "MatrixCoilMode": "SENSE",
  "Modality": "MR",
  "MultibandAccelerationFactor": 4,
  "NonlinearGradientCorrection": false,
  "PartialFourier": 1,
  "PatientPosition": "HFS",
  "PercentPhaseFOV": 100,
  "PercentSampling": 100,
  "PhaseEncodingDirection": "j-",
  "PhaseEncodingSteps": 106,
  "PhaseResolution": 1,
  "PixelBandwidth": 2620,
  "ProcedureStepDescription": "Egor^MovieProject2",
  "ProtocolName": "task-backtothefuture_run-2",
  "PulseSequenceDetails": "%CustomerSeq%\\cmrr_mbep2d_bold",
  "ReceiveCoilActiveElements": "HEA;HEP",
  "ReceiveCoilName": "Head_32",
  "ReconMatrixPE": 106,
  "RepetitionTime": 1.5,
  "SAR": 0.0771654,
  "ScanOptions": "FS\\EXT",
  "ScanningSequence": "EP",
  "SequenceName": "epfid2d1_106",
  "SequenceVariant": "SK\\SS",
  "SeriesDescription": "task-backtothefuture_run-2",
  "SeriesNumber": 7,
  "ShimSetting": [-1585, 661, 7415, 100, -44, 168, -30, -11],
  "SliceThickness": 2,
  "SliceTiming": [0, 1.07, 0.6575, 0.2475, 1.315, 0.905, 0.4925, 0.0825, 1.15, 0.74, 0.33, 1.3975, 0.9875, 0.575, 0.165, 1.2325, 0.8225, 0.4125, 0, 1.07, 0.6575, 0.2475, 1.315, 0.905, 0.4925, 0.0825, 1.15, 0.74, 0.33, 1.3975, 0.9875, 0.575, 0.165, 1.2325, 0.8225, 0.4125, 0, 1.07, 0.6575, 0.2475, 1.315, 0.905, 0.4925, 0.0825, 1.15, 0.74, 0.33, 1.3975, 0.9875, 0.575, 0.165, 1.2325, 0.8225, 0.4125, 0, 1.07, 0.6575, 0.2475, 1.315, 0.905, 0.4925, 0.0825, 1.15, 0.74, 0.33, 1.3975, 0.9875, 0.575, 0.165, 1.2325, 0.8225, 0.4125],
  "SoftwareVersions": "syngo MR E11",
  "SpacingBetweenSlices": 2,
  "StationName": "AWP166108",
  "TaskName": "backtothefuture",
  "TotalReadoutTime": 0.0588013,
  "TxRefAmp": 248.685,
  "WipMemBlock": "3eae60af-f74b-4bbd-82f2-af51ed27bc3f||Sequence: R016 ve11c/master r/e634e98; Dec 19 2017 11:00:25 by eja",
  "dcmmeta_affine": [
    [-2.0, 0.0, 0.0, 106.0],
    [0.0, 2.0, 0.0, -89.54216766357422],
    [0.0, 0.0, 2.0, -62.56626510620117],
    [0.0, 0.0, 0.0, 1.0]
],
  "dcmmeta_reorient_transform": [
    [0.0, -1.0, 0.0, 105.0],
    [1.0, 0.0, 0.0, 0.0],
    [0.0, 0.0, 1.0, 0.0],
    [0.0, 0.0, 0.0, 1.0]
],
  "dcmmeta_shape": [106, 106, 72, 1522],
  "dcmmeta_slice_dim": 2,
  "dcmmeta_version": 0.6,
  "global": {
    "const": {
      "AcquisitionMatrix": [106, 0, 0, 106],
      "AngioFlag": "N",
      "BitsAllocated": 16,
      "BitsStored": 16,
      "BodyPartExamined": "BRAIN",
      "CardiacNumberOfImages": 1,
      "Columns": 954,
      "EchoNumbers": 1,
      "EchoTime": 35.2,
      "EchoTrainLength": 106,
      "FlipAngle": 60.0,
      "HighBit": 15,
      "ImageOrientationPatient": [1.0, 0.0, 0.0, 0.0, 1.0, 0.0],
      "ImagePositionPatient": [-954.0, -968.45783138275, -62.566265106201],
      "ImageType": [
        "ORIGINAL",
        "PRIMARY",
        "M",
        "MB",
        "ND",
        "MOSAIC"
],
      "ImagedNucleus": "1H",
      "ImagingFrequency": 123.243716,
      "InPlanePhaseEncodingDirection": "COL",
      "MRAcquisitionType": "2D",
      "MagneticFieldStrength": 3.0,
      "Manufacturer": "SIEMENS",
      "ManufacturerModelName": "Prisma",
      "Modality": "MR",
      "NominalInterval": 0,
      "NumberOfAverages": 1.0,
      "NumberOfPhaseEncodingSteps": 106,
      "PercentPhaseFieldOfView": 100.0,
      "PercentSampling": 100.0,
      "PerformedProcedureStepStartTime": "132158.584000",
      "PhotometricInterpretation": "MONOCHROME2",
      "PixelBandwidth": 2620.0,
      "PixelRepresentation": 0,
      "PixelSpacing": [2.0, 2.0],
      "ProtocolName": "task-backtothefuture_run-2",
      "RepetitionTime": 1500.0,
      "Rows": 954,
      "SAR": 0.0771653535683,
      "SamplesPerPixel": 1,
      "ScanOptions": [
        "FS",
        "EXT"
],
      "ScanningSequence": "EP",
      "SequenceName": "epfid2d1_106",
      "SequenceVariant": [
        "SK",
        "SS"
],
      "SeriesDescription": "task-backtothefuture_run-2",
      "SeriesNumber": 7,
      "SeriesTime": "142030.496000",
      "SliceLocation": -62.566265106201,
      "SliceThickness": 2.0,
      "SmallestImagePixelValue": 0,
      "SoftwareVersions": "syngo MR E11",
      "SpacingBetweenSlices": 2.0000000537281,
      "SpecificCharacterSet": "ISO_IR 100",
      "StudyID": "1",
      "StudyTime": "132158.476000",
      "TransmitCoilName": "Body",
      "VariableFlipAngleFlag": "N",
      "WindowCenterWidthExplanation": "Algo1",
      "dBdt": 0.0},
    "slices": {}
  },
  "time": {
    "samples": {
      "AcquisitionNumber": [1, 2, 3, 4, 5, 6, 7, 8, 9, 10, 11, 12, 13, 14, 15, 16, 17, 18, 19, 20, 21, 22, 23, 24, 25, 26, 27, 28, 29, 30, 31, 32, 33, 34, 35, 36, 37, 38, 39, 40, 41, 42, 43, 44, 45, 46, 47, 48, 49, 50, 51, 52, 53, 54, 55, 56, 57, 58, 59, 60, 61, 62, 63, 64, 65, 66, 67, 68, 69, 70, 71, 72, 73, 74, 75, 76, 77, 78, 79, 80, 81, 82, 83, 84, 85, 86, 87, 88, 89, 90, 91, 92, 93, 94, 95, 96, 97, 98, 99, 100, 101, 102, 103, 104, 105, 106, 107, 108, 109, 110, 111, 112, 113, 114, 115, 116, 117, 118, 119, 120, 121, 122, 123, 124, 125, 126, 127, 128, 129, 130, 131, 132, 133, 134, 135, 136, 137, 138, 139, 140, 141, 142, 143, 144, 145, 146, 147, 148, 149, 150, 151, 152, 153, 154, 155, 156, 157, 158, 159, 160, 161, 162, 163, 164, 165, 166, 167, 168, 169, 170, 171, 172, 173, 174, 175, 176, 177, 178, 179, 180, 181, 182, 183, 184, 185, 186, 187, 188, 189, 190, 191, 192, 193, 194, 195, 196, 197, 198, 199, 200, 201, 202, 203, 204, 205, 206, 207, 208, 209, 210, 211, 212, 213, 214, 215, 216, 217, 218, 219, 220, 221, 222, 223, 224, 225, 226, 227, 228, 229, 230, 231, 232, 233, 234, 235, 236, 237, 238, 239, 240, 241, 242, 243, 244, 245, 246, 247, 248, 249, 250, 251, 252, 253, 254, 255, 256, 257, 258, 259, 260, 261, 262, 263, 264, 265, 266, 267, 268, 269, 270, 271, 272, 273, 274, 275, 276, 277, 278, 279, 280, 281, 282, 283, 284, 285, 286, 287, 288, 289, 290, 291, 292, 293, 294, 295, 296, 297, 298, 299, 300, 301, 302, 303, 304, 305, 306, 307, 308, 309, 310, 311, 312, 313, 314, 315, 316, 317, 318, 319, 320, 321, 322, 323, 324, 325, 326, 327, 328, 329, 330, 331, 332, 333, 334, 335, 336, 337, 338, 339, 340, 341, 342, 343, 344, 345, 346, 347, 348, 349, 350, 351, 352, 353, 354, 355, 356, 357, 358, 359, 360, 361, 362, 363, 364, 365, 366, 367, 368, 369, 370, 371, 372, 373, 374, 375, 376, 377, 378, 379, 380, 381, 382, 383, 384, 385, 386, 387, 388, 389, 390, 391, 392, 393, 394, 395, 396, 397, 398, 399, 400, 401, 402, 403, 404, 405, 406, 407, 408, 409, 410, 411, 412, 413, 414, 415, 416, 417, 418, 419, 420, 421, 422, 423, 424, 425, 426, 427, 428, 429, 430, 431, 432, 433, 434, 435, 436, 437, 438, 439, 440, 441, 442, 443, 444, 445, 446, 447, 448, 449, 450, 451, 452, 453, 454, 455, 456, 457, 458, 459, 460, 461, 462, 463, 464, 465, 466, 467, 468, 469, 470, 471, 472, 473, 474, 475, 476, 477, 478, 479, 480, 481, 482, 483, 484, 485, 486, 487, 488, 489, 490, 491, 492, 493, 494, 495, 496, 497, 498, 499, 500, 501, 502, 503, 504, 505, 506, 507, 508, 509, 510, 511, 512, 513, 514, 515, 516, 517, 518, 519, 520, 521, 522, 523, 524, 525, 526, 527, 528, 529, 530, 531, 532, 533, 534, 535, 536, 537, 538, 539, 540, 541, 542, 543, 544, 545, 546, 547, 548, 549, 550, 551, 552, 553, 554, 555, 556, 557, 558, 559, 560, 561, 562, 563, 564, 565, 566, 567, 568, 569, 570, 571, 572, 573, 574, 575, 576, 577, 578, 579, 580, 581, 582, 583, 584, 585, 586, 587, 588, 589, 590, 591, 592, 593, 594, 595, 596, 597, 598, 599, 600, 601, 602, 603, 604, 605, 606, 607, 608, 609, 610, 611, 612, 613, 614, 615, 616, 617, 618, 619, 620, 621, 622, 623, 624, 625, 626, 627, 628, 629, 630, 631, 632, 633, 634, 635, 636, 637, 638, 639, 640, 641, 642, 643, 644, 645, 646, 647, 648, 649, 650, 651, 652, 653, 654, 655, 656, 657, 658, 659, 660, 661, 662, 663, 664, 665, 666, 667, 668, 669, 670, 671, 672, 673, 674, 675, 676, 677, 678, 679, 680, 681, 682, 683, 684, 685, 686, 687, 688, 689, 690, 691, 692, 693, 694, 695, 696, 697, 698, 699, 700, 701, 702, 703, 704, 705, 706, 707, 708, 709, 710, 711, 712, 713, 714, 715, 716, 717, 718, 719, 720, 721, 722, 723, 724, 725, 726, 727, 728, 729, 730, 731, 732, 733, 734, 735, 736, 737, 738, 739, 740, 741, 742, 743, 744, 745, 746, 747, 748, 749, 750, 751, 752, 753, 754, 755, 756, 757, 758, 759, 760, 761, 762, 763, 764, 765, 766, 767, 768, 769, 770, 771, 772, 773, 774, 775, 776, 777, 778, 779, 780, 781, 782, 783, 784, 785, 786, 787, 788, 789, 790, 791, 792, 793, 794, 795, 796, 797, 798, 799, 800, 801, 802, 803, 804, 805, 806, 807, 808, 809, 810, 811, 812, 813, 814, 815, 816, 817, 818, 819, 820, 821, 822, 823, 824, 825, 826, 827, 828, 829, 830, 831, 832, 833, 834, 835, 836, 837, 838, 839, 840, 841, 842, 843, 844, 845, 846, 847, 848, 849, 850, 851, 852, 853, 854, 855, 856, 857, 858, 859, 860, 861, 862, 863, 864, 865, 866, 867, 868, 869, 870, 871, 872, 873, 874, 875, 876, 877, 878, 879, 880, 881, 882, 883, 884, 885, 886, 887, 888, 889, 890, 891, 892, 893, 894, 895, 896, 897, 898, 899, 900, 901, 902, 903, 904, 905, 906, 907, 908, 909, 910, 911, 912, 913, 914, 915, 916, 917, 918, 919, 920, 921, 922, 923, 924, 925, 926, 927, 928, 929, 930, 931, 932, 933, 934, 935, 936, 937, 938, 939, 940, 941, 942, 943, 944, 945, 946, 947, 948, 949, 950, 951, 952, 953, 954, 955, 956, 957, 958, 959, 960, 961, 962, 963, 964, 965, 966, 967, 968, 969, 970, 971, 972, 973, 974, 975, 976, 977, 978, 979, 980, 981, 982, 983, 984, 985, 986, 987, 988, 989, 990, 991, 992, 993, 994, 995, 996, 997, 998, 999, 1000, 1001, 1002, 1003, 1004, 1005, 1006, 1007, 1008, 1009, 1010, 1011, 1012, 1013, 1014, 1015, 1016, 1017, 1018, 1019, 1020, 1021, 1022, 1023, 1024, 1025, 1026, 1027, 1028, 1029, 1030, 1031, 1032, 1033, 1034, 1035, 1036, 1037, 1038, 1039, 1040, 1041, 1042, 1043, 1044, 1045, 1046, 1047, 1048, 1049, 1050, 1051, 1052, 1053, 1054, 1055, 1056, 1057, 1058, 1059, 1060, 1061, 1062, 1063, 1064, 1065, 1066, 1067, 1068, 1069, 1070, 1071, 1072, 1073, 1074, 1075, 1076, 1077, 1078, 1079, 1080, 1081, 1082, 1083, 1084, 1085, 1086, 1087, 1088, 1089, 1090, 1091, 1092, 1093, 1094, 1095, 1096, 1097, 1098, 1099, 1100, 1101, 1102, 1103, 1104, 1105, 1106, 1107, 1108, 1109, 1110, 1111, 1112, 1113, 1114, 1115, 1116, 1117, 1118, 1119, 1120, 1121, 1122, 1123, 1124, 1125, 1126, 1127, 1128, 1129, 1130, 1131, 1132, 1133, 1134, 1135, 1136, 1137, 1138, 1139, 1140, 1141, 1142, 1143, 1144, 1145, 1146, 1147, 1148, 1149, 1150, 1151, 1152, 1153, 1154, 1155, 1156, 1157, 1158, 1159, 1160, 1161, 1162, 1163, 1164, 1165, 1166, 1167, 1168, 1169, 1170, 1171, 1172, 1173, 1174, 1175, 1176, 1177, 1178, 1179, 1180, 1181, 1182, 1183, 1184, 1185, 1186, 1187, 1188, 1189, 1190, 1191, 1192, 1193, 1194, 1195, 1196, 1197, 1198, 1199, 1200, 1201, 1202, 1203, 1204, 1205, 1206, 1207, 1208, 1209, 1210, 1211, 1212, 1213, 1214, 1215, 1216, 1217, 1218, 1219, 1220, 1221, 1222, 1223, 1224, 1225, 1226, 1227, 1228, 1229, 1230, 1231, 1232, 1233, 1234, 1235, 1236, 1237, 1238, 1239, 1240, 1241, 1242, 1243, 1244, 1245, 1246, 1247, 1248, 1249, 1250, 1251, 1252, 1253, 1254, 1255, 1256, 1257, 1258, 1259, 1260, 1261, 1262, 1263, 1264, 1265, 1266, 1267, 1268, 1269, 1270, 1271, 1272, 1273, 1274, 1275, 1276, 1277, 1278, 1279, 1280, 1281, 1282, 1283, 1284, 1285, 1286, 1287, 1288, 1289, 1290, 1291, 1292, 1293, 1294, 1295, 1296, 1297, 1298, 1299, 1300, 1301, 1302, 1303, 1304, 1305, 1306, 1307, 1308, 1309, 1310, 1311, 1312, 1313, 1314, 1315, 1316, 1317, 1318, 1319, 1320, 1321, 1322, 1323, 1324, 1325, 1326, 1327, 1328, 1329, 1330, 1331, 1332, 1333, 1334, 1335, 1336, 1337, 1338, 1339, 1340, 1341, 1342, 1343, 1344, 1345, 1346, 1347, 1348, 1349, 1350, 1351, 1352, 1353, 1354, 1355, 1356, 1357, 1358, 1359, 1360, 1361, 1362, 1363, 1364, 1365, 1366, 1367, 1368, 1369, 1370, 1371, 1372, 1373, 1374, 1375, 1376, 1377, 1378, 1379, 1380, 1381, 1382, 1383, 1384, 1385, 1386, 1387, 1388, 1389, 1390, 1391, 1392, 1393, 1394, 1395, 1396, 1397, 1398, 1399, 1400, 1401, 1402, 1403, 1404, 1405, 1406, 1407, 1408, 1409, 1410, 1411, 1412, 1413, 1414, 1415, 1416, 1417, 1418, 1419, 1420, 1421, 1422, 1423, 1424, 1425, 1426, 1427, 1428, 1429, 1430, 1431, 1432, 1433, 1434, 1435, 1436, 1437, 1438, 1439, 1440, 1441, 1442, 1443, 1444, 1445, 1446, 1447, 1448, 1449, 1450, 1451, 1452, 1453, 1454, 1455, 1456, 1457, 1458, 1459, 1460, 1461, 1462, 1463, 1464, 1465, 1466, 1467, 1468, 1469, 1470, 1471, 1472, 1473, 1474, 1475, 1476, 1477, 1478, 1479, 1480, 1481, 1482, 1483, 1484, 1485, 1486, 1487, 1488, 1489, 1490, 1491, 1492, 1493, 1494, 1495, 1496, 1497, 1498, 1499, 1500, 1501, 1502, 1503, 1504, 1505, 1506, 1507, 1508, 1509, 1510, 1511, 1512, 1513, 1514, 1515, 1516, 1517, 1518, 1519, 1520, 1521, 1522],
      "AcquisitionTime": ["141939.297500", "141940.797500", "141942.297500", "141943.797500", "141945.297500", "141946.797500", "141948.297500", "141949.797500", "141951.297500", "141952.797500", "141954.297500", "141955.797500", "141957.297500", "141958.797500", "142000.297500", "142001.797500", "142003.297500", "142004.797500", "142006.297500", "142007.797500", "142009.297500", "142010.797500", "142012.297500", "142013.797500", "142015.297500", "142016.797500", "142018.297500", "142019.797500", "142021.297500", "142022.797500", "142024.297500", "142025.797500", "142027.297500", "142028.797500", "142030.297500", "142031.797500", "142033.297500", "142034.797500", "142036.297500", "142037.797500", "142039.297500", "142040.797500", "142042.297500", "142043.797500", "142045.297500", "142046.797500", "142048.297500", "142049.797500", "142051.297500", "142052.797500", "142054.297500", "142055.797500", "142057.297500", "142058.797500", "142100.297500", "142101.797500", "142103.297500", "142104.797500", "142106.297500", "142107.797500", "142109.297500", "142110.797500", "142112.297500", "142113.797500", "142115.297500", "142116.797500", "142118.297500", "142119.797500", "142121.297500", "142122.797500", "142124.297500", "142125.797500", "142127.297500", "142128.797500", "142130.297500", "142131.797500", "142133.297500", "142134.797500", "142136.297500", "142137.797500", "142139.297500", "142140.797500", "142142.297500", "142143.797500", "142145.297500", "142146.797500", "142148.297500", "142149.797500", "142151.297500", "142152.797500", "142154.297500", "142155.797500", "142157.297500", "142158.797500", "142200.297500", "142201.797500", "142203.297500", "142204.797500", "142206.297500", "142207.797500", "142209.297500", "142210.797500", "142212.297500", "142213.797500", "142215.297500", "142216.797500", "142218.297500", "142219.797500", "142221.297500", "142222.797500", "142224.297500", "142225.797500", "142227.297500", "142228.797500", "142230.297500", "142231.797500", "142233.297500", "142234.797500", "142236.297500", "142237.797500", "142239.297500", "142240.797500", "142242.297500", "142243.797500", "142245.297500", "142246.797500", "142248.297500", "142249.797500", "142251.297500", "142252.797500", "142254.297500", "142255.797500", "142257.297500", "142258.797500", "142300.297500", "142301.797500", "142303.297500", "142304.797500", "142306.297500", "142307.797500", "142309.297500", "142310.797500", "142312.297500", "142313.797500", "142315.297500", "142316.797500", "142318.297500", "142319.797500", "142321.297500", "142322.797500", "142324.297500", "142325.797500", "142327.297500", "142328.797500", "142330.297500", "142331.797500", "142333.297500", "142334.797500", "142336.297500", "142337.797500", "142339.297500", "142340.797500", "142342.297500", "142343.797500", "142345.297500", "142346.797500", "142348.297500", "142349.797500", "142351.297500", "142352.797500", "142354.297500", "142355.797500", "142357.297500", "142358.797500", "142400.297500", "142401.797500", "142403.297500", "142404.797500", "142406.297500", "142407.797500", "142409.297500", "142410.797500", "142412.297500", "142413.797500", "142415.297500", "142416.797500", "142418.297500", "142419.797500", "142421.297500", "142422.797500", "142424.297500", "142425.797500", "142427.297500", "142428.797500", "142430.297500", "142431.797500", "142433.297500", "142434.797500", "142436.297500", "142437.797500", "142439.297500", "142440.797500", "142442.297500", "142443.797500", "142445.297500", "142446.797500", "142448.297500", "142449.797500", "142451.297500", "142452.797500", "142454.297500", "142455.797500", "142457.297500", "142458.797500", "142500.297500", "142501.797500", "142503.297500", "142504.797500", "142506.297500", "142507.797500", "142509.297500", "142510.797500", "142512.297500", "142513.797500", "142515.297500", "142516.797500", "142518.297500", "142519.797500", "142521.297500", "142522.797500", "142524.297500", "142525.797500", "142527.297500", "142528.797500", "142530.297500", "142531.797500", "142533.297500", "142534.797500", "142536.297500", "142537.797500", "142539.297500", "142540.797500", "142542.297500", "142543.797500", "142545.297500", "142546.797500", "142548.297500", "142549.797500", "142551.297500", "142552.797500", "142554.297500", "142555.797500", "142557.297500", "142558.797500", "142600.297500", "142601.797500", "142603.297500", "142604.797500", "142606.297500", "142607.797500", "142609.297500", "142610.797500", "142612.297500", "142613.797500", "142615.297500", "142616.797500", "142618.297500", "142619.797500", "142621.297500", "142622.797500", "142624.297500", "142625.797500", "142627.297500", "142628.797500", "142630.297500", "142631.797500", "142633.297500", "142634.797500", "142636.297500", "142637.797500", "142639.297500", "142640.797500", "142642.297500", "142643.797500", "142645.297500", "142646.797500", "142648.297500", "142649.797500", "142651.297500", "142652.797500", "142654.297500", "142655.797500", "142657.297500", "142658.797500", "142700.297500", "142701.797500", "142703.297500", "142704.797500", "142706.297500", "142707.797500", "142709.297500", "142710.797500", "142712.297500", "142713.797500", "142715.297500", "142716.797500", "142718.297500", "142719.797500", "142721.297500", "142722.797500", "142724.297500", "142725.797500", "142727.297500", "142728.797500", "142730.297500", "142731.797500", "142733.297500", "142734.797500", "142736.297500", "142737.797500", "142739.297500", "142740.797500", "142742.297500", "142743.797500", "142745.297500", "142746.797500", "142748.297500", "142749.797500", "142751.297500", "142752.797500", "142754.297500", "142755.797500", "142757.297500", "142758.797500", "142800.297500", "142801.797500", "142803.297500", "142804.797500", "142806.297500", "142807.797500", "142809.297500", "142810.797500", "142812.297500", "142813.797500", "142815.297500", "142816.797500", "142818.297500", "142819.797500", "142821.297500", "142822.797500", "142824.297500", "142825.797500", "142827.297500", "142828.797500", "142830.297500", "142831.797500", "142833.297500", "142834.797500", "142836.297500", "142837.797500", "142839.297500", "142840.797500", "142842.297500", "142843.797500", "142845.297500", "142846.797500", "142848.297500", "142849.797500", "142851.297500", "142852.797500", "142854.297500", "142855.797500", "142857.297500", "142858.797500", "142900.297500", "142901.797500", "142903.297500", "142904.797500", "142906.297500", "142907.797500", "142909.297500", "142910.797500", "142912.297500", "142913.797500", "142915.297500", "142916.797500", "142918.297500", "142919.797500", "142921.297500", "142922.797500", "142924.297500", "142925.797500", "142927.297500", "142928.797500", "142930.297500", "142931.797500", "142933.297500", "142934.797500", "142936.297500", "142937.797500", "142939.297500", "142940.797500", "142942.297500", "142943.797500", "142945.297500", "142946.797500", "142948.297500", "142949.797500", "142951.297500", "142952.797500", "142954.297500", "142955.797500", "142957.297500", "142958.797500", "143000.297500", "143001.797500", "143003.297500", "143004.797500", "143006.297500", "143007.797500", "143009.297500", "143010.797500", "143012.297500", "143013.797500", "143015.297500", "143016.797500", "143018.297500", "143019.797500", "143021.297500", "143022.797500", "143024.297500", "143025.797500", "143027.297500", "143028.797500", "143030.297500", "143031.797500", "143033.297500", "143034.797500", "143036.297500", "143037.797500", "143039.297500", "143040.797500", "143042.297500", "143043.797500", "143045.297500", "143046.797500", "143048.297500", "143049.797500", "143051.297500", "143052.797500", "143054.297500", "143055.797500", "143057.297500", "143058.797500", "143100.297500", "143101.797500", "143103.297500", "143104.797500", "143106.297500", "143107.797500", "143109.297500", "143110.797500", "143112.297500", "143113.797500", "143115.297500", "143116.797500", "143118.297500", "143119.797500", "143121.297500", "143122.797500", "143124.297500", "143125.797500", "143127.297500", "143128.797500", "143130.297500", "143131.797500", "143133.297500", "143134.797500", "143136.297500", "143137.797500", "143139.297500", "143140.797500", "143142.297500", "143143.797500", "143145.297500", "143146.797500", "143148.297500", "143149.797500", "143151.297500", "143152.797500", "143154.297500", "143155.797500", "143157.297500", "143158.797500", "143200.297500", "143201.797500", "143203.297500", "143204.797500", "143206.297500", "143207.797500", "143209.297500", "143210.797500", "143212.297500", "143213.797500", "143215.297500", "143216.797500", "143218.297500", "143219.797500", "143221.297500", "143222.797500", "143224.297500", "143225.797500", "143227.297500", "143228.797500", "143230.297500", "143231.797500", "143233.297500", "143234.797500", "143236.297500", "143237.797500", "143239.297500", "143240.797500", "143242.297500", "143243.797500", "143245.297500", "143246.797500", "143248.297500", "143249.797500", "143251.297500", "143252.797500", "143254.297500", "143255.797500", "143257.297500", "143258.797500", "143300.297500", "143301.797500", "143303.297500", "143304.797500", "143306.297500", "143307.797500", "143309.297500", "143310.797500", "143312.297500", "143313.797500", "143315.297500", "143316.797500", "143318.297500", "143319.797500", "143321.297500", "143322.797500", "143324.297500", "143325.797500", "143327.297500", "143328.797500", "143330.297500", "143331.797500", "143333.297500", "143334.797500", "143336.297500", "143337.797500", "143339.297500", "143340.797500", "143342.297500", "143343.797500", "143345.297500", "143346.797500", "143348.297500", "143349.797500", "143351.297500", "143352.797500", "143354.297500", "143355.797500", "143357.297500", "143358.797500", "143400.297500", "143401.797500", "143403.297500", "143404.797500", "143406.297500", "143407.797500", "143409.297500", "143410.797500", "143412.297500", "143413.797500", "143415.297500", "143416.797500", "143418.297500", "143419.797500", "143421.297500", "143422.797500", "143424.297500", "143425.797500", "143427.297500", "143428.797500", "143430.297500", "143431.797500", "143433.297500", "143434.797500", "143436.297500", "143437.797500", "143439.297500", "143440.797500", "143442.297500", "143443.797500", "143445.297500", "143446.797500", "143448.297500", "143449.797500", "143451.297500", "143452.797500", "143454.297500", "143455.797500", "143457.297500", "143458.797500", "143500.297500", "143501.797500", "143503.297500", "143504.797500", "143506.297500", "143507.797500", "143509.297500", "143510.797500", "143512.297500", "143513.797500", "143515.297500", "143516.797500", "143518.297500", "143519.797500", "143521.297500", "143522.797500", "143524.297500", "143525.797500", "143527.297500", "143528.797500", "143530.297500", "143531.797500", "143533.297500", "143534.797500", "143536.297500", "143537.797500", "143539.297500", "143540.797500", "143542.297500", "143543.797500", "143545.297500", "143546.797500", "143548.297500", "143549.797500", "143551.297500", "143552.797500", "143554.297500", "143555.797500", "143557.297500", "143558.797500", "143600.297500", "143601.797500", "143603.297500", "143604.797500", "143606.297500", "143607.797500", "143609.297500", "143610.797500", "143612.297500", "143613.797500", "143615.297500", "143616.797500", "143618.297500", "143619.797500", "143621.297500", "143622.797500", "143624.297500", "143625.797500", "143627.297500", "143628.797500", "143630.297500", "143631.797500", "143633.297500", "143634.797500", "143636.297500", "143637.797500", "143639.297500", "143640.797500", "143642.297500", "143643.797500", "143645.297500", "143646.797500", "143648.297500", "143649.797500", "143651.297500", "143652.797500", "143654.297500", "143655.797500", "143657.297500", "143658.797500", "143700.297500", "143701.797500", "143703.297500", "143704.797500", "143706.297500", "143707.797500", "143709.297500", "143710.797500", "143712.297500", "143713.797500", "143715.297500", "143716.797500", "143718.297500", "143719.797500", "143721.297500", "143722.797500", "143724.297500", "143725.797500", "143727.297500", "143728.797500", "143730.297500", "143731.797500", "143733.297500", "143734.797500", "143736.297500", "143737.797500", "143739.297500", "143740.797500", "143742.297500", "143743.797500", "143745.297500", "143746.797500", "143748.297500", "143749.797500", "143751.297500", "143752.797500", "143754.297500", "143755.797500", "143757.297500", "143758.797500", "143800.297500", "143801.797500", "143803.297500", "143804.797500", "143806.297500", "143807.797500", "143809.297500", "143810.797500", "143812.297500", "143813.797500", "143815.297500", "143816.797500", "143818.297500", "143819.797500", "143821.297500", "143822.797500", "143824.297500", "143825.797500", "143827.297500", "143828.797500", "143830.297500", "143831.797500", "143833.297500", "143834.797500", "143836.297500", "143837.797500", "143839.297500", "143840.797500", "143842.297500", "143843.797500", "143845.297500", "143846.797500", "143848.297500", "143849.797500", "143851.297500", "143852.797500", "143854.297500", "143855.797500", "143857.297500", "143858.797500", "143900.297500", "143901.797500", "143903.297500", "143904.797500", "143906.297500", "143907.797500", "143909.297500", "143910.797500", "143912.297500", "143913.797500", "143915.297500", "143916.797500", "143918.297500", "143919.797500", "143921.297500", "143922.797500", "143924.297500", "143925.797500", "143927.297500", "143928.797500", "143930.297500", "143931.797500", "143933.297500", "143934.797500", "143936.297500", "143937.797500", "143939.297500", "143940.797500", "143942.297500", "143943.797500", "143945.297500", "143946.797500", "143948.297500", "143949.797500", "143951.297500", "143952.797500", "143954.297500", "143955.797500", "143957.297500", "143958.797500", "144000.297500", "144001.797500", "144003.297500", "144004.797500", "144006.297500", "144007.797500", "144009.297500", "144010.797500", "144012.297500", "144013.797500", "144015.297500", "144016.797500", "144018.297500", "144019.797500", "144021.297500", "144022.797500", "144024.297500", "144025.797500", "144027.297500", "144028.797500", "144030.297500", "144031.797500", "144033.297500", "144034.797500", "144036.297500", "144037.797500", "144039.297500", "144040.797500", "144042.297500", "144043.797500", "144045.297500", "144046.797500", "144048.297500", "144049.797500", "144051.297500", "144052.797500", "144054.297500", "144055.797500", "144057.297500", "144058.797500", "144100.297500", "144101.797500", "144103.297500", "144104.797500", "144106.297500", "144107.797500", "144109.297500", "144110.797500", "144112.297500", "144113.797500", "144115.297500", "144116.797500", "144118.297500", "144119.797500", "144121.297500", "144122.797500", "144124.297500", "144125.797500", "144127.297500", "144128.797500", "144130.297500", "144131.797500", "144133.297500", "144134.797500", "144136.297500", "144137.797500", "144139.297500", "144140.797500", "144142.297500", "144143.797500", "144145.297500", "144146.797500", "144148.297500", "144149.797500", "144151.297500", "144152.797500", "144154.297500", "144155.797500", "144157.297500", "144158.797500", "144200.297500", "144201.797500", "144203.297500", "144204.797500", "144206.297500", "144207.797500", "144209.297500", "144210.797500", "144212.297500", "144213.797500", "144215.297500", "144216.797500", "144218.297500", "144219.797500", "144221.297500", "144222.797500", "144224.297500", "144225.797500", "144227.297500", "144228.797500", "144230.297500", "144231.797500", "144233.297500", "144234.797500", "144236.297500", "144237.797500", "144239.297500", "144240.797500", "144242.297500", "144243.797500", "144245.297500", "144246.797500", "144248.297500", "144249.797500", "144251.297500", "144252.797500", "144254.297500", "144255.797500", "144257.297500", "144258.797500", "144300.297500", "144301.797500", "144303.297500", "144304.797500", "144306.297500", "144307.797500", "144309.297500", "144310.797500", "144312.297500", "144313.797500", "144315.297500", "144316.797500", "144318.297500", "144319.797500", "144321.297500", "144322.797500", "144324.297500", "144325.797500", "144327.297500", "144328.797500", "144330.297500", "144331.797500", "144333.297500", "144334.797500", "144336.297500", "144337.797500", "1443