{
  "AcquisitionMatrixPE": 106,
  "AcquisitionNumber": 1,
  "AcquisitionTime": "11:25:19.660000",
  "BandwidthPerPixelPhaseEncode": 16.846,
  "BaseResolution": 106,
  "BodyPartExamined": "BRAIN",
  "CoilCombinationMethod": "Sum of Squares",
  "ConsistencyInfo": "N4_VE11C_LATEST_20160120",
  "ConversionSoftware": "dcm2niix",
  "ConversionSoftwareVersion": "v1.0.20220720",
  "DerivedVendorReportedEchoSpacing": 0.000560012,
  "DeviceSerialNumber": "166108",
  "DwellTime": 1.8e-06,
  "EchoTime": 0.0352,
  "EchoTrainLength": 106,
  "EffectiveEchoSpacing": 0.000560012,
  "FlipAngle": 60,
  "HeudiconvVersion": "1.3.0",
  "ImageComments": "Unaliased MB4/PE3/LB",
  "ImageOrientationPatientDICOM": [1, 0, 0, 0, 0.979925, -0.199368],
  "ImageOrientationText": "Tra>Cor(-11.5)",
  "ImageType": [
    "ORIGINAL",
    "PRIMARY",
    "M",
    "MB",
    "ND",
    "MOSAIC"
],
  "ImagingFrequency": 123.244,
  "InPlanePhaseEncodingDirectionDICOM": "COL",
  "InstitutionAddress": "Bedford Way 26,London,London,GB,WC1H 0AP",
  "InstitutionName": "University College",
  "InstitutionalDepartmentName": "Department",
  "MRAcquisitionType": "2D",
  "MagneticFieldStrength": 3,
  "Manufacturer": "Siemens",
  "ManufacturersModelName": "Prisma",
  "MatrixCoilMode": "SENSE",
  "Modality": "MR",
  "MultibandAccelerationFactor": 4,
  "NonlinearGradientCorrection": false,
  "PartialFourier": 1,
  "PatientPosition": "HFS",
  "PercentPhaseFOV": 100,
  "PercentSampling": 100,
  "PhaseEncodingDirection": "j-",
  "PhaseEncodingSteps": 106,
  "PhaseResolution": 1,
  "PixelBandwidth": 2620,
  "ProcedureStepDescription": "Egor^MovieProject2",
  "ProtocolName": "func-bold_task-pRF_run-02",
  "PulseSequenceDetails": "%CustomerSeq%\\cmrr_mbep2d_bold",
  "ReceiveCoilActiveElements": "HEA;HEP",
  "ReceiveCoilName": "Head_32",
  "ReconMatrixPE": 106,
  "RepetitionTime": 1,
  "SAR": 0.073359,
  "ScanOptions": "FS\\EXT",
  "ScanningSequence": "EP",
  "SequenceName": "epfid2d1_106",
  "SequenceVariant": "SK\\SS",
  "SeriesDescription": "func-bold_task-pRF_run-02",
  "SeriesNumber": 12,
  "ShimSetting": [-1571, 660, 7456, 376, -143, 342, 116, 24],
  "SliceThickness": 2,
  "SliceTiming": [0, 0.4075, 0.8175, 0.245, 0.6525, 0.0825, 0.49, 0.8975, 0.3275, 0.735, 0.1625, 0.5725, 0, 0.4075, 0.8175, 0.245, 0.6525, 0.0825, 0.49, 0.8975, 0.3275, 0.735, 0.1625, 0.5725, 0, 0.4075, 0.8175, 0.245, 0.6525, 0.0825, 0.49, 0.8975, 0.3275, 0.735, 0.1625, 0.5725, 0, 0.4075, 0.8175, 0.245, 0.6525, 0.0825, 0.49, 0.8975, 0.3275, 0.735, 0.1625, 0.5725],
  "SoftwareVersions": "syngo MR E11",
  "SpacingBetweenSlices": 2,
  "StationName": "AWP166108",
  "TaskName": "retinotopy",
  "TotalReadoutTime": 0.0588013,
  "TxRefAmp": 217.326,
  "WipMemBlock": "7df668d0-a142-4285-811b-929f8681dc99||Sequence: R016 ve11c/master r/e634e98; Dec 19 2017 11:00:25 by eja",
  "dcmmeta_affine": [
    [-2.0, 0.0, 0.0, 106.0],
    [0.0, 1.9598493576049805, -0.3987358808517456, -88.84066772460938],
    [0.0, 0.3987358808517456, 1.95984947681427, -27.311208724975586],
    [0.0, 0.0, 0.0, 1.0]
],
  "dcmmeta_reorient_transform": [
    [0.0, -1.0, 0.0, 105.0],
    [1.0, 0.0, 0.0, 0.0],
    [0.0, 0.0, 1.0, 0.0],
    [0.0, 0.0, 0.0, 1.0]
],
  "dcmmeta_shape": [106, 106, 48, 356],
  "dcmmeta_slice_dim": 2,
  "dcmmeta_version": 0.6,
  "global": {
    "const": {
      "AcquisitionMatrix": [106, 0, 0, 106],
      "AngioFlag": "N",
      "BitsAllocated": 16,
      "BitsStored": 16,
      "BodyPartExamined": "BRAIN",
      "CardiacNumberOfImages": 1,
      "Columns": 742,
      "EchoNumbers": 1,
      "EchoTime": 35.2,
      "EchoTrainLength": 106,
      "FlipAngle": 60.0,
      "HighBit": 15,
      "ImageOrientationPatient": [1.0, 0.0, 0.0, 0.0, 0.97992470268924, -0.1993679439113],
      "ImagePositionPatient": [-742.0, -740.17562731259, 141.35407146147],
      "ImageType": [
        "ORIGINAL",
        "PRIMARY",
        "M",
        "MB",
        "ND",
        "MOSAIC"
],
      "ImagedNucleus": "1H",
      "ImagingFrequency": 123.243676,
      "InPlanePhaseEncodingDirection": "COL",
      "MRAcquisitionType": "2D",
      "MagneticFieldStrength": 3.0,
      "Manufacturer": "SIEMENS",
      "ManufacturerModelName": "Prisma",
      "Modality": "MR",
      "NominalInterval": 0,
      "NumberOfAverages": 1.0,
      "NumberOfPhaseEncodingSteps": 106,
      "PercentPhaseFieldOfView": 100.0,
      "PercentSampling": 100.0,
      "PerformedProcedureStepStartTime": "103544.537000",
      "PhotometricInterpretation": "MONOCHROME2",
      "PixelBandwidth": 2620.0,
      "PixelRepresentation": 0,
      "PixelSpacing": [2.0, 2.0],
      "ProtocolName": "func-bold_task-pRF_run-02",
      "RepetitionTime": 1000.0,
      "Rows": 742,
      "SAR": 0.07335904987614,
      "SamplesPerPixel": 1,
      "ScanOptions": [
        "FS",
        "EXT"
],
      "ScanningSequence": "EP",
      "SequenceName": "epfid2d1_106",
      "SequenceVariant": [
        "SK",
        "SS"
],
      "SeriesDescription": "func-bold_task-pRF_run-02",
      "SeriesNumber": 12,
      "SeriesTime": "112553.989000",
      "SliceLocation": -9.0509464997438,
      "SliceThickness": 2.0,
      "SmallestImagePixelValue": 0,
      "SoftwareVersions": "syngo MR E11",
      "SpacingBetweenSlices": 2.0000000188601,
      "SpecificCharacterSet": "ISO_IR 100",
      "StudyID": "1",
      "StudyTime": "103544.479000",
      "TransmitCoilName": "Body",
      "VariableFlipAngleFlag": "N",
      "WindowCenterWidthExplanation": "Algo1",
      "dBdt": 0.0},
    "slices": {}
  },
  "time": {
    "samples": {
      "AcquisitionNumber": [1, 2, 3, 4, 5, 6, 7, 8, 9, 10, 11, 12, 13, 14, 15, 16, 17, 18, 19, 20, 21, 22, 23, 24, 25, 26, 27, 28, 29, 30, 31, 32, 33, 34, 35, 36, 37, 38, 39, 40, 41, 42, 43, 44, 45, 46, 47, 48, 49, 50, 51, 52, 53, 54, 55, 56, 57, 58, 59, 60, 61, 62, 63, 64, 65, 66, 67, 68, 69, 70, 71, 72, 73, 74, 75, 76, 77, 78, 79, 80, 81, 82, 83, 84, 85, 86, 87, 88, 89, 90, 91, 92, 93, 94, 95, 96, 97, 98, 99, 100, 101, 102, 103, 104, 105, 106, 107, 108, 109, 110, 111, 112, 113, 114, 115, 116, 117, 118, 119, 120, 121, 122, 123, 124, 125, 126, 127, 128, 129, 130, 131, 132, 133, 134, 135, 136, 137, 138, 139, 140, 141, 142, 143, 144, 145, 146, 147, 148, 149, 150, 151, 152, 153, 154, 155, 156, 157, 158, 159, 160, 161, 162, 163, 164, 165, 166, 167, 168, 169, 170, 171, 172, 173, 174, 175, 176, 177, 178, 179, 180, 181, 182, 183, 184, 185, 186, 187, 188, 189, 190, 191, 192, 193, 194, 195, 196, 197, 198, 199, 200, 201, 202, 203, 204, 205, 206, 207, 208, 209, 210, 211, 212, 213, 214, 215, 216, 217, 218, 219, 220, 221, 222, 223, 224, 225, 226, 227, 228, 229, 230, 231, 232, 233, 234, 235, 236, 237, 238, 239, 240, 241, 242, 243, 244, 245, 246, 247, 248, 249, 250, 251, 252, 253, 254, 255, 256, 257, 258, 259, 260, 261, 262, 263, 264, 265, 266, 267, 268, 269, 270, 271, 272, 273, 274, 275, 276, 277, 278, 279, 280, 281, 282, 283, 284, 285, 286, 287, 288, 289, 290, 291, 292, 293, 294, 295, 296, 297, 298, 299, 300, 301, 302, 303, 304, 305, 306, 307, 308, 309, 310, 311, 312, 313, 314, 315, 316, 317, 318, 319, 320, 321, 322, 323, 324, 325, 326, 327, 328, 329, 330, 331, 332, 333, 334, 335, 336, 337, 338, 339, 340, 341, 342, 343, 344, 345, 346, 347, 348, 349, 350, 351, 352, 353, 354, 355, 356],
      "AcquisitionTime": ["112519.660000", "112520.660000", "112521.660000", "112522.660000", "112523.660000", "112524.660000", "112525.660000", "112526.660000", "112527.660000", "112528.660000", "112529.660000", "112530.660000", "112531.660000", "112532.660000", "112533.660000", "112534.660000", "112535.660000", "112536.660000", "112537.660000", "112538.660000", "112539.660000", "112540.660000", "112541.660000", "112542.660000", "112543.660000", "112544.660000", "112545.660000", "112546.660000", "112547.660000", "112548.660000", "112549.660000", "112550.660000", "112551.660000", "112552.660000", "112553.660000", "112554.660000", "112555.660000", "112556.660000", "112557.660000", "112558.660000", "112559.660000", "112600.660000", "112601.660000", "112602.660000", "112603.660000", "112604.660000", "112605.660000", "112606.660000", "112607.660000", "112608.660000", "112609.660000", "112610.660000", "112611.660000", "112612.660000", "112613.660000", "112614.660000", "112615.660000", "112616.660000", "112617.660000", "112618.660000", "112619.660000", "112620.660000", "112621.660000", "112622.660000", "112623.660000", "112624.660000", "112625.660000", "112626.660000", "112627.660000", "112628.660000", "112629.660000", "112630.660000", "112631.660000", "112632.660000", "112633.660000", "112634.660000", "112635.660000", "112636.660000", "112637.660000", "112638.660000", "112639.660000", "112640.660000", "112641.660000", "112642.660000", "112643.660000", "112644.660000", "112645.660000", "112646.660000", "112647.660000", "112648.660000", "112649.660000", "112650.660000", "112651.660000", "112652.660000", "112653.660000", "112654.660000", "112655.660000", "112656.660000", "112657.660000", "112658.660000", "112659.660000", "112700.660000", "112701.660000", "112702.660000", "112703.660000", "112704.660000", "112705.660000", "112706.660000", "112707.660000", "112708.660000", "112709.660000", "112710.660000", "112711.660000", "112712.660000", "112713.660000", "112714.660000", "112715.660000", "112716.660000", "112717.660000", "112718.660000", "112719.660000", "112720.660000", "112721.660000", "112722.660000", "112723.660000", "112724.660000", "112725.660000", "112726.660000", "112727.660000", "112728.660000", "112729.660000", "112730.660000", "112731.660000", "112732.660000", "112733.660000", "112734.660000", "112735.660000", "112736.660000", "112737.660000", "112738.660000", "112739.660000", "112740.660000", "112741.660000", "112742.660000", "112743.660000", "112744.660000", "112745.660000", "112746.660000", "112747.660000", "112748.660000", "112749.660000", "112750.660000", "112751.660000", "112752.660000", "112753.660000", "112754.660000", "112755.660000", "112756.660000", "112757.660000", "112758.660000", "112759.660000", "112800.660000", "112801.660000", "112802.660000", "112803.660000", "112804.660000", "112805.660000", "112806.660000", "112807.660000", "112808.660000", "112809.660000", "112810.660000", "112811.660000", "112812.660000", "112813.660000", "112814.660000", "112815.660000", "112816.660000", "112817.660000", "112818.660000", "112819.660000", "112820.660000", "112821.660000", "112822.660000", "112823.660000", "112824.660000", "112825.660000", "112826.660000", "112827.660000", "112828.660000", "112829.660000", "112830.660000", "112831.660000", "112832.660000", "112833.660000", "112834.660000", "112835.660000", "112836.660000", "112837.660000", "112838.660000", "112839.660000", "112840.660000", "112841.660000", "112842.660000", "112843.660000", "112844.660000", "112845.660000", "112846.660000", "112847.660000", "112848.660000", "112849.660000", "112850.660000", "112851.660000", "112852.660000", "112853.660000", "112854.660000", "112855.660000", "112856.660000", "112857.660000", "112858.660000", "112859.660000", "112900.660000", "112901.660000", "112902.660000", "112903.660000", "112904.660000", "112905.660000", "112906.660000", "112907.660000", "112908.660000", "112909.660000", "112910.660000", "112911.660000", "112912.660000", "112913.660000", "112914.660000", "112915.660000", "112916.660000", "112917.660000", "112918.660000", "112919.660000", "112920.660000", "112921.660000", "112922.660000", "112923.660000", "112924.660000", "112925.660000", "112926.660000", "112927.660000", "112928.660000", "112929.660000", "112930.660000", "112931.660000", "112932.660000", "112933.660000", "112934.660000", "112935.660000", "112936.660000", "112937.660000", "112938.660000", "112939.660000", "112940.660000", "112941.660000", "112942.660000", "112943.660000", "112944.660000", "112945.660000", "112946.660000", "112947.660000", "112948.660000", "112949.660000", "112950.660000", "112951.660000", "112952.660000", "112953.660000", "112954.660000", "112955.660000", "112956.660000", "112957.660000", "112958.660000", "112959.660000", "113000.660000", "113001.660000", "113002.660000", "113003.660000", "113004.660000", "113005.660000", "113006.660000", "113007.660000", "113008.660000", "113009.660000", "113010.660000", "113011.660000", "113012.660000", "113013.660000", "113014.660000", "113015.660000", "113016.660000", "113017.660000", "113018.660000", "113019.660000", "113020.660000", "113021.660000", "113022.660000", "113023.660000", "113024.660000", "113025.660000", "113026.660000", "113027.660000", "113028.660000", "113029.660000", "113030.660000", "113031.660000", "113032.660000", "113033.660000", "113034.660000", "113035.660000", "113036.660000", "113037.660000", "113038.660000", "113039.660000", "113040.660000", "113041.660000", "113042.660000", "113043.660000", "113044.660000", "113045.660000", "113046.660000", "113047.660000", "113048.660000", "113049.660000", "113050.660000", "113051.660000", "113052.660000", "113053.660000", "113054.660000", "113055.660000", "113056.660000", "113057.660000", "113058.660000", "113059.660000", "113100.660000", "113101.660000", "113102.660000", "113103.660000", "113104.660000", "113105.660000", "113106.660000", "113107.660000", "113108.660000", "113109.660000", "113110.660000", "113111.660000", "113112.660000", "113113.660000", "113114.660000"],
      "ContentTime": ["112553.992000", "112553.995000", "112553.998000", "112554.001000", "112554.004000", "112554.006000", "112554.009000", "112554.011000", "112554.013000", "112554.016000", "112554.018000", "112554.021000", "112554.023000", "112554.026000", "112554.029000", "112554.031000", "112554.034000", "112554.036000", "112554.039000", "112554.041000", "112554.044000", "112554.052000", "112554.054000", "112554.057000", "112554.059000", "112554.062000", "112554.074000", "112554.077000", "112554.079000", "112554.093000", "112554.096000", "112554.098000", "112554.101000", "112613.964000", "112613.967000", "112613.970000", "112613.972000", "112613.975000", "112613.977000", "112613.980000", "112613.982000", "112613.985000", "112613.987000", "112613.990000", "112613.992000", "112614.004000", "112614.007000", "112614.009000", "112614.012000", "112614.014000", "112614.017000", "112614.019000", "112614.021000", "112633.964000", "112633.967000", "112633.969000", "112633.972000", "112633.975000", "112633.977000", "112633.979000", "112633.982000", "112633.984000", "112633.987000", "112633.989000", "112633.992000", "112633.994000", "112633.997000", "112634.000000", "112634.003000", "112634.005000", "112634.008000", "112634.010000", "112634.013000", "112653.964000", "112653.967000", "112653.969000", "112653.972000", "112653.974000", "112653.977000", "112653.979000", "112653.982000", "112653.984000", "112653.987000", "112653.989000", "112653.992000", "112653.994000", "112653.996000", "112654.000000", "112654.003000", "112654.005000", "112654.008000", "112654.010000", "112654.013000", "112713.964000", "112713.967000", "112713.970000", "112713.972000", "112713.975000", "112713.977000", "112713.980000", "112713.982000", "112713.985000", "112713.987000", "112713.990000", "112713.992000", "112713.995000", "112713.997000", "112714.001000", "112714.003000", "112714.006000", "112714.009000", "112714.011000", "112714.014000", "112733.963000", "112733.966000", "112733.968000", "112733.971000", "112733.973000", "112733.976000", "112733.978000", "112733.981000", "112733.983000", "112733.986000", "112733.988000", "112733.991000", "112733.993000", "112733.996000", "112733.998000", "112734.002000", "112734.005000", "112734.007000", "112734.009000", "112734.012000", "112753.964000", "112753.967000", "112753.969000", "112753.972000", "112753.974000", "112753.977000", "112753.979000", "112753.982000", "112753.984000", "112753.987000", "112753.989000", "112753.992000", "112753.994000", "112753.997000", "112754.000000", "112754.003000", "112754.005000", "112754.008000", "112754.010000", "112754.013000", "112813.964000", "112813.967000", "112813.970000", "112813.972000", "112813.975000", "112813.977000", "112813.980000", "112813.982000", "112813.985000", "112813.987000", "112813.989000", "112813.992000", "112813.994000", "112813.997000", "112814.000000", "112814.003000", "112814.005000", "112814.008000", "112814.010000", "112814.013000", "112833.965000", "112833.967000", "112833.970000", "112833.972000", "112833.975000", "112833.977000", "112833.980000", "112833.982000", "112833.985000", "112833.987000", "112833.990000", "112833.992000", "112833.995000", "112833.997000", "112834.001000", "112834.003000", "112834.006000", "112834.009000", "112834.011000", "112834.014000", "112853.964000", "112853.967000", "112853.970000", "112853.972000", "112853.975000", "112853.977000", "112853.980000", "112853.982000", "112853.985000", "112853.987000", "112853.990000", "112853.992000", "112853.995000", "112853.997000", "112854.001000", "112854.003000", "112854.006000", "112854.008000", "112854.011000", "112854.013000", "112913.964000", "112913.967000", "112913.970000", "112913.972000", "112913.975000", "112913.977000", "112913.980000", "112913.982000", "112913.985000", "112913.988000", "112913.990000", "112913.993000", "112913.995000", "112913.998000", "112914.001000", "112914.004000", "112914.006000", "112914.009000", "112914.011000", "112914.014000", "112933.964000", "112933.967000", "112933.970000", "112933.972000", "112933.975000", "112933.978000", "112933.980000", "112933.982000", "112933.985000", "112933.987000", "112933.990000", "112933.992000", "112933.995000", "112934.012000", "112934.014000", "112934.017000", "112934.019000", "112934.022000", "112934.024000", "112934.027000", "112953.963000", "112953.966000", "112953.969000", "112953.971000", "112953.974000", "112953.976000", "112953.979000", "112953.981000", "112953.984000", "112953.986000", "112953.988000", "112953.991000", "112953.993000", "112953.996000", "112953.998000", "112954.002000", "112954.004000", "112954.007000", "112954.009000", "112954.012000", "113013.964000", "113013.967000", "113013.970000", "113013.972000", "113013.975000", "113013.977000", "113013.980000", "113013.982000", "113013.985000", "113013.987000", "113013.990000", "113013.992000", "113013.995000", "113013.997000", "113014.001000", "113014.003000", "113014.006000", "113014.008000", "113014.011000", "113014.013000", "113033.964000", "113033.967000", "113033.970000", "113033.972000", "113033.975000", "113033.977000", "113033.980000", "113033.982000", "113033.985000", "113033.987000", "113033.990000", "113033.992000", "113033.995000", "113033.997000", "113034.001000", "113034.003000", "113034.006000", "113034.009000", "113034.011000", "113034.014000", "113053.964000", "113053.967000", "113053.970000", "113053.972000", "113053.975000", "113053.977000", "113053.980000", "113053.982000", "113053.985000", "113053.987000", "113053.990000", "113053.992000", "113053.995000", "113053.997000", "113054.001000", "113054.004000", "113054.006000", "113054.009000", "113054.011000", "113054.014000", "113113.964000", "113113.967000", "113113.969000", "113113.972000", "113113.975000", "113113.977000", "113113.980000", "113113.982000", "113113.985000", "113113.987000", "113113.990000", "113113.992000", "113113.995000", "113113.997000", "113114.000000", "113114.002000", "113114.005000", "113114.007000", "113114.010000", "113114.012000", "113116.685000", "113116.688000", "113116.691000"],
      "InstanceCreationTime": ["112553.992000", "112553.995000", "112553.998000", "112554.001000", "112554.004000", "112554.006000", "112554.009000", "112554.011000", "112554.013000", "112554.016000", "112554.018000", "112554.021000", "112554.023000", "112554.026000", "112554.029000", "112554.031000", "112554.034000", "112554.036000", "112554.039000", "112554.041000", "112554.044000", "112554.052000", "112554.054000", "112554.057000", "112554.059000", "112554.062000", "112554.074000", "112554.077000", "112554.079000", "112554.093000", "112554.096000", "112554.098000", "112554.101000", "112613.964000", "112613.967000", "112613.970000", "112613.972000", "112613.975000", "112613.977000", "112613.980000", "112613.982000", "112613.985000", "112613.987000", "112613.990000", "112613.992000", "112614.004000", "112614.007000", "112614.009000", "112614.012000", "112614.014000", "112614.017000", "112614.019000", "112614.021000", "112633.964000", "112633.967000", "112633.969000", "112633.972000", "112633.975000", "112633.977000", "112633.979000", "112633.982000", "112633.984000", "112633.987000", "112633.989000", "112633.992000", "112633.994000", "112633.997000", "112634.000000", "112634.003000", "112634.005000", "112634.008000", "112634.010000", "112634.013000", "112653.964000", "112653.967000", "112653.969000", "112653.972000", "112653.974000", "112653.977000", "112653.979000", "112653.982000", "112653.984000", "112653.987000", "112653.989000", "112653.992000", "112653.994000", "112653.996000", "112654.000000", "112654.003000", "112654.005000", "112654.008000", "112654.010000", "112654.013000", "112713.964000", "112713.967000", "112713.970000", "112713.972000", "112713.975000", "112713.977000", "112713.980000", "112713.982000", "112713.985000", "112713.987000", "112713.990000", "112713.992000", "112713.995000", "112713.997000", "112714.001000", "112714.003000", "112714.006000", "112714.009000", "112714.011000", "112714.014000", "112733.963000", "112733.966000", "112733.968000", "112733.971000", "112733.973000", "112733.976000", "112733.978000", "112733.981000", "112733.983000", "112733.986000", "112733.988000", "112733.991000", "112733.993000", "112733.996000", "112733.998000", "112734.002000", "112734.005000", "112734.007000", "112734.009000", "112734.012000", "112753.964000", "112753.967000", "112753.969000", "112753.972000", "112753.974000", "112753.977000", "112753.979000", "112753.982000", "112753.984000", "112753.987000", "112753.989000", "112753.992000", "112753.994000", "112753.997000", "112754.000000", "112754.003000", "112754.005000", "112754.008000", "112754.010000", "112754.013000", "112813.964000", "112813.967000", "112813.970000", "112813.972000", "112813.975000", "112813.977000", "112813.980000", "112813.982000", "112813.985000", "112813.987000", "112813.989000", "112813.992000", "112813.994000", "112813.997000", "112814.000000", "112814.003000", "112814.005000", "112814.008000", "112814.010000", "112814.013000", "112833.965000", "112833.967000", "112833.970000", "112833.972000", "112833.975000", "112833.977000", "112833.980000", "112833.982000", "112833.985000", "112833.987000", "112833.990000", "112833.992000", "112833.995000", "112833.997000", "112834.001000", "112834.003000", "112834.006000", "112834.009000", "112834.011000", "112834.014000", "112853.964000", "112853.967000", "112853.970000", "112853.972000", "112853.975000", "112853.977000", "112853.980000", "112853.982000", "112853.985000", "112853.987000", "112853.990000", "112853.992000", "112853.995000", "112853.997000", "112854.001000", "112854.003000", "112854.006000", "112854.008000", "112854.011000", "112854.013000", "112913.964000", "112913.967000", "112913.970000", "112913.972000", "112913.975000", "112913.977000", "112913.980000", "112913.982000", "112913.985000", "112913.988000", "112913.990000", "112913.993000", "112913.995000", "112913.998000", "112914.001000", "112914.004000", "112914.006000", "112914.009000", "112914.011000", "112914.014000", "112933.964000", "112933.967000", "112933.970000", "112933.972000", "112933.975000", "112933.978000", "112933.980000", "112933.982000", "112933.985000", "112933.987000", "112933.990000", "112933.992000", "112933.995000", "112934.012000", "112934.014000", "112934.017000", "112934.019000", "112934.022000", "112934.024000", "112934.027000", "112953.963000", "112953.966000", "112953.969000", "112953.971000", "112953.974000", "112953.976000", "112953.979000", "112953.981000", "112953.984000", "112953.986000", "112953.988000", "112953.991000", "112953.993000", "112953.996000", "112953.998000", "112954.002000", "112954.004000", "112954.007000", "112954.009000", "112954.012000", "113013.964000", "113013.967000", "113013.970000", "113013.972000", "113013.975000", "113013.977000", "113013.980000", "113013.982000", "113013.985000", "113013.987000", "113013.990000", "113013.992000", "113013.995000", "113013.997000", "113014.001000", "113014.003000", "113014.006000", "113014.008000", "113014.011000", "113014.013000", "113033.964000", "113033.967000", "113033.970000", "113033.972000", "113033.975000", "113033.977000", "113033.980000", "113033.982000", "113033.985000", "113033.987000", "113033.990000", "113033.992000", "113033.995000", "113033.997000", "113034.001000", "113034.003000", "113034.006000", "113034.009000", "113034.011000", "113034.014000", "113053.964000", "113053.967000", "113053.970000", "113053.972000", "113053.975000", "113053.977000", "113053.980000", "113053.982000", "113053.985000", "113053.987000", "113053.990000", "113053.992000", "113053.995000", "113053.997000", "113054.001000", "113054.004000", "113054.006000", "113054.009000", "113054.011000", "113054.014000", "113113.964000", "113113.967000", "113113.969000", "113113.972000", "113113.975000", "113113.977000", "113113.980000", "113113.982000", "113113.985000", "113113.987000", "113113.990000", "113113.992000", "113113.995000", "113113.997000", "113114.000000", "113114.002000", "113114.005000", "113114.007000", "113114.010000", "113114.012000", "113116.685000", "113116.688000", "113116.691000"],
      "InstanceNumber": [1, 2, 3, 4, 5, 6, 7, 8, 9, 10, 11, 12, 13, 14, 15, 16, 17, 18, 19, 20, 21, 22, 23, 24, 25, 26, 27, 28, 29, 30, 31, 32, 33, 34, 35, 36, 37, 38, 39, 40, 41, 42, 43, 44, 45, 46, 47, 48, 49, 50, 51, 52, 53, 54, 55, 56, 57, 58, 59, 60, 61, 62, 63, 64, 65, 66, 67, 68, 69, 70, 71, 72, 73, 74, 75, 76, 77, 78, 79, 80, 81, 82, 83, 84, 85, 86, 87, 88, 89, 90, 91, 92, 93, 94, 95, 96, 97, 98, 99, 100, 101, 102, 103, 104, 105, 106, 107, 108, 109, 110, 111, 112, 113, 114, 115, 116, 117, 118, 119, 120, 121, 122, 123, 124, 125, 126, 127, 128, 129, 130, 131, 132, 133, 134, 135, 136, 137, 138, 139, 140, 141, 142, 143, 144, 145, 146, 147, 148, 149, 150, 151, 152, 153, 154, 155, 156, 157, 158, 159, 160, 161, 162, 163, 164, 165, 166, 167, 168, 169, 170, 171, 172, 173, 174, 175, 176, 177, 178, 179, 180, 181, 182, 183, 184, 185, 186, 187, 188, 189, 190, 191, 192, 193, 194, 195, 196, 197, 198, 199, 200, 201, 202, 203, 204, 205, 206, 207, 208, 209, 210, 211, 212, 213, 214, 215, 216, 217, 218, 219, 220, 221, 222, 223, 224, 225, 226, 227, 228, 229, 230, 231, 232, 233, 234, 235, 236, 237, 238, 239, 240, 241, 242, 243, 244, 245, 246, 247, 248, 249, 250, 251, 252, 253, 254, 255, 256, 257, 258, 259, 260, 261, 262, 263, 264, 265, 266, 267, 268, 269, 270, 271, 272, 273, 274, 275, 276, 277, 278, 279, 280, 281, 282, 283, 284, 285, 286, 287, 288, 289, 290, 291, 292, 293, 294, 295, 296, 297, 298, 299, 300, 301, 302, 303, 304, 305, 306, 307, 308, 309, 310, 311, 312, 313, 314, 315, 316, 317, 318, 319, 320, 321, 322, 323, 324, 325, 326, 327, 328, 329, 330, 331, 332, 333, 334, 335, 336, 337, 338, 339, 340, 341, 342, 343, 344, 345, 346, 347, 348, 349, 350, 351, 352, 353, 354, 355, 356],
      "LargestImagePixelValue": [12626, 12234, 12032, 12030, 11897, 11867, 11781, 11630, 11745, 11568, 11672, 11761, 11620, 11862, 11796, 11837, 11794, 11800, 11818, 11759, 11767, 11625, 11585, 11739, 11724, 11770, 11741, 11823, 11710, 11681, 11631, 11697, 11622, 11679, 11721, 11622, 11748, 11677, 11627, 11661, 11722, 11755, 11862, 11656, 11826, 11806, 11790, 11858, 11731, 11745, 11629, 11619, 11953, 11741, 11834, 11913, 11874, 11789, 11913, 11803, 11819, 11984, 11968, 11727, 11921, 11768, 11555, 11835, 11800, 11753, 11701, 11665, 11496, 11414, 11596, 11501, 11692, 11662, 11729, 11787, 11702, 11505, 11653, 11578, 11733, 11722, 11707, 11576, 11671, 11590, 11657, 11713, 11677, 11847, 11721, 11863, 11684, 11885, 11759, 11607, 11724, 11601, 11620, 11719, 11686, 11768, 11823, 11834, 11777, 11626, 11603, 11591, 11526, 11619, 11707, 11762, 11693, 11652, 11585, 11750, 11702, 11940, 11733, 11670, 11672, 11751, 11500, 11438, 11558, 11778, 11825, 11645, 11665, 11740, 11741, 11687, 11780, 11765, 11758, 11813, 11677, 11761, 11600, 11743, 11641, 11697, 11907, 11951, 11822, 11774, 11820, 11819, 11722, 11765, 11803, 11829, 11740, 11781, 11857, 11642, 11670, 11705, 11773, 11781, 11683, 11585, 11795, 11650, 11597, 11578, 11612, 11586, 11612, 11766, 11657, 11741, 11708, 11674, 11619, 11643, 11629, 11699, 11623, 11660, 11655, 11729, 11706, 11523, 11629, 11778, 11585, 11613, 11769, 11749, 11669, 11763, 11763, 11542, 11788, 11842, 11676, 11717, 11700, 11737, 11589, 11642, 11612, 11565, 11729, 11667, 11599, 11762, 11601, 11720, 11815, 11761, 11641, 11755, 11571, 11610, 11684, 11605, 11668, 11648, 11650, 11661, 11667, 11737, 11675, 11757, 11789, 11673, 11668, 11689, 11689, 11741, 11801, 11680, 11651, 11884, 11806, 11651, 11706, 11732, 11636, 11645, 11684, 11694, 11647, 11640, 11679, 11619, 11606, 11501, 11543, 11702, 11785, 11677, 11496, 11656, 11623, 11775, 11737, 11616, 11644, 11840, 11829, 11802, 11591, 11708, 11609, 11855, 11690, 11662, 11748, 11847, 11723, 11882, 11809, 11612, 11846, 11645, 11772, 11661, 11578, 11698, 11670, 11490, 11710, 11545, 11495, 11728, 11701, 11740, 11734, 11767, 11693, 11764, 11686, 11627, 11629, 11793, 11644, 11535, 11627, 11588, 11626, 11793, 11573, 11706, 11495, 11449, 11502, 11665, 11655, 11639, 11552, 11749, 11576, 11616, 11650, 11669, 11710, 11752, 11714, 11734, 11719, 11900, 11812, 11715, 11586, 11535, 11566, 11641, 11709, 11645, 11684, 11660, 11537, 11468, 11560, 11573, 11598, 11766, 11618, 11704, 11774, 11682, 11680, 11609, 11684, 11547, 11620, 11521, 11449, 11586],
