{
  "AcquisitionMatrixPE": 106,
  "AcquisitionNumber": 1,
  "AcquisitionTime": "10:56:44.592500",
  "BandwidthPerPixelPhaseEncode": 13.477,
  "BaseResolution": 106,
  "BodyPartExamined": "BRAIN",
  "CoilCombinationMethod": "Sum of Squares",
  "ConsistencyInfo": "N4_VE11C_LATEST_20160120",
  "ConversionSoftware": "dcm2niix",
  "ConversionSoftwareVersion": "v1.0.20220720",
  "DerivedVendorReportedEchoSpacing": 0.000700005,
  "DeviceSerialNumber": "166108",
  "DwellTime": 2.6e-06,
  "EchoTime": 0.03,
  "EchoTrainLength": 80,
  "EffectiveEchoSpacing": 0.000700005,
  "FlipAngle": 62,
  "HeudiconvVersion": "1.3.0",
  "ImageComments": "Unaliased MB4/PE3/LB",
  "ImageOrientationPatientDICOM": [1, 0, 0, 0, 0.998441, -0.0558215],
  "ImageOrientationText": "Tra>Cor(-3.2)",
  "ImageType": [
    "ORIGINAL",
    "PRIMARY",
    "M",
    "MB",
    "ND",
    "MOSAIC"
],
  "ImagingFrequency": 123.244,
  "InPlanePhaseEncodingDirectionDICOM": "COL",
  "InstitutionAddress": "Bedford Way 26,London,London,GB,WC1H 0AP",
  "InstitutionName": "University College",
  "InstitutionalDepartmentName": "Department",
  "MRAcquisitionType": "2D",
  "MagneticFieldStrength": 3,
  "Manufacturer": "Siemens",
  "ManufacturersModelName": "Prisma",
  "MatrixCoilMode": "SENSE",
  "Modality": "MR",
  "MultibandAccelerationFactor": 4,
  "NonlinearGradientCorrection": false,
  "PartialFourier": 0.75,
  "PatientPosition": "HFS",
  "PercentPhaseFOV": 100,
  "PercentSampling": 100,
  "PhaseEncodingDirection": "j-",
  "PhaseEncodingSteps": 80,
  "PhaseResolution": 1,
  "PixelBandwidth": 1815,
  "ProcedureStepDescription": "Egor^MovieProject2",
  "ProtocolName": "func-bold_task-motor_run-01",
  "PulseSequenceDetails": "%CustomerSeq%\\cmrr_mbep2d_bold",
  "ReceiveCoilActiveElements": "HEA;HEP",
  "ReceiveCoilName": "Head_32",
  "ReconMatrixPE": 106,
  "RepetitionTime": 1,
  "SAR": 0.0409531,
  "ScanOptions": "PFP\\FS\\EXT",
  "ScanningSequence": "EP",
  "SequenceName": "epfid2d1_106",
  "SequenceVariant": "SK\\SS",
  "SeriesDescription": "func-bold_task-motor_run-01",
  "SeriesNumber": 4,
  "ShimSetting": [-1574, 656, 7417, 281, -161, 347, 109, 21],
  "SliceThickness": 2,
  "SliceTiming": [0, 0.535, 0.09, 0.6225, 0.1775, 0.7125, 0.2675, 0.8025, 0.355, 0.89, 0.445, 0, 0.535, 0.09, 0.6225, 0.1775, 0.7125, 0.2675, 0.8025, 0.355, 0.89, 0.445, 0, 0.535, 0.09, 0.6225, 0.1775, 0.7125, 0.2675, 0.8025, 0.355, 0.89, 0.445, 0, 0.535, 0.09, 0.6225, 0.1775, 0.7125, 0.2675, 0.8025, 0.355, 0.89, 0.445],
  "SoftwareVersions": "syngo MR E11",
  "SpacingBetweenSlices": 2,
  "StationName": "AWP166108",
  "TaskName": "somatotopy",
  "TotalReadoutTime": 0.0735005,
  "TxRefAmp": 217.326,
  "WipMemBlock": "6e633eea-24fe-449c-9a7d-8014def37384||Sequence: R016 ve11c/master r/e634e98; Dec 19 2017 11:00:25 by eja",
  "dcmmeta_affine": [
    [-2.0, 0.0, 0.0, 106.0],
    [0.0, 1.9968814849853516, -0.11164301633834839, -99.63992309570312],
    [0.0, 0.11164300888776779, 1.9968816041946411, -0.334774911403656],
    [0.0, 0.0, 0.0, 1.0]
],
  "dcmmeta_reorient_transform": [
    [0.0, -1.0, 0.0, 105.0],
    [1.0, 0.0, 0.0, 0.0],
    [0.0, 0.0, 1.0, 0.0],
    [0.0, 0.0, 0.0, 1.0]
],
  "dcmmeta_shape": [106, 106, 44, 467],
  "dcmmeta_slice_dim": 2,
  "dcmmeta_version": 0.6,
  "global": {
    "const": {
      "AcquisitionMatrix": [106, 0, 0, 106],
      "AngioFlag": "N",
      "BitsAllocated": 16,
      "BitsStored": 16,
      "BodyPartExamined": "BRAIN",
      "CardiacNumberOfImages": 1,
      "Columns": 742,
      "EchoNumbers": 1,
      "EchoTime": 30.0,
      "EchoTrainLength": 80,
      "FlipAngle": 62.0,
      "HighBit": 15,
      "ImageOrientationPatient": [1.0, 0.0, 0.0, 0.0, 0.99844076416615, -0.0558215052763],
      "ImagePositionPatient": [-742.0, -745.04096208849, 46.890218555171],
      "ImageType": [
        "ORIGINAL",
        "PRIMARY",
        "M",
        "MB",
        "ND",
        "MOSAIC"
],
      "ImagedNucleus": "1H",
      "ImagingFrequency": 123.243689,
      "InPlanePhaseEncodingDirection": "COL",
      "MRAcquisitionType": "2D",
      "MagneticFieldStrength": 3.0,
      "Manufacturer": "SIEMENS",
      "ManufacturerModelName": "Prisma",
      "Modality": "MR",
      "NominalInterval": 0,
      "NumberOfAverages": 1.0,
      "NumberOfPhaseEncodingSteps": 80,
      "PercentPhaseFieldOfView": 100.0,
      "PercentSampling": 100.0,
      "PerformedProcedureStepStartTime": "103544.537000",
      "PhotometricInterpretation": "MONOCHROME2",
      "PixelBandwidth": 1815.0,
      "PixelRepresentation": 0,
      "PixelSpacing": [2.0, 2.0],
      "ProtocolName": "func-bold_task-motor_run-01",
      "RepetitionTime": 1000.0,
      "Rows": 742,
      "SAR": 0.04095309335777,
      "SamplesPerPixel": 1,
      "ScanOptions": [
        "PFP",
        "FS",
        "EXT"
],
      "ScanningSequence": "EP",
      "SequenceName": "epfid2d1_106",
      "SequenceVariant": [
        "SK",
        "SS"
],
      "SeriesDescription": "func-bold_task-motor_run-01",
      "SeriesNumber": 4,
      "SeriesTime": "105723.384000",
      "SliceLocation": 5.2277976498712,
      "SliceThickness": 2.0,
      "SmallestImagePixelValue": 0,
      "SoftwareVersions": "syngo MR E11",
      "SpacingBetweenSlices": 2.0000000784481,
      "SpecificCharacterSet": "ISO_IR 100",
      "StudyID": "1",
      "StudyTime": "103544.479000",
      "TransmitCoilName": "Body",
      "VariableFlipAngleFlag": "N",
      "WindowCenterWidthExplanation": "Algo1",
      "dBdt": 0.0},
    "slices": {}
  },
  "time": {
    "samples": {
      "AcquisitionNumber": [1, 2, 3, 4, 5, 6, 7, 8, 9, 10, 11, 12, 13, 14, 15, 16, 17, 18, 19, 20, 21, 22, 23, 24, 25, 26, 27, 28, 29, 30, 31, 32, 33, 34, 35, 36, 37, 38, 39, 40, 41, 42, 43, 44, 45, 46, 47, 48, 49, 50, 51, 52, 53, 54, 55, 56, 57, 58, 59, 60, 61, 62, 63, 64, 65, 66, 67, 68, 69, 70, 71, 72, 73, 74, 75, 76, 77, 78, 79, 80, 81, 82, 83, 84, 85, 86, 87, 88, 89, 90, 91, 92, 93, 94, 95, 96, 97, 98, 99, 100, 101, 102, 103, 104, 105, 106, 107, 108, 109, 110, 111, 112, 113, 114, 115, 116, 117, 118, 119, 120, 121, 122, 123, 124, 125, 126, 127, 128, 129, 130, 131, 132, 133, 134, 135, 136, 137, 138, 139, 140, 141, 142, 143, 144, 145, 146, 147, 148, 149, 150, 151, 152, 153, 154, 155, 156, 157, 158, 159, 160, 161, 162, 163, 164, 165, 166, 167, 168, 169, 170, 171, 172, 173, 174, 175, 176, 177, 178, 179, 180, 181, 182, 183, 184, 185, 186, 187, 188, 189, 190, 191, 192, 193, 194, 195, 196, 197, 198, 199, 200, 201, 202, 203, 204, 205, 206, 207, 208, 209, 210, 211, 212, 213, 214, 215, 216, 217, 218, 219, 220, 221, 222, 223, 224, 225, 226, 227, 228, 229, 230, 231, 232, 233, 234, 235, 236, 237, 238, 239, 240, 241, 242, 243, 244, 245, 246, 247, 248, 249, 250, 251, 252, 253, 254, 255, 256, 257, 258, 259, 260, 261, 262, 263, 264, 265, 266, 267, 268, 269, 270, 271, 272, 273, 274, 275, 276, 277, 278, 279, 280, 281, 282, 283, 284, 285, 286, 287, 288, 289, 290, 291, 292, 293, 294, 295, 296, 297, 298, 299, 300, 301, 302, 303, 304, 305, 306, 307, 308, 309, 310, 311, 312, 313, 314, 315, 316, 317, 318, 319, 320, 321, 322, 323, 324, 325, 326, 327, 328, 329, 330, 331, 332, 333, 334, 335, 336, 337, 338, 339, 340, 341, 342, 343, 344, 345, 346, 347, 348, 349, 350, 351, 352, 353, 354, 355, 356, 357, 358, 359, 360, 361, 362, 363, 364, 365, 366, 367, 368, 369, 370, 371, 372, 373, 374, 375, 376, 377, 378, 379, 380, 381, 382, 383, 384, 385, 386, 387, 388, 389, 390, 391, 392, 393, 394, 395, 396, 397, 398, 399, 400, 401, 402, 403, 404, 405, 406, 407, 408, 409, 410, 411, 412, 413, 414, 415, 416, 417, 418, 419, 420, 421, 422, 423, 424, 425, 426, 427, 428, 429, 430, 431, 432, 433, 434, 435, 436, 437, 438, 439, 440, 441, 442, 443, 444, 445, 446, 447, 448, 449, 450, 451, 452, 453, 454, 455, 456, 457, 458, 459, 460, 461, 462, 463, 464, 465, 466, 467],
      "AcquisitionTime": ["105644.592500", "105645.592500", "105646.592500", "105647.592500", "105648.592500", "105649.592500", "105650.592500", "105651.592500", "105652.592500", "105653.592500", "105654.592500", "105655.592500", "105656.592500", "105657.592500", "105658.592500", "105659.592500", "105700.592500", "105701.592500", "105702.592500", "105703.592500", "105704.592500", "105705.592500", "105706.592500", "105707.592500", "105708.592500", "105709.592500", "105710.592500", "105711.592500", "105712.592500", "105713.592500", "105714.592500", "105715.592500", "105716.592500", "105717.592500", "105718.592500", "105719.592500", "105720.592500", "105721.592500", "105722.592500", "105723.592500", "105724.592500", "105725.592500", "105726.592500", "105727.592500", "105728.592500", "105729.592500", "105730.592500", "105731.592500", "105732.592500", "105733.592500", "105734.592500", "105735.592500", "105736.592500", "105737.592500", "105738.592500", "105739.592500", "105740.592500", "105741.592500", "105742.592500", "105743.592500", "105744.592500", "105745.592500", "105746.592500", "105747.592500", "105748.592500", "105749.592500", "105750.592500", "105751.592500", "105752.592500", "105753.592500", "105754.592500", "105755.592500", "105756.592500", "105757.592500", "105758.592500", "105759.592500", "105800.592500", "105801.592500", "105802.592500", "105803.592500", "105804.592500", "105805.592500", "105806.592500", "105807.592500", "105808.592500", "105809.592500", "105810.592500", "105811.592500", "105812.592500", "105813.592500", "105814.592500", "105815.592500", "105816.592500", "105817.592500", "105818.592500", "105819.592500", "105820.592500", "105821.592500", "105822.592500", "105823.592500", "105824.592500", "105825.592500", "105826.592500", "105827.592500", "105828.592500", "105829.592500", "105830.592500", "105831.592500", "105832.592500", "105833.592500", "105834.592500", "105835.592500", "105836.592500", "105837.592500", "105838.592500", "105839.592500", "105840.592500", "105841.592500", "105842.592500", "105843.592500", "105844.592500", "105845.592500", "105846.592500", "105847.592500", "105848.592500", "105849.592500", "105850.592500", "105851.592500", "105852.592500", "105853.592500", "105854.592500", "105855.592500", "105856.592500", "105857.592500", "105858.592500", "105859.592500", "105900.592500", "105901.592500", "105902.592500", "105903.592500", "105904.592500", "105905.592500", "105906.592500", "105907.592500", "105908.592500", "105909.592500", "105910.592500", "105911.592500", "105912.592500", "105913.592500", "105914.592500", "105915.592500", "105916.592500", "105917.592500", "105918.592500", "105919.592500", "105920.592500", "105921.592500", "105922.592500", "105923.592500", "105924.592500", "105925.592500", "105926.592500", "105927.592500", "105928.592500", "105929.592500", "105930.592500", "105931.592500", "105932.592500", "105933.592500", "105934.592500", "105935.592500", "105936.592500", "105937.592500", "105938.592500", "105939.592500", "105940.592500", "105941.592500", "105942.592500", "105943.592500", "105944.592500", "105945.592500", "105946.592500", "105947.592500", "105948.592500", "105949.592500", "105950.592500", "105951.592500", "105952.592500", "105953.592500", "105954.592500", "105955.592500", "105956.592500", "105957.592500", "105958.592500", "105959.592500", "110000.592500", "110001.592500", "110002.592500", "110003.592500", "110004.592500", "110005.592500", "110006.592500", "110007.592500", "110008.592500", "110009.592500", "110010.592500", "110011.592500", "110012.592500", "110013.592500", "110014.592500", "110015.592500", "110016.592500", "110017.592500", "110018.592500", "110019.592500", "110020.592500", "110021.592500", "110022.592500", "110023.592500", "110024.592500", "110025.592500", "110026.592500", "110027.592500", "110028.592500", "110029.592500", "110030.592500", "110031.592500", "110032.592500", "110033.592500", "110034.592500", "110035.592500", "110036.592500", "110037.592500", "110038.592500", "110039.592500", "110040.592500", "110041.592500", "110042.592500", "110043.592500", "110044.592500", "110045.592500", "110046.592500", "110047.592500", "110048.592500", "110049.592500", "110050.592500", "110051.592500", "110052.592500", "110053.592500", "110054.592500", "110055.592500", "110056.592500", "110057.592500", "110058.592500", "110059.592500", "110100.592500", "110101.592500", "110102.592500", "110103.592500", "110104.592500", "110105.592500", "110106.592500", "110107.592500", "110108.592500", "110109.592500", "110110.592500", "110111.592500", "110112.592500", "110113.592500", "110114.592500", "110115.592500", "110116.592500", "110117.592500", "110118.592500", "110119.592500", "110120.592500", "110121.592500", "110122.592500", "110123.592500", "110124.592500", "110125.592500", "110126.592500", "110127.592500", "110128.592500", "110129.592500", "110130.592500", "110131.592500", "110132.592500", "110133.592500", "110134.592500", "110135.592500", "110136.592500", "110137.592500", "110138.592500", "110139.592500", "110140.592500", "110141.592500", "110142.592500", "110143.592500", "110144.592500", "110145.592500", "110146.592500", "110147.592500", "110148.592500", "110149.592500", "110150.592500", "110151.592500", "110152.592500", "110153.592500", "110154.592500", "110155.592500", "110156.592500", "110157.592500", "110158.592500", "110159.592500", "110200.592500", "110201.592500", "110202.592500", "110203.592500", "110204.592500", "110205.592500", "110206.592500", "110207.592500", "110208.592500", "110209.592500", "110210.592500", "110211.592500", "110212.592500", "110213.592500", "110214.592500", "110215.592500", "110216.592500", "110217.592500", "110218.592500", "110219.592500", "110220.592500", "110221.592500", "110222.592500", "110223.592500", "110224.592500", "110225.592500", "110226.592500", "110227.592500", "110228.592500", "110229.592500", "110230.592500", "110231.592500", "110232.592500", "110233.592500", "110234.592500", "110235.592500", "110236.592500", "110237.592500", "110238.592500", "110239.592500", "110240.592500", "110241.592500", "110242.592500", "110243.592500", "110244.592500", "110245.592500", "110246.592500", "110247.592500", "110248.592500", "110249.592500", "110250.592500", "110251.592500", "110252.592500", "110253.592500", "110254.592500", "110255.592500", "110256.592500", "110257.592500", "110258.592500", "110259.592500", "110300.592500", "110301.592500", "110302.592500", "110303.592500", "110304.592500", "110305.592500", "110306.592500", "110307.592500", "110308.592500", "110309.592500", "110310.592500", "110311.592500", "110312.592500", "110313.592500", "110314.592500", "110315.592500", "110316.592500", "110317.592500", "110318.592500", "110319.592500", "110320.592500", "110321.592500", "110322.592500", "110323.592500", "110324.592500", "110325.592500", "110326.592500", "110327.592500", "110328.592500", "110329.592500", "110330.592500", "110331.592500", "110332.592500", "110333.592500", "110334.592500", "110335.592500", "110336.592500", "110337.592500", "110338.592500", "110339.592500", "110340.592500", "110341.592500", "110342.592500", "110343.592500", "110344.592500", "110345.592500", "110346.592500", "110347.592500", "110348.592500", "110349.592500", "110350.592500", "110351.592500", "110352.592500", "110353.592500", "110354.592500", "110355.592500", "110356.592500", "110357.592500", "110358.592500", "110359.592500", "110400.592500", "110401.592500", "110402.592500", "110403.592500", "110404.592500", "110405.592500", "110406.592500", "110407.592500", "110408.592500", "110409.592500", "110410.592500", "110411.592500", "110412.592500", "110413.592500", "110414.592500", "110415.592500", "110416.592500", "110417.592500", "110418.592500", "110419.592500", "110420.592500", "110421.592500", "110422.592500", "110423.592500", "110424.592500", "110425.592500", "110426.592500", "110427.592500", "110428.592500", "110429.592500", "110430.592500"],
      "ContentTime": ["105723.386000", "105723.389000", "105723.392000", "105723.394000", "105723.397000", "105723.399000", "105723.402000", "105723.404000", "105723.406000", "105723.409000", "105723.417000", "105723.420000", "105723.422000", "105723.424000", "105723.427000", "105723.430000", "105723.432000", "105723.435000", "105723.437000", "105723.440000", "105723.442000", "105723.445000", "105723.447000", "105723.450000", "105723.452000", "105723.455000", "105723.457000", "105723.460000", "105723.462000", "105723.464000", "105723.467000", "105723.470000", "105723.472000", "105723.475000", "105723.477000", "105723.480000", "105723.482000", "105723.484000", "105743.360000", "105743.363000", "105743.365000", "105743.368000", "105743.370000", "105743.373000", "105743.375000", "105743.378000", "105743.380000", "105743.383000", "105743.385000", "105743.388000", "105743.390000", "105743.393000", "105743.395000", "105743.398000", "105743.400000", "105743.403000", "105743.405000", "105743.408000", "105803.360000", "105803.363000", "105803.366000", "105803.368000", "105803.371000", "105803.373000", "105803.376000", "105803.378000", "105803.381000", "105803.383000", "105803.385000", "105803.388000", "105803.391000", "105803.393000", "105803.395000", "105803.398000", "105803.401000", "105803.403000", "105803.405000", "105803.408000", "105823.360000", "105823.363000", "105823.366000", "105823.369000", "105823.371000", "105823.374000", "105823.376000", "105823.379000", "105823.381000", "105823.384000", "105823.386000", "105823.389000", "105823.391000", "105823.394000", "105823.396000", "105823.399000", "105823.402000", "105823.404000", "105823.407000", "105823.409000", "105843.359000", "105843.362000", "105843.364000", "105843.367000", "105843.369000", "105843.372000", "105843.374000", "105843.377000", "105843.379000", "105843.382000", "105843.384000", "105843.387000", "105843.389000", "105843.392000", "105843.394000", "105843.397000", "105843.413000", "105843.416000", "105843.418000", "105843.421000", "105903.360000", "105903.363000", "105903.366000", "105903.368000", "105903.371000", "105903.373000", "105903.375000", "105903.378000", "105903.380000", "105903.383000", "105903.385000", "105903.388000", "105903.390000", "105903.393000", "105903.395000", "105903.398000", "105903.400000", "105903.403000", "105903.405000", "105903.408000", "105923.360000", "105923.363000", "105923.366000", "105923.368000", "105923.371000", "105923.373000", "105923.376000", "105923.378000", "105923.381000", "105923.383000", "105923.386000", "105923.388000", "105923.391000", "105923.393000", "105923.396000", "105923.398000", "105923.401000", "105923.403000", "105923.405000", "105923.408000", "105943.360000", "105943.363000", "105943.366000", "105943.368000", "105943.371000", "105943.373000", "105943.376000", "105943.378000", "105943.381000", "105943.383000", "105943.386000", "105943.388000", "105943.391000", "105943.393000", "105943.396000", "105943.398000", "105943.407000", "105943.409000", "105943.411000", "105943.414000", "110003.360000", "110003.363000", "110003.365000", "110003.368000", "110003.371000", "110003.373000", "110003.375000", "110003.378000", "110003.381000", "110003.383000", "110003.385000", "110003.388000", "110003.390000", "110003.393000", "110003.395000", "110003.398000", "110003.400000", "110003.403000", "110003.405000", "110003.408000", "110023.360000", "110023.363000", "110023.366000", "110023.368000", "110023.371000", "110023.373000", "110023.376000", "110023.378000", "110023.381000", "110023.383000", "110023.386000", "110023.388000", "110023.391000", "110023.393000", "110023.396000", "110023.398000", "110023.401000", "110023.403000", "110023.405000", "110023.408000", "110043.361000", "110043.363000", "110043.366000", "110043.368000", "110043.371000", "110043.373000", "110043.376000", "110043.378000", "110043.381000", "110043.383000", "110043.386000", "110043.389000", "110043.391000", "110043.394000", "110043.396000", "110043.399000", "110043.401000", "110043.404000", "110043.406000", "110043.409000", "110103.360000", "110103.362000", "110103.365000", "110103.367000", "110103.370000", "110103.372000", "110103.375000", "110103.377000", "110103.380000", "110103.382000", "110103.385000", "110103.387000", "110103.390000", "110103.392000", "110103.400000", "110103.403000", "110103.405000", "110103.408000", "110103.410000", "110103.413000", "110123.361000", "110123.363000", "110123.366000", "110123.368000", "110123.371000", "110123.373000", "110123.376000", "110123.378000", "110123.381000", "110123.383000", "110123.386000", "110123.388000", "110123.391000", "110123.393000", "110123.396000", "110123.398000", "110123.401000", "110123.403000", "110123.406000", "110123.408000", "110143.360000", "110143.363000", "110143.366000", "110143.368000", "110143.371000", "110143.373000", "110143.376000", "110143.378000", "110143.381000", "110143.383000", "110143.386000", "110143.388000", "110143.391000", "110143.393000", "110143.395000", "110143.398000", "110143.400000", "110143.403000", "110143.405000", "110143.408000", "110203.360000", "110203.363000", "110203.366000", "110203.368000", "110203.371000", "110203.373000", "110203.375000", "110203.378000", "110203.381000", "110203.383000", "110203.386000", "110203.388000", "110203.391000", "110203.393000", "110203.396000", "110203.398000", "110203.401000", "110203.403000", "110203.405000", "110203.408000", "110223.360000", "110223.363000", "110223.366000", "110223.368000", "110223.371000", "110223.373000", "110223.376000", "110223.378000", "110223.381000", "110223.383000", "110223.386000", "110223.388000", "110223.391000", "110223.393000", "110223.395000", "110223.398000", "110223.401000", "110223.403000", "110223.405000", "110223.408000", "110243.360000", "110243.363000", "110243.366000", "110243.368000", "110243.371000", "110243.373000", "110243.388000", "110243.390000", "110243.393000", "110243.396000", "110243.398000", "110243.401000", "110243.403000", "110243.405000", "110243.408000", "110243.411000", "110243.413000", "110243.415000", "110243.418000", "110243.420000", "110303.360000", "110303.363000", "110303.366000", "110303.369000", "110303.371000", "110303.374000", "110303.376000", "110303.379000", "110303.381000", "110303.384000", "110303.386000", "110303.389000", "110303.391000", "110303.394000", "110303.396000", "110303.399000", "110303.401000", "110303.404000", "110303.406000", "110303.409000", "110323.360000", "110323.362000", "110323.365000", "110323.367000", "110323.370000", "110323.372000", "110323.375000", "110323.378000", "110323.380000", "110323.383000", "110323.385000", "110323.388000", "110323.390000", "110323.393000", "110323.395000", "110323.398000", "110323.400000", "110323.403000", "110323.405000", "110323.408000", "110343.360000", "110343.363000", "110343.365000", "110343.368000", "110343.371000", "110343.373000", "110343.375000", "110343.378000", "110343.381000", "110343.383000", "110343.385000", "110343.388000", "110343.391000", "110343.393000", "110343.395000", "110343.398000", "110343.401000", "110343.403000", "110343.405000", "110343.408000", "110403.360000", "110403.363000", "110403.365000", "110403.368000", "110403.371000", "110403.373000", "110403.376000", "110403.378000", "110403.381000", "110403.383000", "110403.386000", "110403.388000", "110403.391000", "110403.393000", "110403.395000", "110403.398000", "110403.400000", "110403.403000", "110403.405000", "110403.408000", "110423.360000", "110423.364000", "110423.366000", "110423.369000", "110423.372000", "110423.374000", "110423.376000", "110423.379000", "110423.381000", "110423.384000", "110423.386000", "110423.389000", "110423.391000", "110423.394000", "110423.396000", "110423.399000", "110423.401000", "110423.404000", "110423.406000", "110423.409000", "110432.324000", "110432.327000", "110432.329000", "110432.332000", "110432.334000", "110432.337000", "110432.339000", "110432.342000", "110432.344000"],
