{
  "AcquisitionMatrixPE": 106,
  "AcquisitionNumber": 1,
  "AcquisitionTime": "11:32:36.152500",
  "BandwidthPerPixelPhaseEncode": 16.846,
  "BaseResolution": 106,
  "BodyPartExamined": "BRAIN",
  "CoilCombinationMethod": "Sum of Squares",
  "ConsistencyInfo": "N4_VE11C_LATEST_20160120",
  "ConversionSoftware": "dcm2niix",
  "ConversionSoftwareVersion": "v1.0.20220720",
  "DerivedVendorReportedEchoSpacing": 0.000560012,
  "DeviceSerialNumber": "166108",
  "DwellTime": 1.8e-06,
  "EchoTime": 0.0352,
  "EchoTrainLength": 106,
  "EffectiveEchoSpacing": 0.000560012,
  "FlipAngle": 60,
  "HeudiconvVersion": "1.3.0",
  "ImageComments": "Unaliased MB4/PE3/LB",
  "ImageOrientationPatientDICOM": [1, 0, 0, 0, 0.979925, -0.199368],
  "ImageOrientationText": "Tra>Cor(-11.5)",
  "ImageType": [
    "ORIGINAL",
    "PRIMARY",
    "M",
    "MB",
    "ND",
    "MOSAIC"
],
  "ImagingFrequency": 123.244,
  "InPlanePhaseEncodingDirectionDICOM": "COL",
  "InstitutionAddress": "Bedford Way 26,London,London,GB,WC1H 0AP",
  "InstitutionName": "University College",
  "InstitutionalDepartmentName": "Department",
  "MRAcquisitionType": "2D",
  "MagneticFieldStrength": 3,
  "Manufacturer": "Siemens",
  "ManufacturersModelName": "Prisma",
  "MatrixCoilMode": "SENSE",
  "Modality": "MR",
  "MultibandAccelerationFactor": 4,
  "NonlinearGradientCorrection": false,
  "PartialFourier": 1,
  "PatientPosition": "HFS",
  "PercentPhaseFOV": 100,
  "PercentSampling": 100,
  "PhaseEncodingDirection": "j-",
  "PhaseEncodingSteps": 106,
  "PhaseResolution": 1,
  "PixelBandwidth": 2620,
  "ProcedureStepDescription": "Egor^MovieProject2",
  "ProtocolName": "func-bold_task-pRF_run-03",
  "PulseSequenceDetails": "%CustomerSeq%\\cmrr_mbep2d_bold",
  "ReceiveCoilActiveElements": "HEA;HEP",
  "ReceiveCoilName": "Head_32",
  "ReconMatrixPE": 106,
  "RepetitionTime": 1,
  "SAR": 0.073359,
  "ScanOptions": "FS\\EXT",
  "ScanningSequence": "EP",
  "SequenceName": "epfid2d1_106",
  "SequenceVariant": "SK\\SS",
  "SeriesDescription": "func-bold_task-pRF_run-03",
  "SeriesNumber": 14,
  "ShimSetting": [-1571, 660, 7456, 376, -143, 342, 116, 24],
  "SliceThickness": 2,
  "SliceTiming": [0, 0.4075, 0.815, 0.2425, 0.6525, 0.08, 0.4875, 0.8975, 0.325, 0.7325, 0.1625, 0.57, 0, 0.4075, 0.815, 0.2425, 0.6525, 0.08, 0.4875, 0.8975, 0.325, 0.7325, 0.1625, 0.57, 0, 0.4075, 0.815, 0.2425, 0.6525, 0.08, 0.4875, 0.8975, 0.325, 0.7325, 0.1625, 0.57, 0, 0.4075, 0.815, 0.2425, 0.6525, 0.08, 0.4875, 0.8975, 0.325, 0.7325, 0.1625, 0.57],
  "SoftwareVersions": "syngo MR E11",
  "SpacingBetweenSlices": 2,
  "StationName": "AWP166108",
  "TaskName": "retinotopy",
  "TotalReadoutTime": 0.0588013,
  "TxRefAmp": 217.326,
  "WipMemBlock": "4b2ff227-e9a8-4a5b-9184-13581387aee6||Sequence: R016 ve11c/master r/e634e98; Dec 19 2017 11:00:25 by eja",
  "dcmmeta_affine": [
    [-2.0, 0.0, 0.0, 106.0],
    [0.0, 1.9598493576049805, -0.3987358808517456, -88.84066772460938],
    [0.0, 0.3987358808517456, 1.95984947681427, -27.311208724975586],
    [0.0, 0.0, 0.0, 1.0]
],
  "dcmmeta_reorient_transform": [
    [0.0, -1.0, 0.0, 105.0],
    [1.0, 0.0, 0.0, 0.0],
    [0.0, 0.0, 1.0, 0.0],
    [0.0, 0.0, 0.0, 1.0]
],
  "dcmmeta_shape": [106, 106, 48, 356],
  "dcmmeta_slice_dim": 2,
  "dcmmeta_version": 0.6,
  "global": {
    "const": {
      "AcquisitionMatrix": [106, 0, 0, 106],
      "AngioFlag": "N",
      "BitsAllocated": 16,
      "BitsStored": 16,
      "BodyPartExamined": "BRAIN",
      "CardiacNumberOfImages": 1,
      "Columns": 742,
      "EchoNumbers": 1,
      "EchoTime": 35.2,
      "EchoTrainLength": 106,
      "FlipAngle": 60.0,
      "HighBit": 15,
      "ImageOrientationPatient": [1.0, 0.0, 0.0, 0.0, 0.97992470268924, -0.1993679439113],
      "ImagePositionPatient": [-742.0, -740.17562731259, 141.35407146147],
      "ImageType": [
        "ORIGINAL",
        "PRIMARY",
        "M",
        "MB",
        "ND",
        "MOSAIC"
],
      "ImagedNucleus": "1H",
      "ImagingFrequency": 123.24368,
      "InPlanePhaseEncodingDirection": "COL",
      "MRAcquisitionType": "2D",
      "MagneticFieldStrength": 3.0,
      "Manufacturer": "SIEMENS",
      "ManufacturerModelName": "Prisma",
      "Modality": "MR",
      "NominalInterval": 0,
      "NumberOfAverages": 1.0,
      "NumberOfPhaseEncodingSteps": 106,
      "PercentPhaseFieldOfView": 100.0,
      "PercentSampling": 100.0,
      "PerformedProcedureStepStartTime": "103544.537000",
      "PhotometricInterpretation": "MONOCHROME2",
      "PixelBandwidth": 2620.0,
      "PixelRepresentation": 0,
      "PixelSpacing": [2.0, 2.0],
      "ProtocolName": "func-bold_task-pRF_run-03",
      "RepetitionTime": 1000.0,
      "Rows": 742,
      "SAR": 0.07335904987614,
      "SamplesPerPixel": 1,
      "ScanOptions": [
        "FS",
        "EXT"
],
      "ScanningSequence": "EP",
      "SequenceName": "epfid2d1_106",
      "SequenceVariant": [
        "SK",
        "SS"
],
      "SeriesDescription": "func-bold_task-pRF_run-03",
      "SeriesNumber": 14,
      "SeriesTime": "113314.056000",
      "SliceLocation": -9.0509464997438,
      "SliceThickness": 2.0,
      "SmallestImagePixelValue": 0,
      "SoftwareVersions": "syngo MR E11",
      "SpacingBetweenSlices": 2.0000000188601,
      "SpecificCharacterSet": "ISO_IR 100",
      "StudyID": "1",
      "StudyTime": "103544.479000",
      "TransmitCoilName": "Body",
      "VariableFlipAngleFlag": "N",
      "WindowCenterWidthExplanation": "Algo1",
      "dBdt": 0.0},
    "slices": {}
  },
  "time": {
    "samples": {
      "AcquisitionNumber": [1, 2, 3, 4, 5, 6, 7, 8, 9, 10, 11, 12, 13, 14, 15, 16, 17, 18, 19, 20, 21, 22, 23, 24, 25, 26, 27, 28, 29, 30, 31, 32, 33, 34, 35, 36, 37, 38, 39, 40, 41, 42, 43, 44, 45, 46, 47, 48, 49, 50, 51, 52, 53, 54, 55, 56, 57, 58, 59, 60, 61, 62, 63, 64, 65, 66, 67, 68, 69, 70, 71, 72, 73, 74, 75, 76, 77, 78, 79, 80, 81, 82, 83, 84, 85, 86, 87, 88, 89, 90, 91, 92, 93, 94, 95, 96, 97, 98, 99, 100, 101, 102, 103, 104, 105, 106, 107, 108, 109, 110, 111, 112, 113, 114, 115, 116, 117, 118, 119, 120, 121, 122, 123, 124, 125, 126, 127, 128, 129, 130, 131, 132, 133, 134, 135, 136, 137, 138, 139, 140, 141, 142, 143, 144, 145, 146, 147, 148, 149, 150, 151, 152, 153, 154, 155, 156, 157, 158, 159, 160, 161, 162, 163, 164, 165, 166, 167, 168, 169, 170, 171, 172, 173, 174, 175, 176, 177, 178, 179, 180, 181, 182, 183, 184, 185, 186, 187, 188, 189, 190, 191, 192, 193, 194, 195, 196, 197, 198, 199, 200, 201, 202, 203, 204, 205, 206, 207, 208, 209, 210, 211, 212, 213, 214, 215, 216, 217, 218, 219, 220, 221, 222, 223, 224, 225, 226, 227, 228, 229, 230, 231, 232, 233, 234, 235, 236, 237, 238, 239, 240, 241, 242, 243, 244, 245, 246, 247, 248, 249, 250, 251, 252, 253, 254, 255, 256, 257, 258, 259, 260, 261, 262, 263, 264, 265, 266, 267, 268, 269, 270, 271, 272, 273, 274, 275, 276, 277, 278, 279, 280, 281, 282, 283, 284, 285, 286, 287, 288, 289, 290, 291, 292, 293, 294, 295, 296, 297, 298, 299, 300, 301, 302, 303, 304, 305, 306, 307, 308, 309, 310, 311, 312, 313, 314, 315, 316, 317, 318, 319, 320, 321, 322, 323, 324, 325, 326, 327, 328, 329, 330, 331, 332, 333, 334, 335, 336, 337, 338, 339, 340, 341, 342, 343, 344, 345, 346, 347, 348, 349, 350, 351, 352, 353, 354, 355, 356],
      "AcquisitionTime": ["113236.152500", "113237.152500", "113238.152500", "113239.152500", "113240.152500", "113241.152500", "113242.152500", "113243.152500", "113244.152500", "113245.152500", "113246.152500", "113247.152500", "113248.152500", "113249.152500", "113250.152500", "113251.152500", "113252.152500", "113253.152500", "113254.152500", "113255.152500", "113256.152500", "113257.152500", "113258.152500", "113259.152500", "113300.152500", "113301.152500", "113302.152500", "113303.152500", "113304.152500", "113305.152500", "113306.152500", "113307.152500", "113308.152500", "113309.152500", "113310.152500", "113311.152500", "113312.152500", "113313.152500", "113314.152500", "113315.152500", "113316.152500", "113317.152500", "113318.152500", "113319.152500", "113320.152500", "113321.152500", "113322.152500", "113323.152500", "113324.152500", "113325.152500", "113326.152500", "113327.152500", "113328.152500", "113329.152500", "113330.152500", "113331.152500", "113332.152500", "113333.152500", "113334.152500", "113335.152500", "113336.152500", "113337.152500", "113338.152500", "113339.152500", "113340.152500", "113341.152500", "113342.152500", "113343.152500", "113344.152500", "113345.152500", "113346.152500", "113347.152500", "113348.152500", "113349.152500", "113350.152500", "113351.152500", "113352.152500", "113353.152500", "113354.152500", "113355.152500", "113356.152500", "113357.152500", "113358.152500", "113359.152500", "113400.152500", "113401.152500", "113402.152500", "113403.152500", "113404.152500", "113405.152500", "113406.152500", "113407.152500", "113408.152500", "113409.152500", "113410.152500", "113411.152500", "113412.152500", "113413.152500", "113414.152500", "113415.152500", "113416.152500", "113417.152500", "113418.152500", "113419.152500", "113420.152500", "113421.152500", "113422.152500", "113423.152500", "113424.152500", "113425.152500", "113426.152500", "113427.152500", "113428.152500", "113429.152500", "113430.152500", "113431.152500", "113432.152500", "113433.152500", "113434.152500", "113435.152500", "113436.152500", "113437.152500", "113438.152500", "113439.152500", "113440.152500", "113441.152500", "113442.152500", "113443.152500", "113444.152500", "113445.152500", "113446.152500", "113447.152500", "113448.152500", "113449.152500", "113450.152500", "113451.152500", "113452.152500", "113453.152500", "113454.152500", "113455.152500", "113456.152500", "113457.152500", "113458.152500", "113459.152500", "113500.152500", "113501.152500", "113502.152500", "113503.152500", "113504.152500", "113505.152500", "113506.152500", "113507.152500", "113508.152500", "113509.152500", "113510.152500", "113511.152500", "113512.152500", "113513.152500", "113514.152500", "113515.152500", "113516.152500", "113517.152500", "113518.152500", "113519.152500", "113520.152500", "113521.152500", "113522.152500", "113523.152500", "113524.152500", "113525.152500", "113526.152500", "113527.152500", "113528.152500", "113529.152500", "113530.152500", "113531.152500", "113532.152500", "113533.152500", "113534.152500", "113535.152500", "113536.152500", "113537.152500", "113538.152500", "113539.152500", "113540.152500", "113541.152500", "113542.152500", "113543.152500", "113544.152500", "113545.152500", "113546.152500", "113547.152500", "113548.152500", "113549.152500", "113550.152500", "113551.152500", "113552.152500", "113553.152500", "113554.152500", "113555.152500", "113556.152500", "113557.152500", "113558.152500", "113559.152500", "113600.152500", "113601.152500", "113602.152500", "113603.152500", "113604.152500", "113605.152500", "113606.152500", "113607.152500", "113608.152500", "113609.152500", "113610.152500", "113611.152500", "113612.152500", "113613.152500", "113614.152500", "113615.152500", "113616.152500", "113617.152500", "113618.152500", "113619.152500", "113620.152500", "113621.152500", "113622.152500", "113623.152500", "113624.152500", "113625.152500", "113626.152500", "113627.152500", "113628.152500", "113629.152500", "113630.152500", "113631.152500", "113632.152500", "113633.152500", "113634.152500", "113635.152500", "113636.152500", "113637.152500", "113638.152500", "113639.152500", "113640.152500", "113641.152500", "113642.152500", "113643.152500", "113644.152500", "113645.152500", "113646.152500", "113647.152500", "113648.152500", "113649.152500", "113650.152500", "113651.152500", "113652.152500", "113653.152500", "113654.152500", "113655.152500", "113656.152500", "113657.152500", "113658.152500", "113659.152500", "113700.152500", "113701.152500", "113702.152500", "113703.152500", "113704.152500", "113705.152500", "113706.152500", "113707.152500", "113708.152500", "113709.152500", "113710.152500", "113711.152500", "113712.152500", "113713.152500", "113714.152500", "113715.152500", "113716.152500", "113717.152500", "113718.152500", "113719.152500", "113720.152500", "113721.152500", "113722.152500", "113723.152500", "113724.152500", "113725.152500", "113726.152500", "113727.152500", "113728.152500", "113729.152500", "113730.152500", "113731.152500", "113732.152500", "113733.152500", "113734.152500", "113735.152500", "113736.152500", "113737.152500", "113738.152500", "113739.152500", "113740.152500", "113741.152500", "113742.152500", "113743.152500", "113744.152500", "113745.152500", "113746.152500", "113747.152500", "113748.152500", "113749.152500", "113750.152500", "113751.152500", "113752.152500", "113753.152500", "113754.152500", "113755.152500", "113756.152500", "113757.152500", "113758.152500", "113759.152500", "113800.152500", "113801.152500", "113802.152500", "113803.152500", "113804.152500", "113805.152500", "113806.152500", "113807.152500", "113808.152500", "113809.152500", "113810.152500", "113811.152500", "113812.152500", "113813.152500", "113814.152500", "113815.152500", "113816.152500", "113817.152500", "113818.152500", "113819.152500", "113820.152500", "113821.152500", "113822.152500", "113823.152500", "113824.152500", "113825.152500", "113826.152500", "113827.152500", "113828.152500", "113829.152500", "113830.152500", "113831.152500"],
      "ContentTime": ["113314.058000", "113314.061000", "113314.064000", "113314.066000", "113314.069000", "113314.071000", "113314.074000", "113314.076000", "113314.079000", "113314.081000", "113314.084000", "113314.086000", "113314.089000", "113314.097000", "113314.099000", "113314.102000", "113314.104000", "113314.107000", "113314.109000", "113314.112000", "113314.114000", "113314.122000", "113314.125000", "113314.127000", "113314.130000", "113314.133000", "113314.135000", "113314.138000", "113314.140000", "113314.143000", "113314.145000", "113314.148000", "113314.150000", "113314.153000", "113314.155000", "113314.158000", "113314.160000", "113334.026000", "113334.029000", "113334.032000", "113334.035000", "113334.037000", "113334.040000", "113334.042000", "113334.045000", "113334.047000", "113334.050000", "113334.052000", "113334.055000", "113334.057000", "113334.060000", "113334.062000", "113334.065000", "113334.067000", "113334.070000", "113334.072000", "113334.075000", "113354.027000", "113354.029000", "113354.032000", "113354.035000", "113354.037000", "113354.040000", "113354.042000", "113354.045000", "113354.047000", "113354.050000", "113354.052000", "113354.055000", "113354.057000", "113354.060000", "113354.062000", "113354.065000", "113354.067000", "113354.069000", "113354.072000", "113354.090000", "113414.026000", "113414.029000", "113414.032000", "113414.042000", "113414.044000", "113414.047000", "113414.049000", "113414.052000", "113414.054000", "113414.057000", "113414.059000", "113414.062000", "113414.064000", "113414.067000", "113414.069000", "113414.072000", "113414.074000", "113414.077000", "113414.079000", "113414.082000", "113434.025000", "113434.028000", "113434.031000", "113434.033000", "113434.036000", "113434.038000", "113434.041000", "113434.043000", "113434.046000", "113434.048000", "113434.051000", "113434.053000", "113434.056000", "113434.058000", "113434.061000", "113434.063000", "113434.066000", "113434.068000", "113434.071000", "113434.073000", "113454.026000", "113454.029000", "113454.032000", "113454.034000", "113454.037000", "113454.039000", "113454.042000", "113454.044000", "113454.047000", "113454.049000", "113454.052000", "113454.054000", "113454.057000", "113454.059000", "113454.062000", "113454.065000", "113454.067000", "113454.069000", "113454.072000", "113454.087000", "113514.026000", "113514.029000", "113514.032000", "113514.034000", "113514.037000", "113514.039000", "113514.042000", "113514.044000", "113514.047000", "113514.049000", "113514.052000", "113514.054000", "113514.057000", "113514.059000", "113514.062000", "113514.064000", "113514.067000", "113514.069000", "113514.072000", "113514.074000", "113534.026000", "113534.029000", "113534.032000", "113534.034000", "113534.037000", "113534.039000", "113534.042000", "113534.044000", "113534.047000", "113534.049000", "113534.052000", "113534.054000", "113534.057000", "113534.059000", "113534.062000", "113534.064000", "113534.067000", "113534.069000", "113534.072000", "113534.074000", "113554.026000", "113554.029000", "113554.032000", "113554.034000", "113554.037000", "113554.039000", "113554.042000", "113554.044000", "113554.047000", "113554.049000", "113554.052000", "113554.055000", "113554.057000", "113554.060000", "113554.062000", "113554.065000", "113554.067000", "113554.070000", "113554.072000", "113554.075000", "113614.027000", "113614.029000", "113614.032000", "113614.035000", "113614.037000", "113614.040000", "113614.042000", "113614.045000", "113614.047000", "113614.050000", "113614.052000", "113614.055000", "113614.057000", "113614.060000", "113614.062000", "113614.065000", "113614.067000", "113614.070000", "113614.072000", "113614.075000", "113634.026000", "113634.029000", "113634.032000", "113634.034000", "113634.037000", "113634.039000", "113634.042000", "113634.044000", "113634.047000", "113634.049000", "113634.052000", "113634.054000", "113634.057000", "113634.059000", "113634.062000", "113634.065000", "113634.067000", "113634.070000", "113634.072000", "113634.075000", "113654.025000", "113654.028000", "113654.030000", "113654.033000", "113654.036000", "113654.038000", "113654.041000", "113654.043000", "113654.046000", "113654.048000", "113654.051000", "113654.053000", "113654.056000", "113654.058000", "113654.061000", "113654.064000", "113654.066000", "113654.068000", "113654.071000", "113654.073000", "113714.027000", "113714.029000", "113714.032000", "113714.034000", "113714.037000", "113714.039000", "113714.042000", "113714.045000", "113714.047000", "113714.050000", "113714.052000", "113714.055000", "113714.057000", "113714.060000", "113714.062000", "113714.065000", "113714.067000", "113714.070000", "113714.072000", "113714.075000", "113734.027000", "113734.029000", "113734.032000", "113734.035000", "113734.037000", "113734.039000", "113734.042000", "113734.044000", "113734.047000", "113734.049000", "113734.052000", "113734.063000", "113734.065000", "113734.068000", "113734.070000", "113734.073000", "113734.076000", "113734.078000", "113734.080000", "113734.083000", "113754.027000", "113754.029000", "113754.032000", "113754.034000", "113754.037000", "113754.039000", "113754.042000", "113754.044000", "113754.047000", "113754.049000", "113754.052000", "113754.054000", "113754.057000", "113754.059000", "113754.062000", "113754.064000", "113754.067000", "113754.069000", "113754.072000", "113754.074000", "113814.026000", "113814.029000", "113814.031000", "113814.034000", "113814.037000", "113814.039000", "113814.042000", "113814.044000", "113814.047000", "113814.049000", "113814.052000", "113814.054000", "113814.057000", "113814.059000", "113814.062000", "113814.064000", "113814.067000", "113814.069000", "113814.072000", "113814.074000", "113832.832000", "113832.835000", "113832.838000", "113832.841000", "113832.844000", "113832.847000", "113832.849000", "113832.852000", "113832.854000", "113832.857000", "113832.859000", "113832.862000", "113832.864000", "113832.867000", "113832.870000", "113832.873000", "113832.875000", "113832.878000", "113832.881000"],
      "InstanceCreationTime": ["113314.058000", "113314.061000", "113314.064000", "113314.066000", "113314.069000", "113314.071000", "113314.074000", "113314.076000", "113314.079000", "113314.081000", "113314.084000", "113314.086000", "113314.089000", "113314.097000", "113314.099000", "113314.102000", "113314.104000", "113314.107000", "113314.109000", "113314.112000", "113314.114000", "113314.122000", "113314.125000", "113314.127000", "113314.130000", "113314.133000", "113314.135000", "113314.138000", "113314.140000", "113314.143000", "113314.145000", "113314.148000", "113314.150000", "113314.153000", "113314.155000", "113314.158000", "113314.160000", "113334.026000", "113334.029000", "113334.032000", "113334.035000", "113334.037000", "113334.040000", "113334.042000", "113334.045000", "113334.047000", "113334.050000", "113334.052000", "113334.055000", "113334.057000", "113334.060000", "113334.062000", "113334.065000", "113334.067000", "113334.070000", "113334.072000", "113334.075000", "113354.027000", "113354.029000", "113354.032000", "113354.035000", "113354.037000", "113354.040000", "113354.042000", "113354.045000", "113354.047000", "113354.050000", "113354.052000", "113354.055000", "113354.057000", "113354.060000", "113354.062000", "113354.065000", "113354.067000", "113354.069000", "113354.072000", "113354.090000", "113414.026000", "113414.029000", "113414.032000", "113414.042000", "113414.044000", "113414.047000", "113414.049000", "113414.052000", "113414.054000", "113414.057000", "113414.059000", "113414.062000", "113414.064000", "113414.067000", "113414.069000", "113414.072000", "113414.074000", "113414.077000", "113414.079000", "113414.082000", "113434.025000", "113434.028000", "113434.031000", "113434.033000", "113434.036000", "113434.038000", "113434.041000", "113434.043000", "113434.046000", "113434.048000", "113434.051000", "113434.053000", "113434.056000", "113434.058000", "113434.061000", "113434.063000", "113434.066000", "113434.068000", "113434.071000", "113434.073000", "113454.026000", "113454.029000", "113454.032000", "113454.034000", "113454.037000", "113454.039000", "113454.042000", "113454.044000", "113454.047000", "113454.049000", "113454.052000", "113454.054000", "113454.057000", "113454.059000", "113454.062000", "113454.065000", "113454.067000", "113454.069000", "113454.072000", "113454.087000", "113514.026000", "113514.029000", "113514.032000", "113514.034000", "113514.037000", "113514.039000", "113514.042000", "113514.044000", "113514.047000", "113514.049000", "113514.052000", "113514.054000", "113514.057000", "113514.059000", "113514.062000", "113514.064000", "113514.067000", "113514.069000", "113514.072000", "113514.074000", "113534.026000", "113534.029000", "113534.032000", "113534.034000", "113534.037000", "113534.039000", "113534.042000", "113534.044000", "113534.047000", "113534.049000", "113534.052000", "113534.054000", "113534.057000", "113534.059000", "113534.062000", "113534.064000", "113534.067000", "113534.069000", "113534.072000", "113534.074000", "113554.026000", "113554.029000", "113554.032000", "113554.034000", "113554.037000", "113554.039000", "113554.042000", "113554.044000", "113554.047000", "113554.049000", "113554.052000", "113554.055000", "113554.057000", "113554.060000", "113554.062000", "113554.065000", "113554.067000", "113554.070000", "113554.072000", "113554.075000", "113614.027000", "113614.029000", "113614.032000", "113614.035000", "113614.037000", "113614.040000", "113614.042000", "113614.045000", "113614.047000", "113614.050000", "113614.052000", "113614.055000", "113614.057000", "113614.060000", "113614.062000", "113614.065000", "113614.067000", "113614.070000", "113614.072000", "113614.075000", "113634.026000", "113634.029000", "113634.032000", "113634.034000", "113634.037000", "113634.039000", "113634.042000", "113634.044000", "113634.047000", "113634.049000", "113634.052000", "113634.054000", "113634.057000", "113634.059000", "113634.062000", "113634.065000", "113634.067000", "113634.070000", "113634.072000", "113634.075000", "113654.025000", "113654.028000", "113654.030000", "113654.033000", "113654.036000", "113654.038000", "113654.041000", "113654.043000", "113654.046000", "113654.048000", "113654.051000", "113654.053000", "113654.056000", "113654.058000", "113654.061000", "113654.064000", "113654.066000", "113654.068000", "113654.071000", "113654.073000", "113714.027000", "113714.029000", "113714.032000", "113714.034000", "113714.037000", "113714.039000", "113714.042000", "113714.045000", "113714.047000", "113714.050000", "113714.052000", "113714.055000", "113714.057000", "113714.060000", "113714.062000", "113714.065000", "113714.067000", "113714.070000", "113714.072000", "113714.075000", "113734.027000", "113734.029000", "113734.032000", "113734.035000", "113734.037000", "113734.039000", "113734.042000", "113734.044000", "113734.047000", "113734.049000", "113734.052000", "113734.063000", "113734.065000", "113734.068000", "113734.070000", "113734.073000", "113734.076000", "113734.078000", "113734.080000", "113734.083000", "113754.027000", "113754.029000", "113754.032000", "113754.034000", "113754.037000", "113754.039000", "113754.042000", "113754.044000", "113754.047000", "113754.049000", "113754.052000", "113754.054000", "113754.057000", "113754.059000", "113754.062000", "113754.064000", "113754.067000", "113754.069000", "113754.072000", "113754.074000", "113814.026000", "113814.029000", "113814.031000", "113814.034000", "113814.037000", "113814.039000", "113814.042000", "113814.044000", "113814.047000", "113814.049000", "113814.052000", "113814.054000", "113814.057000", "113814.059000", "113814.062000", "113814.064000", "113814.067000", "113814.069000", "113814.072000", "113814.074000", "113832.832000", "113832.835000", "113832.838000", "113832.841000", "113832.844000", "113832.847000", "113832.849000", "113832.852000", "113832.854000", "113832.857000", "113832.859000", "113832.862000", "113832.864000", "113832.867000", "113832.870000", "113832.873000", "113832.875000", "113832.878000", "113832.881000"],
      "InstanceNumber": [1, 2, 3, 4, 5, 6, 7, 8, 9, 10, 11, 12, 13, 14, 15, 16, 17, 18, 19, 20, 21, 22, 23, 24, 25, 26, 27, 28, 29, 30, 31, 32, 33, 34, 35, 36, 37, 38, 39, 40, 41, 42, 43, 44, 45, 46, 47, 48, 49, 50, 51, 52, 53, 54, 55, 56, 57, 58, 59, 60, 61, 62, 63, 64, 65, 66, 67, 68, 69, 70, 71, 72, 73, 74, 75, 76, 77, 78, 79, 80, 81, 82, 83, 84, 85, 86, 87, 88, 89, 90, 91, 92, 93, 94, 95, 96, 97, 98, 99, 100, 101, 102, 103, 104, 105, 106, 107, 108, 109, 110, 111, 112, 113, 114, 115, 116, 117, 118, 119, 120, 121, 122, 123, 124, 125, 126, 127, 128, 129, 130, 131, 132, 133, 134, 135, 136, 137, 138, 139, 140, 141, 142, 143, 144, 145, 146, 147, 148, 149, 150, 151, 152, 153, 154, 155, 156, 157, 158, 159, 160, 161, 162, 163, 164, 165, 166, 167, 168, 169, 170, 171, 172, 173, 174, 175, 176, 177, 178, 179, 180, 181, 182, 183, 184, 185, 186, 187, 188, 189, 190, 191, 192, 193, 194, 195, 196, 197, 198, 199, 200, 201, 202, 203, 204, 205, 206, 207, 208, 209, 210, 211, 212, 213, 214, 215, 216, 217, 218, 219, 220, 221, 222, 223, 224, 225, 226, 227, 228, 229, 230, 231, 232, 233, 234, 235, 236, 237, 238, 239, 240, 241, 242, 243, 244, 245, 246, 247, 248, 249, 250, 251, 252, 253, 254, 255, 256, 257, 258, 259, 260, 261, 262, 263, 264, 265, 266, 267, 268, 269, 270, 271, 272, 273, 274, 275, 276, 277, 278, 279, 280, 281, 282, 283, 284, 285, 286, 287, 288, 289, 290, 291, 292, 293, 294, 295, 296, 297, 298, 299, 300, 301, 302, 303, 304, 305, 306, 307, 308, 309, 310, 311, 312, 313, 314, 315, 316, 317, 318, 319, 320, 321, 322, 323, 324, 325, 326, 327, 328, 329, 330, 331, 332, 333, 334, 335, 336, 337, 338, 339, 340, 341, 342, 343, 344, 345, 346, 347, 348, 349, 350, 351, 352, 353, 354, 355, 356],
      "LargestImagePixelValue": [12510, 12120, 12044, 11941, 11764, 11802, 11737, 11611, 11724, 11687, 11822, 11926, 11922, 11920, 11852, 11831, 11788, 11629, 11888, 11711, 11771, 11712, 11824, 11657, 11544, 11578, 11542, 11565, 11877, 11782, 11864, 11825, 11915, 11801, 11827, 11936, 11689, 11677, 11580, 11630, 11715, 11724, 11729, 11681, 11685, 11626, 11600, 11664, 11574, 11547, 11604, 11709, 11699, 11818, 11877, 11819, 11724, 11663, 11725, 11655, 11688, 11633, 11724, 11717, 11697, 11646, 11774, 11786, 11934, 11838, 11889, 11776, 11622, 11610, 11717, 11666, 11498, 11879, 11698, 11700, 11908, 11657, 11571, 11647, 11649, 11559, 11695, 11683, 11614, 11719, 11729, 11481, 11649, 11636, 11700, 11810, 11782, 11683, 11630, 11473, 11554, 11565, 11611, 11708, 11673, 11770, 11689, 11680, 11780, 11753, 11691, 11713, 11719, 11654, 11704, 11720, 11655, 11616, 11585, 11558, 11620, 11541, 11713, 11612, 11746, 11803, 11560, 11696, 11730, 11723, 11716, 11817, 11729, 11653, 11711, 11745, 11601, 11677, 11773, 11699, 11626, 11669, 11631, 11471, 11758, 11717, 11806, 11752, 11678, 11722, 11711, 11599, 11779, 11696, 11509, 11599, 11679, 11664, 11665, 11619, 11877, 11556, 11722, 11610, 11603, 11702, 11680, 11748, 11816, 11513, 11748, 11792, 11748, 11861, 11890, 11922, 11688, 11856, 11950, 11687, 11757, 11742, 11708, 11734, 11867, 11790, 11849, 11805, 11762, 11689, 11854, 11774, 11795, 11731, 11743, 11698, 11987, 11853, 11885, 11843, 11614, 11648, 11806, 11722, 11739, 11868, 11664, 11720, 11800, 11633, 11745, 11862, 11794, 11847, 11618, 11610, 11572, 11593, 11491, 11699, 11795, 11801, 11658, 11729, 11787, 11771, 11620, 11647, 11732, 11689, 11706, 11697, 11767, 11801, 11843, 11645, 11794, 11702, 11804, 11824, 11938, 11887, 11929, 11989, 11854, 12049, 11681, 11816, 11765, 11864, 11684, 11827, 11731, 11904, 11928, 11938, 11921, 11938, 11906, 11816, 11879, 11641, 11814, 11878, 11737, 11947, 11976, 11733, 11744, 11641, 11847, 11814, 11866, 11752, 11649, 11831, 11736, 11804, 11780, 11921, 11818, 11839, 11875, 11694, 11712, 11917, 11619, 11593, 11860, 11745, 11871, 11903, 11805, 11767, 11929, 11859, 11755, 11925, 11773, 11695, 11847, 11792, 11723, 11725, 11891, 11736, 11837, 11782, 11759, 11707, 11742, 11594, 11735, 11689, 11770, 11679, 11671, 11795, 11733, 11740, 11934, 11920, 11923, 11964, 11806, 11788, 11700, 11762, 11821, 11805, 11715, 11740, 11654, 11747, 11743, 11855, 11804, 11860, 11977, 11903, 12052, 12009, 11832, 11757, 11843, 11881, 11726, 11845, 11834, 11818, 11901, 11866, 11743, 11650, 11762, 11589],
