{
  "AcquisitionMatrixPE": 106,
  "AcquisitionNumber": 1,
  "AcquisitionTime": "12:24:41.545000",
  "BandwidthPerPixelPhaseEncode": 16.846,
  "BaseResolution": 106,
  "BodyPartExamined": "BRAIN",
  "CoilCombinationMethod": "Sum of Squares",
  "ConsistencyInfo": "N4_VE11C_LATEST_20160120",
  "ConversionSoftware": "dcm2niix",
  "ConversionSoftwareVersion": "v1.0.20220720",
  "DerivedVendorReportedEchoSpacing": 0.000560012,
  "DeviceSerialNumber": "166108",
  "DwellTime": 1.8e-06,
  "EchoTime": 0.0352,
  "EchoTrainLength": 106,
  "EffectiveEchoSpacing": 0.000560012,
  "FlipAngle": 60,
  "HeudiconvVersion": "1.3.0",
  "ImageComments": "Unaliased MB4/PE3/LB",
  "ImageOrientationPatientDICOM": [1, 0, 0, 0, 1, 0],
  "ImageOrientationText": "Tra",
  "ImageType": [
    "ORIGINAL",
    "PRIMARY",
    "M",
    "MB",
    "ND",
    "MOSAIC"
],
  "ImagingFrequency": 123.244,
  "InPlanePhaseEncodingDirectionDICOM": "COL",
  "InstitutionAddress": "Bedford Way 26,London,London,GB,WC1H 0AP",
  "InstitutionName": "University College",
  "InstitutionalDepartmentName": "Department",
  "MRAcquisitionType": "2D",
  "MagneticFieldStrength": 3,
  "Manufacturer": "Siemens",
  "ManufacturersModelName": "Prisma",
  "MatrixCoilMode": "SENSE",
  "Modality": "MR",
  "MultibandAccelerationFactor": 4,
  "NonlinearGradientCorrection": false,
  "PartialFourier": 1,
  "PatientPosition": "HFS",
  "PercentPhaseFOV": 100,
  "PercentSampling": 100,
  "PhaseEncodingDirection": "j-",
  "PhaseEncodingSteps": 106,
  "PhaseResolution": 1,
  "PixelBandwidth": 2620,
  "ProcedureStepDescription": "Egor^MovieProject2",
  "ProtocolName": "task-backtothefuture_run-1",
  "PulseSequenceDetails": "%CustomerSeq%\\cmrr_mbep2d_bold",
  "ReceiveCoilActiveElements": "HEA;HEP",
  "ReceiveCoilName": "Head_32",
  "ReconMatrixPE": 106,
  "RepetitionTime": 1.5,
  "SAR": 0.0825244,
  "ScanOptions": "FS\\EXT",
  "ScanningSequence": "EP",
  "SequenceName": "epfid2d1_106",
  "SequenceVariant": "SK\\SS",
  "SeriesDescription": "task-backtothefuture_run-1",
  "SeriesNumber": 3,
  "ShimSetting": [-1610, 671, 7443, 437, -130, 151, 85, 0],
  "SliceThickness": 2,
  "SliceTiming": [0, 1.0675, 0.6575, 0.245, 1.315, 0.905, 0.4925, 0.0825, 1.15, 0.74, 0.3275, 1.3975, 0.985, 0.575, 0.165, 1.2325, 0.8225, 0.41, 0, 1.0675, 0.6575, 0.245, 1.315, 0.905, 0.4925, 0.0825, 1.15, 0.74, 0.3275, 1.3975, 0.985, 0.575, 0.165, 1.2325, 0.8225, 0.41, 0, 1.0675, 0.6575, 0.245, 1.315, 0.905, 0.4925, 0.0825, 1.15, 0.74, 0.3275, 1.3975, 0.985, 0.575, 0.165, 1.2325, 0.8225, 0.41, 0, 1.0675, 0.6575, 0.245, 1.315, 0.905, 0.4925, 0.0825, 1.15, 0.74, 0.3275, 1.3975, 0.985, 0.575, 0.165, 1.2325, 0.8225, 0.41],
  "SoftwareVersions": "syngo MR E11",
  "SpacingBetweenSlices": 2,
  "StationName": "AWP166108",
  "TaskName": "backtothefuture",
  "TotalReadoutTime": 0.0588013,
  "TxRefAmp": 235.3,
  "WipMemBlock": "643ec969-a5c4-4f53-be10-553bb1ca0ba8||Sequence: R016 ve11c/master r/e634e98; Dec 19 2017 11:00:25 by eja",
  "dcmmeta_affine": [
    [-2.0, 0.0, 0.0, 106.0],
    [0.0, 2.0, 0.0, -86.53012084960938],
    [0.0, 0.0, 2.0, -50.51807403564453],
    [0.0, 0.0, 0.0, 1.0]
],
  "dcmmeta_reorient_transform": [
    [0.0, -1.0, 0.0, 105.0],
    [1.0, 0.0, 0.0, 0.0],
    [0.0, 0.0, 1.0, 0.0],
    [0.0, 0.0, 0.0, 1.0]
],
  "dcmmeta_shape": [106, 106, 72, 1360],
  "dcmmeta_slice_dim": 2,
  "dcmmeta_version": 0.6,
  "global": {
    "const": {
      "AcquisitionMatrix": [106, 0, 0, 106],
      "AngioFlag": "N",
      "BitsAllocated": 16,
      "BitsStored": 16,
      "BodyPartExamined": "BRAIN",
      "CardiacNumberOfImages": 1,
      "Columns": 954,
      "EchoNumbers": 1,
      "EchoTime": 35.2,
      "EchoTrainLength": 106,
      "FlipAngle": 60.0,
      "HighBit": 15,
      "ImageOrientationPatient": [1.0, 0.0, 0.0, 0.0, 1.0, 0.0],
      "ImagePositionPatient": [-954.0, -971.46987915039, -50.518074035645],
      "ImageType": [
        "ORIGINAL",
        "PRIMARY",
        "M",
        "MB",
        "ND",
        "MOSAIC"
],
      "ImagedNucleus": "1H",
      "ImagingFrequency": 123.243661,
      "InPlanePhaseEncodingDirection": "COL",
      "MRAcquisitionType": "2D",
      "MagneticFieldStrength": 3.0,
      "Manufacturer": "SIEMENS",
      "ManufacturerModelName": "Prisma",
      "Modality": "MR",
      "NominalInterval": 0,
      "NumberOfAverages": 1.0,
      "NumberOfPhaseEncodingSteps": 106,
      "PercentPhaseFieldOfView": 100.0,
      "PercentSampling": 100.0,
      "PerformedProcedureStepStartTime": "113457.912000",
      "PhotometricInterpretation": "MONOCHROME2",
      "PixelBandwidth": 2620.0,
      "PixelRepresentation": 0,
      "PixelSpacing": [2.0, 2.0],
      "ProtocolName": "task-backtothefuture_run-1",
      "RepetitionTime": 1500.0,
      "Rows": 954,
      "SAR": 0.08252435208287,
      "SamplesPerPixel": 1,
      "ScanOptions": [
        "FS",
        "EXT"
],
      "ScanningSequence": "EP",
      "SequenceName": "epfid2d1_106",
      "SequenceVariant": [
        "SK",
        "SS"
],
      "SeriesDescription": "task-backtothefuture_run-1",
      "SeriesNumber": 3,
      "SeriesTime": "122521.708000",
      "SliceLocation": -50.518074035645,
      "SliceThickness": 2.0,
      "SmallestImagePixelValue": 0,
      "SoftwareVersions": "syngo MR E11",
      "SpacingBetweenSlices": 2.0,
      "SpecificCharacterSet": "ISO_IR 100",
      "StudyID": "1",
      "StudyTime": "113457.857000",
      "TransmitCoilName": "Body",
      "VariableFlipAngleFlag": "N",
      "WindowCenterWidthExplanation": "Algo1",
      "dBdt": 0.0},
    "slices": {}
  },
  "time": {
    "samples": {
      "AcquisitionNumber": [1, 2, 3, 4, 5, 6, 7, 8, 9, 10, 11, 12, 13, 14, 15, 16, 17, 18, 19, 20, 21, 22, 23, 24, 25, 26, 27, 28, 29, 30, 31, 32, 33, 34, 35, 36, 37, 38, 39, 40, 41, 42, 43, 44, 45, 46, 47, 48, 49, 50, 51, 52, 53, 54, 55, 56, 57, 58, 59, 60, 61, 62, 63, 64, 65, 66, 67, 68, 69, 70, 71, 72, 73, 74, 75, 76, 77, 78, 79, 80, 81, 82, 83, 84, 85, 86, 87, 88, 89, 90, 91, 92, 93, 94, 95, 96, 97, 98, 99, 100, 101, 102, 103, 104, 105, 106, 107, 108, 109, 110, 111, 112, 113, 114, 115, 116, 117, 118, 119, 120, 121, 122, 123, 124, 125, 126, 127, 128, 129, 130, 131, 132, 133, 134, 135, 136, 137, 138, 139, 140, 141, 142, 143, 144, 145, 146, 147, 148, 149, 150, 151, 152, 153, 154, 155, 156, 157, 158, 159, 160, 161, 162, 163, 164, 165, 166, 167, 168, 169, 170, 171, 172, 173, 174, 175, 176, 177, 178, 179, 180, 181, 182, 183, 184, 185, 186, 187, 188, 189, 190, 191, 192, 193, 194, 195, 196, 197, 198, 199, 200, 201, 202, 203, 204, 205, 206, 207, 208, 209, 210, 211, 212, 213, 214, 215, 216, 217, 218, 219, 220, 221, 222, 223, 224, 225, 226, 227, 228, 229, 230, 231, 232, 233, 234, 235, 236, 237, 238, 239, 240, 241, 242, 243, 244, 245, 246, 247, 248, 249, 250, 251, 252, 253, 254, 255, 256, 257, 258, 259, 260, 261, 262, 263, 264, 265, 266, 267, 268, 269, 270, 271, 272, 273, 274, 275, 276, 277, 278, 279, 280, 281, 282, 283, 284, 285, 286, 287, 288, 289, 290, 291, 292, 293, 294, 295, 296, 297, 298, 299, 300, 301, 302, 303, 304, 305, 306, 307, 308, 309, 310, 311, 312, 313, 314, 315, 316, 317, 318, 319, 320, 321, 322, 323, 324, 325, 326, 327, 328, 329, 330, 331, 332, 333, 334, 335, 336, 337, 338, 339, 340, 341, 342, 343, 344, 345, 346, 347, 348, 349, 350, 351, 352, 353, 354, 355, 356, 357, 358, 359, 360, 361, 362, 363, 364, 365, 366, 367, 368, 369, 370, 371, 372, 373, 374, 375, 376, 377, 378, 379, 380, 381, 382, 383, 384, 385, 386, 387, 388, 389, 390, 391, 392, 393, 394, 395, 396, 397, 398, 399, 400, 401, 402, 403, 404, 405, 406, 407, 408, 409, 410, 411, 412, 413, 414, 415, 416, 417, 418, 419, 420, 421, 422, 423, 424, 425, 426, 427, 428, 429, 430, 431, 432, 433, 434, 435, 436, 437, 438, 439, 440, 441, 442, 443, 444, 445, 446, 447, 448, 449, 450, 451, 452, 453, 454, 455, 456, 457, 458, 459, 460, 461, 462, 463, 464, 465, 466, 467, 468, 469, 470, 471, 472, 473, 474, 475, 476, 477, 478, 479, 480, 481, 482, 483, 484, 485, 486, 487, 488, 489, 490, 491, 492, 493, 494, 495, 496, 497, 498, 499, 500, 501, 502, 503, 504, 505, 506, 507, 508, 509, 510, 511, 512, 513, 514, 515, 516, 517, 518, 519, 520, 521, 522, 523, 524, 525, 526, 527, 528, 529, 530, 531, 532, 533, 534, 535, 536, 537, 538, 539, 540, 541, 542, 543, 544, 545, 546, 547, 548, 549, 550, 551, 552, 553, 554, 555, 556, 557, 558, 559, 560, 561, 562, 563, 564, 565, 566, 567, 568, 569, 570, 571, 572, 573, 574, 575, 576, 577, 578, 579, 580, 581, 582, 583, 584, 585, 586, 587, 588, 589, 590, 591, 592, 593, 594, 595, 596, 597, 598, 599, 600, 601, 602, 603, 604, 605, 606, 607, 608, 609, 610, 611, 612, 613, 614, 615, 616, 617, 618, 619, 620, 621, 622, 623, 624, 625, 626, 627, 628, 629, 630, 631, 632, 633, 634, 635, 636, 637, 638, 639, 640, 641, 642, 643, 644, 645, 646, 647, 648, 649, 650, 651, 652, 653, 654, 655, 656, 657, 658, 659, 660, 661, 662, 663, 664, 665, 666, 667, 668, 669, 670, 671, 672, 673, 674, 675, 676, 677, 678, 679, 680, 681, 682, 683, 684, 685, 686, 687, 688, 689, 690, 691, 692, 693, 694, 695, 696, 697, 698, 699, 700, 701, 702, 703, 704, 705, 706, 707, 708, 709, 710, 711, 712, 713, 714, 715, 716, 717, 718, 719, 720, 721, 722, 723, 724, 725, 726, 727, 728, 729, 730, 731, 732, 733, 734, 735, 736, 737, 738, 739, 740, 741, 742, 743, 744, 745, 746, 747, 748, 749, 750, 751, 752, 753, 754, 755, 756, 757, 758, 759, 760, 761, 762, 763, 764, 765, 766, 767, 768, 769, 770, 771, 772, 773, 774, 775, 776, 777, 778, 779, 780, 781, 782, 783, 784, 785, 786, 787, 788, 789, 790, 791, 792, 793, 794, 795, 796, 797, 798, 799, 800, 801, 802, 803, 804, 805, 806, 807, 808, 809, 810, 811, 812, 813, 814, 815, 816, 817, 818, 819, 820, 821, 822, 823, 824, 825, 826, 827, 828, 829, 830, 831, 832, 833, 834, 835, 836, 837, 838, 839, 840, 841, 842, 843, 844, 845, 846, 847, 848, 849, 850, 851, 852, 853, 854, 855, 856, 857, 858, 859, 860, 861, 862, 863, 864, 865, 866, 867, 868, 869, 870, 871, 872, 873, 874, 875, 876, 877, 878, 879, 880, 881, 882, 883, 884, 885, 886, 887, 888, 889, 890, 891, 892, 893, 894, 895, 896, 897, 898, 899, 900, 901, 902, 903, 904, 905, 906, 907, 908, 909, 910, 911, 912, 913, 914, 915, 916, 917, 918, 919, 920, 921, 922, 923, 924, 925, 926, 927, 928, 929, 930, 931, 932, 933, 934, 935, 936, 937, 938, 939, 940, 941, 942, 943, 944, 945, 946, 947, 948, 949, 950, 951, 952, 953, 954, 955, 956, 957, 958, 959, 960, 961, 962, 963, 964, 965, 966, 967, 968, 969, 970, 971, 972, 973, 974, 975, 976, 977, 978, 979, 980, 981, 982, 983, 984, 985, 986, 987, 988, 989, 990, 991, 992, 993, 994, 995, 996, 997, 998, 999, 1000, 1001, 1002, 1003, 1004, 1005, 1006, 1007, 1008, 1009, 1010, 1011, 1012, 1013, 1014, 1015, 1016, 1017, 1018, 1019, 1020, 1021, 1022, 1023, 1024, 1025, 1026, 1027, 1028, 1029, 1030, 1031, 1032, 1033, 1034, 1035, 1036, 1037, 1038, 1039, 1040, 1041, 1042, 1043, 1044, 1045, 1046, 1047, 1048, 1049, 1050, 1051, 1052, 1053, 1054, 1055, 1056, 1057, 1058, 1059, 1060, 1061, 1062, 1063, 1064, 1065, 1066, 1067, 1068, 1069, 1070, 1071, 1072, 1073, 1074, 1075, 1076, 1077, 1078, 1079, 1080, 1081, 1082, 1083, 1084, 1085, 1086, 1087, 1088, 1089, 1090, 1091, 1092, 1093, 1094, 1095, 1096, 1097, 1098, 1099, 1100, 1101, 1102, 1103, 1104, 1105, 1106, 1107, 1108, 1109, 1110, 1111, 1112, 1113, 1114, 1115, 1116, 1117, 1118, 1119, 1120, 1121, 1122, 1123, 1124, 1125, 1126, 1127, 1128, 1129, 1130, 1131, 1132, 1133, 1134, 1135, 1136, 1137, 1138, 1139, 1140, 1141, 1142, 1143, 1144, 1145, 1146, 1147, 1148, 1149, 1150, 1151, 1152, 1153, 1154, 1155, 1156, 1157, 1158, 1159, 1160, 1161, 1162, 1163, 1164, 1165, 1166, 1167, 1168, 1169, 1170, 1171, 1172, 1173, 1174, 1175, 1176, 1177, 1178, 1179, 1180, 1181, 1182, 1183, 1184, 1185, 1186, 1187, 1188, 1189, 1190, 1191, 1192, 1193, 1194, 1195, 1196, 1197, 1198, 1199, 1200, 1201, 1202, 1203, 1204, 1205, 1206, 1207, 1208, 1209, 1210, 1211, 1212, 1213, 1214, 1215, 1216, 1217, 1218, 1219, 1220, 1221, 1222, 1223, 1224, 1225, 1226, 1227, 1228, 1229, 1230, 1231, 1232, 1233, 1234, 1235, 1236, 1237, 1238, 1239, 1240, 1241, 1242, 1243, 1244, 1245, 1246, 1247, 1248, 1249, 1250, 1251, 1252, 1253, 1254, 1255, 1256, 1257, 1258, 1259, 1260, 1261, 1262, 1263, 1264, 1265, 1266, 1267, 1268, 1269, 1270, 1271, 1272, 1273, 1274, 1275, 1276, 1277, 1278, 1279, 1280, 1281, 1282, 1283, 1284, 1285, 1286, 1287, 1288, 1289, 1290, 1291, 1292, 1293, 1294, 1295, 1296, 1297, 1298, 1299, 1300, 1301, 1302, 1303, 1304, 1305, 1306, 1307, 1308, 1309, 1310, 1311, 1312, 1313, 1314, 1315, 1316, 1317, 1318, 1319, 1320, 1321, 1322, 1323, 1324, 1325, 1326, 1327, 1328, 1329, 1330, 1331, 1332, 1333, 1334, 1335, 1336, 1337, 1338, 1339, 1340, 1341, 1342, 1343, 1344, 1345, 1346, 1347, 1348, 1349, 1350, 1351, 1352, 1353, 1354, 1355, 1356, 1357, 1358, 1359, 1360],
      "AcquisitionTime": ["122441.545000", "122443.045000", "122444.545000", "122446.045000", "122447.545000", "122449.045000", "122450.545000", "122452.045000", "122453.545000", "122455.045000", "122456.545000", "122458.045000", "122459.545000", "122501.045000", "122502.545000", "122504.045000", "122505.545000", "122507.045000", "122508.545000", "122510.045000", "122511.545000", "122513.045000", "122514.545000", "122516.045000", "122517.545000", "122519.045000", "122520.545000", "122522.045000", "122523.545000", "122525.045000", "122526.545000", "122528.045000", "122529.545000", "122531.045000", "122532.545000", "122534.045000", "122535.545000", "122537.045000", "122538.545000", "122540.045000", "122541.545000", "122543.045000", "122544.545000", "122546.045000", "122547.545000", "122549.045000", "122550.545000", "122552.045000", "122553.545000", "122555.045000", "122556.545000", "122558.045000", "122559.545000", "122601.045000", "122602.545000", "122604.045000", "122605.545000", "122607.045000", "122608.545000", "122610.045000", "122611.545000", "122613.045000", "122614.545000", "122616.045000", "122617.545000", "122619.045000", "122620.545000", "122622.045000", "122623.545000", "122625.045000", "122626.545000", "122628.045000", "122629.545000", "122631.045000", "122632.545000", "122634.045000", "122635.545000", "122637.045000", "122638.545000", "122640.045000", "122641.545000", "122643.045000", "122644.545000", "122646.045000", "122647.545000", "122649.045000", "122650.545000", "122652.045000", "122653.545000", "122655.045000", "122656.545000", "122658.045000", "122659.545000", "122701.045000", "122702.545000", "122704.045000", "122705.545000", "122707.045000", "122708.545000", "122710.045000", "122711.545000", "122713.045000", "122714.545000", "122716.045000", "122717.545000", "122719.045000", "122720.545000", "122722.045000", "122723.545000", "122725.045000", "122726.545000", "122728.045000", "122729.545000", "122731.045000", "122732.545000", "122734.045000", "122735.545000", "122737.045000", "122738.545000", "122740.045000", "122741.545000", "122743.045000", "122744.545000", "122746.045000", "122747.545000", "122749.045000", "122750.545000", "122752.045000", "122753.545000", "122755.045000", "122756.545000", "122758.045000", "122759.545000", "122801.045000", "122802.545000", "122804.045000", "122805.545000", "122807.045000", "122808.545000", "122810.045000", "122811.545000", "122813.045000", "122814.545000", "122816.045000", "122817.545000", "122819.045000", "122820.545000", "122822.045000", "122823.545000", "122825.045000", "122826.545000", "122828.045000", "122829.545000", "122831.045000", "122832.545000", "122834.045000", "122835.545000", "122837.045000", "122838.545000", "122840.045000", "122841.545000", "122843.045000", "122844.545000", "122846.045000", "122847.545000", "122849.045000", "122850.545000", "122852.045000", "122853.545000", "122855.045000", "122856.545000", "122858.045000", "122859.545000", "122901.045000", "122902.545000", "122904.045000", "122905.545000", "122907.045000", "122908.545000", "122910.045000", "122911.545000", "122913.045000", "122914.545000", "122916.045000", "122917.545000", "122919.045000", "122920.545000", "122922.045000", "122923.545000", "122925.045000", "122926.545000", "122928.045000", "122929.545000", "122931.045000", "122932.545000", "122934.045000", "122935.545000", "122937.045000", "122938.545000", "122940.045000", "122941.545000", "122943.045000", "122944.545000", "122946.045000", "122947.545000", "122949.045000", "122950.545000", "122952.045000", "122953.545000", "122955.045000", "122956.545000", "122958.045000", "122959.545000", "123001.045000", "123002.545000", "123004.045000", "123005.545000", "123007.045000", "123008.545000", "123010.045000", "123011.545000", "123013.045000", "123014.545000", "123016.045000", "123017.545000", "123019.045000", "123020.545000", "123022.045000", "123023.545000", "123025.045000", "123026.545000", "123028.045000", "123029.545000", "123031.045000", "123032.545000", "123034.045000", "123035.545000", "123037.045000", "123038.545000", "123040.045000", "123041.545000", "123043.045000", "123044.545000", "123046.045000", "123047.545000", "123049.045000", "123050.545000", "123052.045000", "123053.545000", "123055.045000", "123056.545000", "123058.045000", "123059.545000", "123101.045000", "123102.545000", "123104.045000", "123105.545000", "123107.045000", "123108.545000", "123110.045000", "123111.545000", "123113.045000", "123114.545000", "123116.045000", "123117.545000", "123119.045000", "123120.545000", "123122.045000", "123123.545000", "123125.045000", "123126.545000", "123128.045000", "123129.545000", "123131.045000", "123132.545000", "123134.045000", "123135.545000", "123137.045000", "123138.545000", "123140.045000", "123141.545000", "123143.045000", "123144.545000", "123146.045000", "123147.545000", "123149.045000", "123150.545000", "123152.045000", "123153.545000", "123155.045000", "123156.545000", "123158.045000", "123159.545000", "123201.045000", "123202.545000", "123204.045000", "123205.545000", "123207.045000", "123208.545000", "123210.045000", "123211.545000", "123213.045000", "123214.545000", "123216.045000", "123217.545000", "123219.045000", "123220.545000", "123222.045000", "123223.545000", "123225.045000", "123226.545000", "123228.045000", "123229.545000", "123231.045000", "123232.545000", "123234.045000", "123235.545000", "123237.045000", "123238.545000", "123240.045000", "123241.545000", "123243.045000", "123244.545000", "123246.045000", "123247.545000", "123249.045000", "123250.545000", "123252.045000", "123253.545000", "123255.045000", "123256.545000", "123258.045000", "123259.545000", "123301.045000", "123302.545000", "123304.045000", "123305.545000", "123307.045000", "123308.545000", "123310.045000", "123311.545000", "123313.045000", "123314.545000", "123316.045000", "123317.545000", "123319.045000", "123320.545000", "123322.045000", "123323.545000", "123325.045000", "123326.545000", "123328.045000", "123329.545000", "123331.045000", "123332.545000", "123334.045000", "123335.545000", "123337.045000", "123338.545000", "123340.045000", "123341.545000", "123343.045000", "123344.545000", "123346.045000", "123347.545000", "123349.045000", "123350.545000", "123352.045000", "123353.545000", "123355.045000", "123356.545000", "123358.045000", "123359.545000", "123401.045000", "123402.545000", "123404.045000", "123405.545000", "123407.045000", "123408.545000", "123410.045000", "123411.545000", "123413.045000", "123414.545000", "123416.045000", "123417.545000", "123419.045000", "123420.545000", "123422.045000", "123423.545000", "123425.045000", "123426.545000", "123428.045000", "123429.545000", "123431.045000", "123432.545000", "123434.045000", "123435.545000", "123437.045000", "123438.545000", "123440.045000", "123441.545000", "123443.045000", "123444.545000", "123446.045000", "123447.545000", "123449.045000", "123450.545000", "123452.045000", "123453.545000", "123455.045000", "123456.545000", "123458.045000", "123459.545000", "123501.045000", "123502.545000", "123504.045000", "123505.545000", "123507.045000", "123508.545000", "123510.045000", "123511.545000", "123513.045000", "123514.545000", "123516.045000", "123517.545000", "123519.045000", "123520.545000", "123522.045000", "123523.545000", "123525.045000", "123526.545000", "123528.045000", "123529.545000", "123531.045000", "123532.545000", "123534.045000", "123535.545000", "123537.045000", "123538.545000", "123540.045000", "123541.545000", "123543.045000", "123544.545000", "123546.045000", "123547.545000", "123549.045000", "123550.545000", "123552.045000", "123553.545000", "123555.045000", "123556.545000", "123558.045000", "123559.545000", "123601.045000", "123602.545000", "123604.045000", "123605.545000", "123607.045000", "123608.545000", "123610.045000", "123611.545000", "123613.045000", "123614.545000", "123616.045000", "123617.545000", "123619.045000", "123620.545000", "123622.045000", "123623.545000", "123625.045000", "123626.545000", "123628.045000", "123629.545000", "123631.045000", "123632.545000", "123634.045000", "123635.545000", "123637.045000", "123638.545000", "123640.045000", "123641.545000", "123643.045000", "123644.545000", "123646.045000", "123647.545000", "123649.045000", "123650.545000", "123652.045000", "123653.545000", "123655.045000", "123656.545000", "123658.045000", "123659.545000", "123701.045000", "123702.545000", "123704.045000", "123705.545000", "123707.045000", "123708.545000", "123710.045000", "123711.545000", "123713.045000", "123714.545000", "123716.045000", "123717.545000", "123719.045000", "123720.545000", "123722.045000", "123723.545000", "123725.045000", "123726.545000", "123728.045000", "123729.545000", "123731.045000", "123732.545000", "123734.045000", "123735.545000", "123737.045000", "123738.545000", "123740.045000", "123741.545000", "123743.045000", "123744.545000", "123746.045000", "123747.545000", "123749.045000", "123750.545000", "123752.045000", "123753.545000", "123755.045000", "123756.545000", "123758.045000", "123759.545000", "123801.045000", "123802.545000", "123804.045000", "123805.545000", "123807.045000", "123808.545000", "123810.045000", "123811.545000", "123813.045000", "123814.545000", "123816.045000", "123817.545000", "123819.045000", "123820.545000", "123822.045000", "123823.545000", "123825.045000", "123826.545000", "123828.045000", "123829.545000", "123831.045000", "123832.545000", "123834.045000", "123835.545000", "123837.045000", "123838.545000", "123840.045000", "123841.545000", "123843.045000", "123844.545000", "123846.045000", "123847.545000", "123849.045000", "123850.545000", "123852.045000", "123853.545000", "123855.045000", "123856.545000", "123858.045000", "123859.545000", "123901.045000", "123902.545000", "123904.045000", "123905.545000", "123907.045000", "123908.545000", "123910.045000", "123911.545000", "123913.045000", "123914.545000", "123916.045000", "123917.545000", "123919.045000", "123920.545000", "123922.045000", "123923.545000", "123925.045000", "123926.545000", "123928.045000", "123929.545000", "123931.045000", "123932.545000", "123934.045000", "123935.545000", "123937.045000", "123938.545000", "123940.045000", "123941.545000", "123943.045000", "123944.545000", "123946.045000", "123947.545000", "123949.045000", "123950.545000", "123952.045000", "123953.545000", "123955.045000", "123956.545000", "123958.045000", "123959.545000", "124001.045000", "124002.545000", "124004.045000", "124005.545000", "124007.045000", "124008.545000", "124010.045000", "124011.545000", "124013.045000", "124014.545000", "124016.045000", "124017.545000", "124019.045000", "124020.545000", "124022.045000", "124023.545000", "124025.045000", "124026.545000", "124028.045000", "124029.545000", "124031.045000", "124032.545000", "124034.045000", "124035.545000", "124037.045000", "124038.545000", "124040.045000", "124041.545000", "124043.045000", "124044.545000", "124046.045000", "124047.545000", "124049.045000", "124050.545000", "124052.045000", "124053.545000", "124055.045000", "124056.545000", "124058.045000", "124059.545000", "124101.045000", "124102.545000", "124104.045000", "124105.545000", "124107.045000", "124108.545000", "124110.045000", "124111.545000", "124113.045000", "124114.545000", "124116.045000", "124117.545000", "124119.045000", "124120.545000", "124122.045000", "124123.545000", "124125.045000", "124126.545000", "124128.045000", "124129.545000", "124131.045000", "124132.545000", "124134.045000", "124135.545000", "124137.045000", "124138.545000", "124140.045000", "124141.545000", "124143.045000", "124144.545000", "124146.045000", "124147.545000", "124149.045000", "124150.545000", "124152.045000", "124153.545000", "124155.045000", "124156.545000", "124158.045000", "124159.545000", "124201.045000", "124202.545000", "124204.045000", "124205.545000", "124207.045000", "124208.545000", "124210.045000", "124211.545000", "124213.045000", "124214.545000", "124216.045000", "124217.545000", "124219.045000", "124220.545000", "124222.045000", "124223.545000", "124225.045000", "124226.545000", "124228.045000", "124229.545000", "124231.045000", "124232.545000", "124234.045000", "124235.545000", "124237.045000", "124238.545000", "124240.045000", "124241.545000", "124243.045000", "124244.545000", "124246.045000", "124247.545000", "124249.045000", "124250.545000", "124252.045000", "124253.545000", "124255.045000", "124256.545000", "124258.045000", "124259.545000", "124301.045000", "124302.545000", "124304.045000", "124305.545000", "124307.045000", "124308.545000", "124310.045000", "124311.545000", "124313.045000", "124314.545000", "124316.045000", "124317.545000", "124319.045000", "124320.545000", "124322.045000", "124323.545000", "124325.045000", "124326.545000", "124328.045000", "124329.545000", "124331.045000", "124332.545000", "124334.045000", "124335.545000", "124337.045000", "124338.545000", "124340.045000", "124341.545000", "124343.045000", "124344.545000", "124346.045000", "124347.545000", "124349.045000", "124350.545000", "124352.045000", "124353.545000", "124355.045000", "124356.545000", "124358.045000", "124359.545000", "124401.045000", "124402.545000", "124404.045000", "124405.545000", "124407.045000", "124408.545000", "124410.045000", "124411.545000", "124413.045000", "124414.545000", "124416.045000", "124417.545000", "124419.045000", "124420.545000", "124422.045000", "124423.545000", "124425.045000", "124426.545000", "124428.045000", "124429.545000", "124431.045000", "124432.545000", "124434.045000", "124435.545000", "124437.045000", "124438.545000", "124440.045000", "124441.545000", "124443.045000", "124444.545000", "124446.045000", "124447.545000", "124449.045000", "124450.545000", "124452.045000", "124453.545000", "124455.045000", "124456.545000", "124458.045000", "124459.545000", "124501.045000", "124502.545000", "124504.045000", "124505.545000", "124507.045000", "124508.545000", "124510.045000", "124511.545000", "124513.045000", "124514.545000", "124516.045000", "124517.545000", "124519.045000", "124520.545000", "124522.045000", "124523.545000", "124525.045000", "124526.545000", "124528.045000", "124529.545000", "124531.045000", "124532.545000", "124534.045000", "124535.545000", "124537.045000", "124538.545000", "124540.045000", "124541.545000", "124543.045000", "124544.545000", "124546.045000", "124547.545000", "124549.045000", "124550.545000", "124552.045000", "124553.545000", "124555.045000", "124556.545000", "124558.045000", "124559.545000", "124601.045000", "124602.545000", "124604.045000", "124605.545000", "124607.045000", "124608.545000", "124610.045000", "124611.545000", "124613.045000", "124614.545000", "124616.045000", "124617.545000", "124619.045000", "124620.545000", "124622.045000", "124623.545000", "124625.045000", "124626.545000", "124628.045000", "124629.545000", "124631.045000", "124632.545000", "124634.045000", "124635.545000", "124637.045000", "124638.545000", "124640.045000", "124641.545000", "124643.045000", "124644.545000", "124646.045000", "124647.545000", "124649.045000", "124650.545000", "124652.045000", "124653.545000", "124655.045000", "124656.545000", "124658.045000", "124659.545000", "124701.045000", "124702.545000", "124704.045000", "124705.545000", "124707.045000", "124708.545000", "124710.045000", "124711.545000", "124713.045000", "124714.545000", "124716.045000", "124717.545000", "124719.045000", "124720.545000", "124722.045000", "124723.545000", "124725.045000", "124726.545000", "124728.045000", "124729.545000", "124731.045000", "124732.545000", "124734.045000", "124735.545000", "124737.045000", "124738.545000", "124740.045000", "124741.545000", "124743.045000", "124744.545000", "124746.045000", "124747.545000", "124749.045000", "124750.545000", "124752.045000", "124753.545000", "124755.045000", "124756.545000", "124758.045000", "124759.545000", "124801.045000", "124802.545000", "124804.045000", "124805.545000", "124807.045000", "124808.545000", "124810.045000", "124811.545000", "124813.045000", "124814.545000", "124816.045000", "124817.545000", "124819.045000", "124820.545000", "124822.045000", "124823.545000", "124825.045000", "124826.545000", "124828.045000", "124829.545000", "124831.045000", "124832.545000", "124834.045000", "124835.545000", "124837.045000", "124838.545000", "124840.045000", "124841.545000", "124843.045000", "124844.545000", "124846.045000", "124847.545000", "124849.045000", "124850.545000", "124852.045000", "124853.545000", "124855.045000", "124856.545000", "124858.045000", "124859.545000", "124901.045000", "124902.545000", "124904.045000", "124905.545000", "124907.045000", "124908.545000", "124910.045000", "124911.545000", "124913.045000", "124914.545000", "124916.045000", "124917.545000", "124919.045000", "124920.545000", "124922.045000", "124923.545000", "124925.045000", "124926.545000", "124928.045000", "124929.545000", "124931.045000", "124932.545000", "124934.045000", "124935.545000", "124937.045000", "124938.545000", "124940.045000", "124941.545000", "124943.045000", "124944.545000", "124946.045000", "124947.545000", "124949.045000", "124950.545000", "124952.045000", "124953.545000", "124955.045000", "124956.545000", "124958.045000", "124959.545000", "125001.045000", "125002.545000", "125004.045000", "125005.545000", "125007.045000", "12500