{
  "AcquisitionMatrixPE": 106,
  "AcquisitionNumber": 1,
  "AcquisitionTime": "13:51:53.110000",
  "BandwidthPerPixelPhaseEncode": 16.846,
  "BaseResolution": 106,
  "BodyPartExamined": "BRAIN",
  "CoilCombinationMethod": "Sum of Squares",
  "ConsistencyInfo": "N4_VE11C_LATEST_20160120",
  "ConversionSoftware": "dcm2niix",
  "ConversionSoftwareVersion": "v1.0.20220720",
  "DerivedVendorReportedEchoSpacing": 0.000560012,
  "DeviceSerialNumber": "166108",
  "DwellTime": 1.8e-06,
  "EchoTime": 0.0352,
  "EchoTrainLength": 106,
  "EffectiveEchoSpacing": 0.000560012,
  "FlipAngle": 60,
  "HeudiconvVersion": "1.3.0",
  "ImageComments": "Unaliased MB4/PE3/LB",
  "ImageOrientationPatientDICOM": [1, 0, 0, 0, 1, 0],
  "ImageOrientationText": "Tra",
  "ImageType": [
    "ORIGINAL",
    "PRIMARY",
    "M",
    "MB",
    "ND",
    "MOSAIC"
],
  "ImagingFrequency": 123.244,
  "InPlanePhaseEncodingDirectionDICOM": "COL",
  "InstitutionAddress": "Bedford Way 26,London,London,GB,WC1H 0AP",
  "InstitutionName": "University College",
  "InstitutionalDepartmentName": "Department",
  "MRAcquisitionType": "2D",
  "MagneticFieldStrength": 3,
  "Manufacturer": "Siemens",
  "ManufacturersModelName": "Prisma",
  "MatrixCoilMode": "SENSE",
  "Modality": "MR",
  "MultibandAccelerationFactor": 4,
  "NonlinearGradientCorrection": false,
  "PartialFourier": 1,
  "PatientPosition": "HFS",
  "PercentPhaseFOV": 100,
  "PercentSampling": 100,
  "PhaseEncodingDirection": "j-",
  "PhaseEncodingSteps": 106,
  "PhaseResolution": 1,
  "PixelBandwidth": 2620,
  "ProcedureStepDescription": "Egor^MovieProject2",
  "ProtocolName": "task-backtothefuture_run-3",
  "PulseSequenceDetails": "%CustomerSeq%\\cmrr_mbep2d_bold",
  "ReceiveCoilActiveElements": "HEA;HEP",
  "ReceiveCoilName": "Head_32",
  "ReconMatrixPE": 106,
  "RepetitionTime": 1.5,
  "SAR": 0.0825472,
  "ScanOptions": "FS\\EXT",
  "ScanningSequence": "EP",
  "SequenceName": "epfid2d1_106",
  "SequenceVariant": "SK\\SS",
  "SeriesDescription": "task-backtothefuture_run-3",
  "SeriesNumber": 13,
  "ShimSetting": [-1610, 671, 7443, 437, -130, 151, 85, 0],
  "SliceThickness": 2,
  "SliceTiming": [0, 1.07, 0.6575, 0.2475, 1.3175, 0.905, 0.495, 0.0825, 1.1525, 0.74, 0.33, 1.3975, 0.9875, 0.5775, 0.165, 1.235, 0.8225, 0.4125, 0, 1.07, 0.6575, 0.2475, 1.3175, 0.905, 0.495, 0.0825, 1.1525, 0.74, 0.33, 1.3975, 0.9875, 0.5775, 0.165, 1.235, 0.8225, 0.4125, 0, 1.07, 0.6575, 0.2475, 1.3175, 0.905, 0.495, 0.0825, 1.1525, 0.74, 0.33, 1.3975, 0.9875, 0.5775, 0.165, 1.235, 0.8225, 0.4125, 0, 1.07, 0.6575, 0.2475, 1.3175, 0.905, 0.495, 0.0825, 1.1525, 0.74, 0.33, 1.3975, 0.9875, 0.5775, 0.165, 1.235, 0.8225, 0.4125],
  "SoftwareVersions": "syngo MR E11",
  "SpacingBetweenSlices": 2,
  "StationName": "AWP166108",
  "TaskName": "backtothefuture",
  "TotalReadoutTime": 0.0588013,
  "TxRefAmp": 235.3,
  "WipMemBlock": "06616bca-35da-44e3-b6f0-dbecaa631f4f||Sequence: R016 ve11c/master r/e634e98; Dec 19 2017 11:00:25 by eja",
  "dcmmeta_affine": [
    [-2.0, 0.0, 0.0, 106.0],
    [0.0, 2.0, 0.0, -86.53012084960938],
    [0.0, 0.0, 2.0, -50.51807403564453],
    [0.0, 0.0, 0.0, 1.0]
],
  "dcmmeta_reorient_transform": [
    [0.0, -1.0, 0.0, 105.0],
    [1.0, 0.0, 0.0, 0.0],
    [0.0, 0.0, 1.0, 0.0],
    [0.0, 0.0, 0.0, 1.0]
],
  "dcmmeta_shape": [106, 106, 72, 1608],
  "dcmmeta_slice_dim": 2,
  "dcmmeta_version": 0.6,
  "global": {
    "const": {
      "AcquisitionMatrix": [106, 0, 0, 106],
      "AngioFlag": "N",
      "BitsAllocated": 16,
      "BitsStored": 16,
      "BodyPartExamined": "BRAIN",
      "CardiacNumberOfImages": 1,
      "Columns": 954,
      "EchoNumbers": 1,
      "EchoTime": 35.2,
      "EchoTrainLength": 106,
      "FlipAngle": 60.0,
      "HighBit": 15,
      "ImageOrientationPatient": [1.0, 0.0, 0.0, 0.0, 1.0, 0.0],
      "ImagePositionPatient": [-954.0, -971.46987915039, -50.518074035645],
      "ImageType": [
        "ORIGINAL",
        "PRIMARY",
        "M",
        "MB",
        "ND",
        "MOSAIC"
],
      "ImagedNucleus": "1H",
      "ImagingFrequency": 123.243692,
      "InPlanePhaseEncodingDirection": "COL",
      "MRAcquisitionType": "2D",
      "MagneticFieldStrength": 3.0,
      "Manufacturer": "SIEMENS",
      "ManufacturerModelName": "Prisma",
      "Modality": "MR",
      "NominalInterval": 0,
      "NumberOfAverages": 1.0,
      "NumberOfPhaseEncodingSteps": 106,
      "PercentPhaseFieldOfView": 100.0,
      "PercentSampling": 100.0,
      "PerformedProcedureStepStartTime": "113457.912000",
      "PhotometricInterpretation": "MONOCHROME2",
      "PixelBandwidth": 2620.0,
      "PixelRepresentation": 0,
      "PixelSpacing": [2.0, 2.0],
      "ProtocolName": "task-backtothefuture_run-3",
      "RepetitionTime": 1500.0,
      "Rows": 954,
      "SAR": 0.08254722901181,
      "SamplesPerPixel": 1,
      "ScanOptions": [
        "FS",
        "EXT"
],
      "ScanningSequence": "EP",
      "SequenceName": "epfid2d1_106",
      "SequenceVariant": [
        "SK",
        "SS"
],
      "SeriesDescription": "task-backtothefuture_run-3",
      "SeriesNumber": 13,
      "SeriesTime": "135221.626000",
      "SliceLocation": -50.518074035645,
      "SliceThickness": 2.0,
      "SmallestImagePixelValue": 0,
      "SoftwareVersions": "syngo MR E11",
      "SpacingBetweenSlices": 2.0,
      "SpecificCharacterSet": "ISO_IR 100",
      "StudyID": "1",
      "StudyTime": "113457.857000",
      "TransmitCoilName": "Body",
      "VariableFlipAngleFlag": "N",
      "WindowCenterWidthExplanation": "Algo1",
      "dBdt": 0.0},
    "slices": {}
  },
  "time": {
    "samples": {
      "AcquisitionNumber": [1, 2, 3, 4, 5, 6, 7, 8, 9, 10, 11, 12, 13, 14, 15, 16, 17, 18, 19, 20, 21, 22, 23, 24, 25, 26, 27, 28, 29, 30, 31, 32, 33, 34, 35, 36, 37, 38, 39, 40, 41, 42, 43, 44, 45, 46, 47, 48, 49, 50, 51, 52, 53, 54, 55, 56, 57, 58, 59, 60, 61, 62, 63, 64, 65, 66, 67, 68, 69, 70, 71, 72, 73, 74, 75, 76, 77, 78, 79, 80, 81, 82, 83, 84, 85, 86, 87, 88, 89, 90, 91, 92, 93, 94, 95, 96, 97, 98, 99, 100, 101, 102, 103, 104, 105, 106, 107, 108, 109, 110, 111, 112, 113, 114, 115, 116, 117, 118, 119, 120, 121, 122, 123, 124, 125, 126, 127, 128, 129, 130, 131, 132, 133, 134, 135, 136, 137, 138, 139, 140, 141, 142, 143, 144, 145, 146, 147, 148, 149, 150, 151, 152, 153, 154, 155, 156, 157, 158, 159, 160, 161, 162, 163, 164, 165, 166, 167, 168, 169, 170, 171, 172, 173, 174, 175, 176, 177, 178, 179, 180, 181, 182, 183, 184, 185, 186, 187, 188, 189, 190, 191, 192, 193, 194, 195, 196, 197, 198, 199, 200, 201, 202, 203, 204, 205, 206, 207, 208, 209, 210, 211, 212, 213, 214, 215, 216, 217, 218, 219, 220, 221, 222, 223, 224, 225, 226, 227, 228, 229, 230, 231, 232, 233, 234, 235, 236, 237, 238, 239, 240, 241, 242, 243, 244, 245, 246, 247, 248, 249, 250, 251, 252, 253, 254, 255, 256, 257, 258, 259, 260, 261, 262, 263, 264, 265, 266, 267, 268, 269, 270, 271, 272, 273, 274, 275, 276, 277, 278, 279, 280, 281, 282, 283, 284, 285, 286, 287, 288, 289, 290, 291, 292, 293, 294, 295, 296, 297, 298, 299, 300, 301, 302, 303, 304, 305, 306, 307, 308, 309, 310, 311, 312, 313, 314, 315, 316, 317, 318, 319, 320, 321, 322, 323, 324, 325, 326, 327, 328, 329, 330, 331, 332, 333, 334, 335, 336, 337, 338, 339, 340, 341, 342, 343, 344, 345, 346, 347, 348, 349, 350, 351, 352, 353, 354, 355, 356, 357, 358, 359, 360, 361, 362, 363, 364, 365, 366, 367, 368, 369, 370, 371, 372, 373, 374, 375, 376, 377, 378, 379, 380, 381, 382, 383, 384, 385, 386, 387, 388, 389, 390, 391, 392, 393, 394, 395, 396, 397, 398, 399, 400, 401, 402, 403, 404, 405, 406, 407, 408, 409, 410, 411, 412, 413, 414, 415, 416, 417, 418, 419, 420, 421, 422, 423, 424, 425, 426, 427, 428, 429, 430, 431, 432, 433, 434, 435, 436, 437, 438, 439, 440, 441, 442, 443, 444, 445, 446, 447, 448, 449, 450, 451, 452, 453, 454, 455, 456, 457, 458, 459, 460, 461, 462, 463, 464, 465, 466, 467, 468, 469, 470, 471, 472, 473, 474, 475, 476, 477, 478, 479, 480, 481, 482, 483, 484, 485, 486, 487, 488, 489, 490, 491, 492, 493, 494, 495, 496, 497, 498, 499, 500, 501, 502, 503, 504, 505, 506, 507, 508, 509, 510, 511, 512, 513, 514, 515, 516, 517, 518, 519, 520, 521, 522, 523, 524, 525, 526, 527, 528, 529, 530, 531, 532, 533, 534, 535, 536, 537, 538, 539, 540, 541, 542, 543, 544, 545, 546, 547, 548, 549, 550, 551, 552, 553, 554, 555, 556, 557, 558, 559, 560, 561, 562, 563, 564, 565, 566, 567, 568, 569, 570, 571, 572, 573, 574, 575, 576, 577, 578, 579, 580, 581, 582, 583, 584, 585, 586, 587, 588, 589, 590, 591, 592, 593, 594, 595, 596, 597, 598, 599, 600, 601, 602, 603, 604, 605, 606, 607, 608, 609, 610, 611, 612, 613, 614, 615, 616, 617, 618, 619, 620, 621, 622, 623, 624, 625, 626, 627, 628, 629, 630, 631, 632, 633, 634, 635, 636, 637, 638, 639, 640, 641, 642, 643, 644, 645, 646, 647, 648, 649, 650, 651, 652, 653, 654, 655, 656, 657, 658, 659, 660, 661, 662, 663, 664, 665, 666, 667, 668, 669, 670, 671, 672, 673, 674, 675, 676, 677, 678, 679, 680, 681, 682, 683, 684, 685, 686, 687, 688, 689, 690, 691, 692, 693, 694, 695, 696, 697, 698, 699, 700, 701, 702, 703, 704, 705, 706, 707, 708, 709, 710, 711, 712, 713, 714, 715, 716, 717, 718, 719, 720, 721, 722, 723, 724, 725, 726, 727, 728, 729, 730, 731, 732, 733, 734, 735, 736, 737, 738, 739, 740, 741, 742, 743, 744, 745, 746, 747, 748, 749, 750, 751, 752, 753, 754, 755, 756, 757, 758, 759, 760, 761, 762, 763, 764, 765, 766, 767, 768, 769, 770, 771, 772, 773, 774, 775, 776, 777, 778, 779, 780, 781, 782, 783, 784, 785, 786, 787, 788, 789, 790, 791, 792, 793, 794, 795, 796, 797, 798, 799, 800, 801, 802, 803, 804, 805, 806, 807, 808, 809, 810, 811, 812, 813, 814, 815, 816, 817, 818, 819, 820, 821, 822, 823, 824, 825, 826, 827, 828, 829, 830, 831, 832, 833, 834, 835, 836, 837, 838, 839, 840, 841, 842, 843, 844, 845, 846, 847, 848, 849, 850, 851, 852, 853, 854, 855, 856, 857, 858, 859, 860, 861, 862, 863, 864, 865, 866, 867, 868, 869, 870, 871, 872, 873, 874, 875, 876, 877, 878, 879, 880, 881, 882, 883, 884, 885, 886, 887, 888, 889, 890, 891, 892, 893, 894, 895, 896, 897, 898, 899, 900, 901, 902, 903, 904, 905, 906, 907, 908, 909, 910, 911, 912, 913, 914, 915, 916, 917, 918, 919, 920, 921, 922, 923, 924, 925, 926, 927, 928, 929, 930, 931, 932, 933, 934, 935, 936, 937, 938, 939, 940, 941, 942, 943, 944, 945, 946, 947, 948, 949, 950, 951, 952, 953, 954, 955, 956, 957, 958, 959, 960, 961, 962, 963, 964, 965, 966, 967, 968, 969, 970, 971, 972, 973, 974, 975, 976, 977, 978, 979, 980, 981, 982, 983, 984, 985, 986, 987, 988, 989, 990, 991, 992, 993, 994, 995, 996, 997, 998, 999, 1000, 1001, 1002, 1003, 1004, 1005, 1006, 1007, 1008, 1009, 1010, 1011, 1012, 1013, 1014, 1015, 1016, 1017, 1018, 1019, 1020, 1021, 1022, 1023, 1024, 1025, 1026, 1027, 1028, 1029, 1030, 1031, 1032, 1033, 1034, 1035, 1036, 1037, 1038, 1039, 1040, 1041, 1042, 1043, 1044, 1045, 1046, 1047, 1048, 1049, 1050, 1051, 1052, 1053, 1054, 1055, 1056, 1057, 1058, 1059, 1060, 1061, 1062, 1063, 1064, 1065, 1066, 1067, 1068, 1069, 1070, 1071, 1072, 1073, 1074, 1075, 1076, 1077, 1078, 1079, 1080, 1081, 1082, 1083, 1084, 1085, 1086, 1087, 1088, 1089, 1090, 1091, 1092, 1093, 1094, 1095, 1096, 1097, 1098, 1099, 1100, 1101, 1102, 1103, 1104, 1105, 1106, 1107, 1108, 1109, 1110, 1111, 1112, 1113, 1114, 1115, 1116, 1117, 1118, 1119, 1120, 1121, 1122, 1123, 1124, 1125, 1126, 1127, 1128, 1129, 1130, 1131, 1132, 1133, 1134, 1135, 1136, 1137, 1138, 1139, 1140, 1141, 1142, 1143, 1144, 1145, 1146, 1147, 1148, 1149, 1150, 1151, 1152, 1153, 1154, 1155, 1156, 1157, 1158, 1159, 1160, 1161, 1162, 1163, 1164, 1165, 1166, 1167, 1168, 1169, 1170, 1171, 1172, 1173, 1174, 1175, 1176, 1177, 1178, 1179, 1180, 1181, 1182, 1183, 1184, 1185, 1186, 1187, 1188, 1189, 1190, 1191, 1192, 1193, 1194, 1195, 1196, 1197, 1198, 1199, 1200, 1201, 1202, 1203, 1204, 1205, 1206, 1207, 1208, 1209, 1210, 1211, 1212, 1213, 1214, 1215, 1216, 1217, 1218, 1219, 1220, 1221, 1222, 1223, 1224, 1225, 1226, 1227, 1228, 1229, 1230, 1231, 1232, 1233, 1234, 1235, 1236, 1237, 1238, 1239, 1240, 1241, 1242, 1243, 1244, 1245, 1246, 1247, 1248, 1249, 1250, 1251, 1252, 1253, 1254, 1255, 1256, 1257, 1258, 1259, 1260, 1261, 1262, 1263, 1264, 1265, 1266, 1267, 1268, 1269, 1270, 1271, 1272, 1273, 1274, 1275, 1276, 1277, 1278, 1279, 1280, 1281, 1282, 1283, 1284, 1285, 1286, 1287, 1288, 1289, 1290, 1291, 1292, 1293, 1294, 1295, 1296, 1297, 1298, 1299, 1300, 1301, 1302, 1303, 1304, 1305, 1306, 1307, 1308, 1309, 1310, 1311, 1312, 1313, 1314, 1315, 1316, 1317, 1318, 1319, 1320, 1321, 1322, 1323, 1324, 1325, 1326, 1327, 1328, 1329, 1330, 1331, 1332, 1333, 1334, 1335, 1336, 1337, 1338, 1339, 1340, 1341, 1342, 1343, 1344, 1345, 1346, 1347, 1348, 1349, 1350, 1351, 1352, 1353, 1354, 1355, 1356, 1357, 1358, 1359, 1360, 1361, 1362, 1363, 1364, 1365, 1366, 1367, 1368, 1369, 1370, 1371, 1372, 1373, 1374, 1375, 1376, 1377, 1378, 1379, 1380, 1381, 1382, 1383, 1384, 1385, 1386, 1387, 1388, 1389, 1390, 1391, 1392, 1393, 1394, 1395, 1396, 1397, 1398, 1399, 1400, 1401, 1402, 1403, 1404, 1405, 1406, 1407, 1408, 1409, 1410, 1411, 1412, 1413, 1414, 1415, 1416, 1417, 1418, 1419, 1420, 1421, 1422, 1423, 1424, 1425, 1426, 1427, 1428, 1429, 1430, 1431, 1432, 1433, 1434, 1435, 1436, 1437, 1438, 1439, 1440, 1441, 1442, 1443, 1444, 1445, 1446, 1447, 1448, 1449, 1450, 1451, 1452, 1453, 1454, 1455, 1456, 1457, 1458, 1459, 1460, 1461, 1462, 1463, 1464, 1465, 1466, 1467, 1468, 1469, 1470, 1471, 1472, 1473, 1474, 1475, 1476, 1477, 1478, 1479, 1480, 1481, 1482, 1483, 1484, 1485, 1486, 1487, 1488, 1489, 1490, 1491, 1492, 1493, 1494, 1495, 1496, 1497, 1498, 1499, 1500, 1501, 1502, 1503, 1504, 1505, 1506, 1507, 1508, 1509, 1510, 1511, 1512, 1513, 1514, 1515, 1516, 1517, 1518, 1519, 1520, 1521, 1522, 1523, 1524, 1525, 1526, 1527, 1528, 1529, 1530, 1531, 1532, 1533, 1534, 1535, 1536, 1537, 1538, 1539, 1540, 1541, 1542, 1543, 1544, 1545, 1546, 1547, 1548, 1549, 1550, 1551, 1552, 1553, 1554, 1555, 1556, 1557, 1558, 1559, 1560, 1561, 1562, 1563, 1564, 1565, 1566, 1567, 1568, 1569, 1570, 1571, 1572, 1573, 1574, 1575, 1576, 1577, 1578, 1579, 1580, 1581, 1582, 1583, 1584, 1585, 1586, 1587, 1588, 1589, 1590, 1591, 1592, 1593, 1594, 1595, 1596, 1597, 1598, 1599, 1600, 1601, 1602, 1603, 1604, 1605, 1606, 1607, 1608],
      "AcquisitionTime": ["135153.110000", "135154.610000", "135156.110000", "135157.610000", "135159.110000", "135200.610000", "135202.110000", "135203.610000", "135205.110000", "135206.610000", "135208.110000", "135209.610000", "135211.110000", "135212.610000", "135214.110000", "135215.610000", "135217.110000", "135218.610000", "135220.110000", "135221.610000", "135223.110000", "135224.610000", "135226.110000", "135227.610000", "135229.110000", "135230.610000", "135232.110000", "135233.610000", "135235.110000", "135236.610000", "135238.110000", "135239.610000", "135241.110000", "135242.610000", "135244.110000", "135245.610000", "135247.110000", "135248.610000", "135250.110000", "135251.610000", "135253.110000", "135254.610000", "135256.110000", "135257.610000", "135259.110000", "135300.610000", "135302.110000", "135303.610000", "135305.110000", "135306.610000", "135308.110000", "135309.610000", "135311.110000", "135312.610000", "135314.110000", "135315.610000", "135317.110000", "135318.610000", "135320.110000", "135321.610000", "135323.110000", "135324.610000", "135326.110000", "135327.610000", "135329.110000", "135330.610000", "135332.110000", "135333.610000", "135335.110000", "135336.610000", "135338.110000", "135339.610000", "135341.110000", "135342.610000", "135344.110000", "135345.610000", "135347.110000", "135348.610000", "135350.110000", "135351.610000", "135353.110000", "135354.610000", "135356.110000", "135357.610000", "135359.110000", "135400.610000", "135402.110000", "135403.610000", "135405.110000", "135406.610000", "135408.110000", "135409.610000", "135411.110000", "135412.610000", "135414.110000", "135415.610000", "135417.110000", "135418.610000", "135420.110000", "135421.610000", "135423.110000", "135424.610000", "135426.110000", "135427.610000", "135429.110000", "135430.610000", "135432.110000", "135433.610000", "135435.110000", "135436.610000", "135438.110000", "135439.610000", "135441.110000", "135442.610000", "135444.110000", "135445.610000", "135447.110000", "135448.610000", "135450.110000", "135451.610000", "135453.110000", "135454.610000", "135456.110000", "135457.610000", "135459.110000", "135500.610000", "135502.110000", "135503.610000", "135505.110000", "135506.610000", "135508.110000", "135509.610000", "135511.110000", "135512.610000", "135514.110000", "135515.610000", "135517.110000", "135518.610000", "135520.110000", "135521.610000", "135523.110000", "135524.610000", "135526.110000", "135527.610000", "135529.110000", "135530.610000", "135532.110000", "135533.610000", "135535.110000", "135536.610000", "135538.110000", "135539.610000", "135541.110000", "135542.610000", "135544.110000", "135545.610000", "135547.110000", "135548.610000", "135550.110000", "135551.610000", "135553.110000", "135554.610000", "135556.110000", "135557.610000", "135559.110000", "135600.610000", "135602.110000", "135603.610000", "135605.110000", "135606.610000", "135608.110000", "135609.610000", "135611.110000", "135612.610000", "135614.110000", "135615.610000", "135617.110000", "135618.610000", "135620.110000", "135621.610000", "135623.110000", "135624.610000", "135626.110000", "135627.610000", "135629.110000", "135630.610000", "135632.110000", "135633.610000", "135635.110000", "135636.610000", "135638.110000", "135639.610000", "135641.110000", "135642.610000", "135644.110000", "135645.610000", "135647.110000", "135648.610000", "135650.110000", "135651.610000", "135653.110000", "135654.610000", "135656.110000", "135657.610000", "135659.110000", "135700.610000", "135702.110000", "135703.610000", "135705.110000", "135706.610000", "135708.110000", "135709.610000", "135711.110000", "135712.610000", "135714.110000", "135715.610000", "135717.110000", "135718.610000", "135720.110000", "135721.610000", "135723.110000", "135724.610000", "135726.110000", "135727.610000", "135729.110000", "135730.610000", "135732.110000", "135733.610000", "135735.110000", "135736.610000", "135738.110000", "135739.610000", "135741.110000", "135742.610000", "135744.110000", "135745.610000", "135747.110000", "135748.610000", "135750.110000", "135751.610000", "135753.110000", "135754.610000", "135756.110000", "135757.610000", "135759.110000", "135800.610000", "135802.110000", "135803.610000", "135805.110000", "135806.610000", "135808.110000", "135809.610000", "135811.110000", "135812.610000", "135814.110000", "135815.610000", "135817.110000", "135818.610000", "135820.110000", "135821.610000", "135823.110000", "135824.610000", "135826.110000", "135827.610000", "135829.110000", "135830.610000", "135832.110000", "135833.610000", "135835.110000", "135836.610000", "135838.110000", "135839.610000", "135841.110000", "135842.610000", "135844.110000", "135845.610000", "135847.110000", "135848.610000", "135850.110000", "135851.610000", "135853.110000", "135854.610000", "135856.110000", "135857.610000", "135859.110000", "135900.610000", "135902.110000", "135903.610000", "135905.110000", "135906.610000", "135908.110000", "135909.610000", "135911.110000", "135912.610000", "135914.110000", "135915.610000", "135917.110000", "135918.610000", "135920.110000", "135921.610000", "135923.110000", "135924.610000", "135926.110000", "135927.610000", "135929.110000", "135930.610000", "135932.110000", "135933.610000", "135935.110000", "135936.610000", "135938.110000", "135939.610000", "135941.110000", "135942.610000", "135944.110000", "135945.610000", "135947.110000", "135948.610000", "135950.110000", "135951.610000", "135953.110000", "135954.610000", "135956.110000", "135957.610000", "135959.110000", "140000.610000", "140002.110000", "140003.610000", "140005.110000", "140006.610000", "140008.110000", "140009.610000", "140011.110000", "140012.610000", "140014.110000", "140015.610000", "140017.110000", "140018.610000", "140020.110000", "140021.610000", "140023.110000", "140024.610000", "140026.110000", "140027.610000", "140029.110000", "140030.610000", "140032.110000", "140033.610000", "140035.110000", "140036.610000", "140038.110000", "140039.610000", "140041.110000", "140042.610000", "140044.110000", "140045.610000", "140047.110000", "140048.610000", "140050.110000", "140051.610000", "140053.110000", "140054.610000", "140056.110000", "140057.610000", "140059.110000", "140100.610000", "140102.110000", "140103.610000", "140105.110000", "140106.610000", "140108.110000", "140109.610000", "140111.110000", "140112.610000", "140114.110000", "140115.610000", "140117.110000", "140118.610000", "140120.110000", "140121.610000", "140123.110000", "140124.610000", "140126.110000", "140127.610000", "140129.110000", "140130.610000", "140132.110000", "140133.610000", "140135.110000", "140136.610000", "140138.110000", "140139.610000", "140141.110000", "140142.610000", "140144.110000", "140145.610000", "140147.110000", "140148.610000", "140150.110000", "140151.610000", "140153.110000", "140154.610000", "140156.110000", "140157.610000", "140159.110000", "140200.610000", "140202.110000", "140203.610000", "140205.110000", "140206.610000", "140208.110000", "140209.610000", "140211.110000", "140212.610000", "140214.110000", "140215.610000", "140217.110000", "140218.610000", "140220.110000", "140221.610000", "140223.110000", "140224.610000", "140226.110000", "140227.610000", "140229.110000", "140230.610000", "140232.110000", "140233.610000", "140235.110000", "140236.610000", "140238.110000", "140239.610000", "140241.110000", "140242.610000", "140244.110000", "140245.610000", "140247.110000", "140248.610000", "140250.110000", "140251.610000", "140253.110000", "140254.610000", "140256.110000", "140257.610000", "140259.110000", "140300.610000", "140302.110000", "140303.610000", "140305.110000", "140306.610000", "140308.110000", "140309.610000", "140311.110000", "140312.610000", "140314.110000", "140315.610000", "140317.110000", "140318.610000", "140320.110000", "140321.610000", "140323.110000", "140324.610000", "140326.110000", "140327.610000", "140329.110000", "140330.610000", "140332.110000", "140333.610000", "140335.110000", "140336.610000", "140338.110000", "140339.610000", "140341.110000", "140342.610000", "140344.110000", "140345.610000", "140347.110000", "140348.610000", "140350.110000", "140351.610000", "140353.110000", "140354.610000", "140356.110000", "140357.610000", "140359.110000", "140400.610000", "140402.110000", "140403.610000", "140405.110000", "140406.610000", "140408.110000", "140409.610000", "140411.110000", "140412.610000", "140414.110000", "140415.610000", "140417.110000", "140418.610000", "140420.110000", "140421.610000", "140423.110000", "140424.610000", "140426.110000", "140427.610000", "140429.110000", "140430.610000", "140432.110000", "140433.610000", "140435.110000", "140436.610000", "140438.110000", "140439.610000", "140441.110000", "140442.610000", "140444.110000", "140445.610000", "140447.110000", "140448.610000", "140450.110000", "140451.610000", "140453.110000", "140454.610000", "140456.110000", "140457.610000", "140459.110000", "140500.610000", "140502.110000", "140503.610000", "140505.110000", "140506.610000", "140508.110000", "140509.610000", "140511.110000", "140512.610000", "140514.110000", "140515.610000", "140517.110000", "140518.610000", "140520.110000", "140521.610000", "140523.110000", "140524.610000", "140526.110000", "140527.610000", "140529.110000", "140530.610000", "140532.110000", "140533.610000", "140535.110000", "140536.610000", "140538.110000", "140539.610000", "140541.110000", "140542.610000", "140544.110000", "140545.610000", "140547.110000", "140548.610000", "140550.110000", "140551.610000", "140553.110000", "140554.610000", "140556.110000", "140557.610000", "140559.110000", "140600.610000", "140602.110000", "140603.610000", "140605.110000", "140606.610000", "140608.110000", "140609.610000", "140611.110000", "140612.610000", "140614.110000", "140615.610000", "140617.110000", "140618.610000", "140620.110000", "140621.610000", "140623.110000", "140624.610000", "140626.110000", "140627.610000", "140629.110000", "140630.610000", "140632.110000", "140633.610000", "140635.110000", "140636.610000", "140638.110000", "140639.610000", "140641.110000", "140642.610000", "140644.110000", "140645.610000", "140647.110000", "140648.610000", "140650.110000", "140651.610000", "140653.110000", "140654.610000", "140656.110000", "140657.610000", "140659.110000", "140700.610000", "140702.110000", "140703.610000", "140705.110000", "140706.610000", "140708.110000", "140709.610000", "140711.110000", "140712.610000", "140714.110000", "140715.610000", "140717.110000", "140718.610000", "140720.110000", "140721.610000", "140723.110000", "140724.610000", "140726.110000", "140727.610000", "140729.110000", "140730.610000", "140732.110000", "140733.610000", "140735.110000", "140736.610000", "140738.110000", "140739.610000", "140741.110000", "140742.610000", "140744.110000", "140745.610000", "140747.110000", "140748.610000", "140750.110000", "140751.610000", "140753.110000", "140754.610000", "140756.110000", "140757.610000", "140759.110000", "140800.610000", "140802.110000", "140803.610000", "140805.110000", "140806.610000", "140808.110000", "140809.610000", "140811.110000", "140812.610000", "140814.110000", "140815.610000", "140817.110000", "140818.610000", "140820.110000", "140821.610000", "140823.110000", "140824.610000", "140826.110000", "140827.610000", "140829.110000", "140830.610000", "140832.110000", "140833.610000", "140835.110000", "140836.610000", "140838.110000", "140839.610000", "140841.110000", "140842.610000", "140844.110000", "140845.610000", "140847.110000", "140848.610000", "140850.110000", "140851.610000", "140853.110000", "140854.610000", "140856.110000", "140857.610000", "140859.110000", "140900.610000", "140902.110000", "140903.610000", "140905.110000", "140906.610000", "140908.110000", "140909.610000", "140911.110000", "140912.610000", "140914.110000", "140915.610000", "140917.110000", "140918.610000", "140920.110000", "140921.610000", "140923.110000", "140924.610000", "140926.110000", "140927.610000", "140929.110000", "140930.610000", "140932.110000", "140933.610000", "140935.110000", "140936.610000", "140938.110000", "140939.610000", "140941.110000", "140942.610000", "140944.110000", "140945.610000", "140947.110000", "140948.610000", "140950.110000", "140951.610000", "140953.110000", "140954.610000", "140956.110000", "140957.610000", "140959.110000", "141000.610000", "141002.110000", "141003.610000", "141005.110000", "141006.610000", "141008.110000", "141009.610000", "141011.110000", "141012.610000", "141014.110000", "141015.610000", "141017.110000", "141018.610000", "141020.110000", "141021.610000", "141023.110000", "141024.610000", "141026.110000", "141027.610000", "141029.110000", "141030.610000", "141032.110000", "141033.610000", "141035.110000", "141036.610000", "141038.110000", "141039.610000", "141041.110000", "141042.610000", "141044.110000", "141045.610000", "141047.110000", "141048.610000", "141050.110000", "141051.610000", "141053.110000", "141054.610000", "141056.110000", "141057.610000", "141059.110000", "141100.610000", "141102.110000", "141103.610000", "141105.110000", "141106.610000", "141108.110000", "141109.610000", "141111.110000", "141112.610000", "141114.110000", "141115.610000", "141117.110000", "141118.610000", "141120.110000", "141121.610000", "141123.110000", "141124.610000", "141126.110000", "141127.610000", "141129.110000", "141130.610000", "141132.110000", "141133.610000", "141135.110000", "141136.610000", "141138.110000", "141139.610000", "141141.110000", "141142.610000", "141144.110000", "141145.610000", "141147.110000", "141148.610000", "141150.110000", "141151.610000", "141153.110000", "141154.610000", "141156.110000", "141157.610000", "141159.110000", "141200.610000", "141202.110000", "141203.610000", "141205.110000", "141206.610000", "141208.110000", "141209.610000", "141211.110000", "141212.610000", "141214.110000", "141215.610000", "141217.110000", "141218.610000", "141220.110000", "141221.610000", "141223.110000", "141224.610000", "141226.110000", "141227.610000", "141229.110000", "141230.610000", "141232.110000", "141233.610000", "141235.110000", "141236.610000", "141238.110000", "141239.610000", "141241.110000", "141242.610000", "141244.110000", "141245.610000", "141247.110000", "141248.610000", "141250.110000", "141251.610000", "141253.110000", "141254.610000", "141256.110000", "141257.610000", "141259.110000", "141300.610000", "141302.110000", "141303.610000", "141305.110000", "141306.610000", "141308.110000", "141309.610000", "141311.110000", "141312.610000", "141314.110000", "141315.610000", "141317.110000", "141318.610000", "141320.110000", "141321.610000", "141323.110000", "141324.610000", "141326.110000", "141327.610000", "141329.110000", "141330.610000", "141332.110000", "141333.610000", "141335.110000", "141336.610000", "141338.110000", "141339.610000", "141341.110000", "141342.610000", "141344.110000", "141345.610000", "141347.110000", "141348.610000", "141350.110000", "141351.610000", "141353.110000", "141354.610000", "141356.110000", "141357.610000", "141359.110000", "141400.610000", "141402.110000", "141403.610000", "141405.110000", "141406.610000", "141408.110000", "141409.610000", "141411.110000", "141412.610000", "141414.110000", "141415.610000", "141417.110000", "141418.610000", "141420.110000", "141421.610000", "141423.110000", "141424.610000", "141426.110000", "141427.610000", "141429.110000", "141430.610000", "141432.110000", "141433.610000", "141435.110000", "141436.610000", "141438.110000", "141439.610000", "141441.110000", "141442.610000", "141444.110000", "141445.610000", "141447.110000", "141448.610000", "141450.110000", "141451.610000", "141453.110000", "141454.610000", "141456.110000", "141457.610000", "141459.110000", "141500.610000", "141502.110000", "141503.610000", "141505.110000", "141506.610000", "141