{
  "AcquisitionMatrixPE": 106,
  "AcquisitionNumber": 1,
  "AcquisitionTime": "13:03:8.977500",
  "BandwidthPerPixelPhaseEncode": 13.477,
  "BaseResolution": 106,
  "BodyPartExamined": "BRAIN",
  "CoilCombinationMethod": "Sum of Squares",
  "ConsistencyInfo": "N4_VE11C_LATEST_20160120",
  "ConversionSoftware": "dcm2niix",
  "ConversionSoftwareVersion": "v1.0.20220720",
  "DerivedVendorReportedEchoSpacing": 0.000700005,
  "DeviceSerialNumber": "166108",
  "DwellTime": 2.6e-06,
  "EchoTime": 0.03,
  "EchoTrainLength": 80,
  "EffectiveEchoSpacing": 0.000700005,
  "FlipAngle": 62,
  "HeudiconvVersion": "1.3.0",
  "ImageComments": "Unaliased MB4/PE3/LB",
  "ImageOrientationPatientDICOM": [1, 0, 0, 0, 0.949972, -0.312335],
  "ImageOrientationText": "Tra>Cor(-18.2)",
  "ImageType": [
    "ORIGINAL",
    "PRIMARY",
    "M",
    "MB",
    "ND",
    "MOSAIC"
],
  "ImagingFrequency": 123.244,
  "InPlanePhaseEncodingDirectionDICOM": "COL",
  "InstitutionAddress": "Bedford Way 26,London,London,GB,WC1H 0AP",
  "InstitutionName": "University College",
  "InstitutionalDepartmentName": "Department",
  "MRAcquisitionType": "2D",
  "MagneticFieldStrength": 3,
  "Manufacturer": "Siemens",
  "ManufacturersModelName": "Prisma",
  "MatrixCoilMode": "SENSE",
  "Modality": "MR",
  "MultibandAccelerationFactor": 4,
  "NonlinearGradientCorrection": false,
  "PartialFourier": 0.75,
  "PatientPosition": "HFS",
  "PercentPhaseFOV": 100,
  "PercentSampling": 100,
  "PhaseEncodingDirection": "j-",
  "PhaseEncodingSteps": 80,
  "PhaseResolution": 1,
  "PixelBandwidth": 1815,
  "ProcedureStepDescription": "Egor^MovieProject2",
  "ProtocolName": "func-bold_task-tono_run-01",
  "PulseSequenceDetails": "%CustomerSeq%\\cmrr_mbep2d_bold",
  "ReceiveCoilActiveElements": "HEA;HEP",
  "ReceiveCoilName": "Head_32",
  "ReconMatrixPE": 106,
  "RepetitionTime": 1,
  "SAR": 0.0381629,
  "ScanOptions": "PFP\\FS\\EXT",
  "ScanningSequence": "EP",
  "SequenceName": "epfid2d1_106",
  "SequenceVariant": "SK\\SS",
  "SeriesDescription": "func-bold_task-tono_run-01",
  "SeriesNumber": 18,
  "ShimSetting": [-1482, 610, 7454, 264, 99, 245, 256, -142],
  "SliceThickness": 2,
  "SliceTiming": [0, 0.535, 0.09, 0.6225, 0.1775, 0.7125, 0.2675, 0.8025, 0.3575, 0.89, 0.445, 0, 0.535, 0.09, 0.6225, 0.1775, 0.7125, 0.2675, 0.8025, 0.3575, 0.89, 0.445, 0, 0.535, 0.09, 0.6225, 0.1775, 0.7125, 0.2675, 0.8025, 0.3575, 0.89, 0.445, 0, 0.535, 0.09, 0.6225, 0.1775, 0.7125, 0.2675, 0.8025, 0.3575, 0.89, 0.445],
  "SoftwareVersions": "syngo MR E11",
  "SpacingBetweenSlices": 2,
  "StationName": "AWP166108",
  "TaskName": "tonotopy",
  "TotalReadoutTime": 0.0735005,
  "TxRefAmp": 221.21,
  "WipMemBlock": "7db0e5bb-399d-45d3-91d2-009341556b79||Sequence: R016 ve11c/master r/e634e98; Dec 19 2017 11:00:25 by eja",
  "dcmmeta_affine": [
    [-2.0, 0.0, 0.0, 106.0],
    [0.0, 1.8999440670013428, -0.6246698498725891, -80.49461364746094],
    [0.0, 0.6246698498725891, 1.8999440670013428, -48.329803466796875],
    [0.0, 0.0, 0.0, 1.0]
],
  "dcmmeta_reorient_transform": [
    [0.0, -1.0, 0.0, 105.0],
    [1.0, 0.0, 0.0, 0.0],
    [0.0, 0.0, 1.0, 0.0],
    [0.0, 0.0, 0.0, 1.0]
],
  "dcmmeta_shape": [106, 106, 44, 264],
  "dcmmeta_slice_dim": 2,
  "dcmmeta_version": 0.6,
  "global": {
    "const": {
      "AcquisitionMatrix": [106, 0, 0, 106],
      "AngioFlag": "N",
      "BitsAllocated": 16,
      "BitsStored": 16,
      "BodyPartExamined": "BRAIN",
      "CardiacNumberOfImages": 1,
      "Columns": 742,
      "EchoNumbers": 1,
      "EchoTime": 30.0,
      "EchoTrainLength": 80,
      "FlipAngle": 62.0,
      "HighBit": 15,
      "ImageOrientationPatient": [1.0, 0.0, 0.0, 0.0, 0.94997205164204, -0.3123349181552],
      "ImagePositionPatient": [-742.0, -723.18174301603, 215.90553680565],
      "ImageType": [
        "ORIGINAL",
        "PRIMARY",
        "M",
        "MB",
        "ND",
        "MOSAIC"
],
      "ImagedNucleus": "1H",
      "ImagingFrequency": 123.243653,
      "InPlanePhaseEncodingDirection": "COL",
      "MRAcquisitionType": "2D",
      "MagneticFieldStrength": 3.0,
      "Manufacturer": "SIEMENS",
      "ManufacturerModelName": "Prisma",
      "Modality": "MR",
      "NominalInterval": 0,
      "NumberOfAverages": 1.0,
      "NumberOfPhaseEncodingSteps": 80,
      "PercentPhaseFieldOfView": 100.0,
      "PercentSampling": 100.0,
      "PerformedProcedureStepStartTime": "115716.354000",
      "PhotometricInterpretation": "MONOCHROME2",
      "PixelBandwidth": 1815.0,
      "PixelRepresentation": 0,
      "PixelSpacing": [2.0, 2.0],
      "ProtocolName": "func-bold_task-tono_run-01",
      "RepetitionTime": 1000.0,
      "Rows": 742,
      "SAR": 0.03816289318717,
      "SamplesPerPixel": 1,
      "ScanOptions": [
        "PFP",
        "FS",
        "EXT"
],
      "ScanningSequence": "EP",
      "SequenceName": "epfid2d1_106",
      "SequenceVariant": [
        "SK",
        "SS"
],
      "SeriesDescription": "func-bold_task-tono_run-01",
      "SeriesNumber": 18,
      "SeriesTime": "130328.471000",
      "SliceLocation": -20.770684756112,
      "SliceThickness": 2.0,
      "SmallestImagePixelValue": 0,
      "SoftwareVersions": "syngo MR E11",
      "SpacingBetweenSlices": 2.0000000001448,
      "SpecificCharacterSet": "ISO_IR 100",
      "StudyID": "1",
      "StudyTime": "115716.297000",
      "TransmitCoilName": "Body",
      "VariableFlipAngleFlag": "N",
      "WindowCenterWidthExplanation": "Algo1",
      "dBdt": 0.0},
    "slices": {}
  },
  "time": {
    "samples": {
      "AcquisitionNumber": [1, 2, 3, 4, 5, 6, 7, 8, 9, 10, 11, 12, 13, 14, 15, 16, 17, 18, 19, 20, 21, 22, 23, 24, 25, 26, 27, 28, 29, 30, 31, 32, 33, 34, 35, 36, 37, 38, 39, 40, 41, 42, 43, 44, 45, 46, 47, 48, 49, 50, 51, 52, 53, 54, 55, 56, 57, 58, 59, 60, 61, 62, 63, 64, 65, 66, 67, 68, 69, 70, 71, 72, 73, 74, 75, 76, 77, 78, 79, 80, 81, 82, 83, 84, 85, 86, 87, 88, 89, 90, 91, 92, 93, 94, 95, 96, 97, 98, 99, 100, 101, 102, 103, 104, 105, 106, 107, 108, 109, 110, 111, 112, 113, 114, 115, 116, 117, 118, 119, 120, 121, 122, 123, 124, 125, 126, 127, 128, 129, 130, 131, 132, 133, 134, 135, 136, 137, 138, 139, 140, 141, 142, 143, 144, 145, 146, 147, 148, 149, 150, 151, 152, 153, 154, 155, 156, 157, 158, 159, 160, 161, 162, 163, 164, 165, 166, 167, 168, 169, 170, 171, 172, 173, 174, 175, 176, 177, 178, 179, 180, 181, 182, 183, 184, 185, 186, 187, 188, 189, 190, 191, 192, 193, 194, 195, 196, 197, 198, 199, 200, 201, 202, 203, 204, 205, 206, 207, 208, 209, 210, 211, 212, 213, 214, 215, 216, 217, 218, 219, 220, 221, 222, 223, 224, 225, 226, 227, 228, 229, 230, 231, 232, 233, 234, 235, 236, 237, 238, 239, 240, 241, 242, 243, 244, 245, 246, 247, 248, 249, 250, 251, 252, 253, 254, 255, 256, 257, 258, 259, 260, 261, 262, 263, 264],
      "AcquisitionTime": ["130308.977500", "130309.977500", "130310.977500", "130311.977500", "130312.977500", "130313.977500", "130314.977500", "130315.977500", "130316.977500", "130317.977500", "130318.977500", "130319.977500", "130320.977500", "130321.977500", "130322.977500", "130323.977500", "130324.977500", "130325.977500", "130326.977500", "130327.977500", "130328.977500", "130329.977500", "130330.977500", "130331.977500", "130332.977500", "130333.977500", "130334.977500", "130335.977500", "130336.977500", "130337.977500", "130338.977500", "130339.977500", "130340.977500", "130341.977500", "130342.977500", "130343.977500", "130344.977500", "130345.977500", "130346.977500", "130347.977500", "130348.977500", "130349.977500", "130350.977500", "130351.977500", "130352.977500", "130353.977500", "130354.977500", "130355.977500", "130356.977500", "130357.977500", "130358.977500", "130359.977500", "130400.977500", "130401.977500", "130402.977500", "130403.977500", "130404.977500", "130405.977500", "130406.977500", "130407.977500", "130408.977500", "130409.977500", "130410.977500", "130411.977500", "130412.977500", "130413.977500", "130414.977500", "130415.977500", "130416.977500", "130417.977500", "130418.977500", "130419.977500", "130420.977500", "130421.977500", "130422.977500", "130423.977500", "130424.977500", "130425.977500", "130426.977500", "130427.977500", "130428.977500", "130429.977500", "130430.977500", "130431.977500", "130432.977500", "130433.977500", "130434.977500", "130435.977500", "130436.977500", "130437.977500", "130438.977500", "130439.977500", "130440.977500", "130441.977500", "130442.977500", "130443.977500", "130444.977500", "130445.977500", "130446.977500", "130447.977500", "130448.977500", "130449.977500", "130450.977500", "130451.977500", "130452.977500", "130453.977500", "130454.977500", "130455.977500", "130456.977500", "130457.977500", "130458.977500", "130459.977500", "130500.977500", "130501.977500", "130502.977500", "130503.977500", "130504.977500", "130505.977500", "130506.977500", "130507.977500", "130508.977500", "130509.977500", "130510.977500", "130511.977500", "130512.977500", "130513.977500", "130514.977500", "130515.977500", "130516.977500", "130517.977500", "130518.977500", "130519.977500", "130520.977500", "130521.977500", "130522.977500", "130523.977500", "130524.977500", "130525.977500", "130526.977500", "130527.977500", "130528.977500", "130529.977500", "130530.977500", "130531.977500", "130532.977500", "130533.977500", "130534.977500", "130535.977500", "130536.977500", "130537.977500", "130538.977500", "130539.977500", "130540.977500", "130541.977500", "130542.977500", "130543.977500", "130544.977500", "130545.977500", "130546.977500", "130547.977500", "130548.977500", "130549.977500", "130550.977500", "130551.977500", "130552.977500", "130553.977500", "130554.977500", "130555.977500", "130556.977500", "130557.977500", "130558.977500", "130559.977500", "130600.977500", "130601.977500", "130602.977500", "130603.977500", "130604.977500", "130605.977500", "130606.977500", "130607.977500", "130608.977500", "130609.977500", "130610.977500", "130611.977500", "130612.977500", "130613.977500", "130614.977500", "130615.977500", "130616.977500", "130617.977500", "130618.977500", "130619.977500", "130620.977500", "130621.977500", "130622.977500", "130623.977500", "130624.977500", "130625.977500", "130626.977500", "130627.977500", "130628.977500", "130629.977500", "130630.977500", "130631.977500", "130632.977500", "130633.977500", "130634.977500", "130635.977500", "130636.977500", "130637.977500", "130638.977500", "130639.977500", "130640.977500", "130641.977500", "130642.977500", "130643.977500", "130644.977500", "130645.977500", "130646.977500", "130647.977500", "130648.977500", "130649.977500", "130650.977500", "130651.977500", "130652.977500", "130653.977500", "130654.977500", "130655.977500", "130656.977500", "130657.977500", "130658.977500", "130659.977500", "130700.977500", "130701.977500", "130702.977500", "130703.977500", "130704.977500", "130705.977500", "130706.977500", "130707.977500", "130708.977500", "130709.977500", "130710.977500", "130711.977500", "130712.977500", "130713.977500", "130714.977500", "130715.977500", "130716.977500", "130717.977500", "130718.977500", "130719.977500", "130720.977500", "130721.977500", "130722.977500", "130723.977500", "130724.977500", "130725.977500", "130726.977500", "130727.977500", "130728.977500", "130729.977500", "130730.977500", "130731.977500"],
      "ContentTime": ["130328.473000", "130328.476000", "130328.478000", "130328.481000", "130328.483000", "130328.486000", "130328.488000", "130328.491000", "130328.493000", "130328.495000", "130328.498000", "130328.500000", "130328.513000", "130328.516000", "130328.518000", "130328.521000", "130328.523000", "130328.526000", "130348.437000", "130348.440000", "130348.442000", "130348.445000", "130348.447000", "130348.450000", "130348.452000", "130348.455000", "130348.457000", "130348.460000", "130348.462000", "130348.464000", "130348.467000", "130348.469000", "130348.472000", "130348.474000", "130348.477000", "130348.479000", "130348.482000", "130348.484000", "130408.437000", "130408.440000", "130408.442000", "130408.445000", "130408.447000", "130408.450000", "130408.452000", "130408.462000", "130408.465000", "130408.467000", "130408.470000", "130408.472000", "130408.474000", "130408.477000", "130408.479000", "130408.482000", "130408.484000", "130408.487000", "130408.489000", "130408.498000", "130428.437000", "130428.440000", "130428.442000", "130428.445000", "130428.447000", "130428.450000", "130428.452000", "130428.455000", "130428.457000", "130428.459000", "130428.462000", "130428.465000", "130428.467000", "130428.469000", "130428.472000", "130428.474000", "130428.477000", "130428.479000", "130428.481000", "130428.484000", "130448.438000", "130448.441000", "130448.443000", "130448.446000", "130448.449000", "130448.451000", "130448.453000", "130448.456000", "130448.458000", "130448.461000", "130448.463000", "130448.465000", "130448.468000", "130448.470000", "130448.473000", "130448.475000", "130448.478000", "130448.480000", "130448.482000", "130448.485000", "130508.439000", "130508.441000", "130508.444000", "130508.446000", "130508.449000", "130508.451000", "130508.454000", "130508.459000", "130508.462000", "130508.464000", "130508.467000", "130508.469000", "130508.472000", "130508.474000", "130508.477000", "130508.479000", "130508.482000", "130508.484000", "130508.487000", "130508.489000", "130528.438000", "130528.441000", "130528.443000", "130528.446000", "130528.449000", "130528.451000", "130528.454000", "130528.456000", "130528.459000", "130528.461000", "130528.463000", "130528.466000", "130528.469000", "130528.471000", "130528.473000", "130528.476000", "130528.478000", "130528.481000", "130528.483000", "130528.486000", "130548.437000", "130548.440000", "130548.443000", "130548.445000", "130548.448000", "130548.450000", "130548.452000", "130548.455000", "130548.457000", "130548.460000", "130548.462000", "130548.465000", "130548.467000", "130548.470000", "130548.472000", "130548.475000", "130548.477000", "130548.479000", "130548.482000", "130548.484000", "130608.437000", "130608.440000", "130608.442000", "130608.445000", "130608.447000", "130608.450000", "130608.452000", "130608.455000", "130608.457000", "130608.460000", "130608.462000", "130608.465000", "130608.467000", "130608.470000", "130608.472000", "130608.475000", "130608.477000", "130608.480000", "130608.483000", "130608.485000", "130628.437000", "130628.440000", "130628.443000", "130628.445000", "130628.448000", "130628.450000", "130628.453000", "130628.455000", "130628.458000", "130628.460000", "130628.462000", "130628.465000", "130628.468000", "130628.470000", "130628.472000", "130628.475000", "130628.477000", "130628.480000", "130628.494000", "130628.496000", "130648.438000", "130648.440000", "130648.443000", "130648.445000", "130648.448000", "130648.450000", "130648.453000", "130648.455000", "130648.458000", "130648.460000", "130648.462000", "130648.465000", "130648.467000", "130648.470000", "130648.472000", "130648.475000", "130648.477000", "130648.480000", "130648.482000", "130648.485000", "130708.438000", "130708.441000", "130708.443000", "130708.446000", "130708.448000", "130708.451000", "130708.453000", "130708.456000", "130708.458000", "130708.461000", "130708.463000", "130708.466000", "130708.468000", "130708.471000", "130708.473000", "130708.475000", "130708.478000", "130708.481000", "130708.483000", "130708.485000", "130728.439000", "130728.441000", "130728.444000", "130728.446000", "130728.449000", "130728.451000", "130728.454000", "130728.456000", "130728.459000", "130728.461000", "130728.464000", "130728.466000", "130728.469000", "130728.472000", "130728.474000", "130728.476000", "130728.479000", "130728.481000", "130728.484000", "130728.486000", "130733.723000", "130733.726000", "130733.729000", "130733.731000", "130733.734000", "130733.737000"],
      "InstanceCreationTime": ["130328.473000", "130328.476000", "130328.478000", "130328.481000", "130328.483000", "130328.486000", "130328.488000", "130328.491000", "130328.493000", "130328.495000", "130328.498000", "130328.500000", "130328.513000", "130328.516000", "130328.518000", "130328.521000", "130328.523000", "130328.526000", "130348.437000", "130348.440000", "130348.442000", "130348.445000", "130348.447000", "130348.450000", "130348.452000", "130348.455000", "130348.457000", "130348.460000", "130348.462000", "130348.464000", "130348.467000", "130348.469000", "130348.472000", "130348.474000", "130348.477000", "130348.479000", "130348.482000", "130348.484000", "130408.437000", "130408.440000", "130408.442000", "130408.445000", "130408.447000", "130408.450000", "130408.452000", "130408.462000", "130408.465000", "130408.467000", "130408.470000", "130408.472000", "130408.474000", "130408.477000", "130408.479000", "130408.482000", "130408.484000", "130408.487000", "130408.489000", "130408.498000", "130428.437000", "130428.440000", "130428.442000", "130428.445000", "130428.447000", "130428.450000", "130428.452000", "130428.455000", "130428.457000", "130428.459000", "130428.462000", "130428.465000", "130428.467000", "130428.469000", "130428.472000", "130428.474000", "130428.477000", "130428.479000", "130428.481000", "130428.484000", "130448.438000", "130448.441000", "130448.443000", "130448.446000", "130448.449000", "130448.451000", "130448.453000", "130448.456000", "130448.458000", "130448.461000", "130448.463000", "130448.465000", "130448.468000", "130448.470000", "130448.473000", "130448.475000", "130448.478000", "130448.480000", "130448.482000", "130448.485000", "130508.439000", "130508.441000", "130508.444000", "130508.446000", "130508.449000", "130508.451000", "130508.454000", "130508.459000", "130508.462000", "130508.464000", "130508.467000", "130508.469000", "130508.472000", "130508.474000", "130508.477000", "130508.479000", "130508.482000", "130508.484000", "130508.487000", "130508.489000", "130528.438000", "130528.441000", "130528.443000", "130528.446000", "130528.449000", "130528.451000", "130528.454000", "130528.456000", "130528.459000", "130528.461000", "130528.463000", "130528.466000", "130528.469000", "130528.471000", "130528.473000", "130528.476000", "130528.478000", "130528.481000", "130528.483000", "130528.486000", "130548.437000", "130548.440000", "130548.443000", "130548.445000", "130548.448000", "130548.450000", "130548.452000", "130548.455000", "130548.457000", "130548.460000", "130548.462000", "130548.465000", "130548.467000", "130548.470000", "130548.472000", "130548.475000", "130548.477000", "130548.479000", "130548.482000", "130548.484000", "130608.437000", "130608.440000", "130608.442000", "130608.445000", "130608.447000", "130608.450000", "130608.452000", "130608.455000", "130608.457000", "130608.460000", "130608.462000", "130608.465000", "130608.467000", "130608.470000", "130608.472000", "130608.475000", "130608.477000", "130608.480000", "130608.483000", "130608.485000", "130628.437000", "130628.440000", "130628.443000", "130628.445000", "130628.448000", "130628.450000", "130628.453000", "130628.455000", "130628.458000", "130628.460000", "130628.462000", "130628.465000", "130628.468000", "130628.470000", "130628.472000", "130628.475000", "130628.477000", "130628.480000", "130628.494000", "130628.496000", "130648.438000", "130648.440000", "130648.443000", "130648.445000", "130648.448000", "130648.450000", "130648.453000", "130648.455000", "130648.458000", "130648.460000", "130648.462000", "130648.465000", "130648.467000", "130648.470000", "130648.472000", "130648.475000", "130648.477000", "130648.480000", "130648.482000", "130648.485000", "130708.438000", "130708.441000", "130708.443000", "130708.446000", "130708.448000", "130708.451000", "130708.453000", "130708.456000", "130708.458000", "130708.461000", "130708.463000", "130708.466000", "130708.468000", "130708.471000", "130708.473000", "130708.475000", "130708.478000", "130708.481000", "130708.483000", "130708.485000", "130728.439000", "130728.441000", "130728.444000", "130728.446000", "130728.449000", "130728.451000", "130728.454000", "130728.456000", "130728.459000", "130728.461000", "130728.464000", "130728.466000", "130728.469000", "130728.472000", "130728.474000", "130728.476000", "130728.479000", "130728.481000", "130728.484000", "130728.486000", "130733.723000", "130733.726000", "130733.729000", "130733.731000", "130733.734000", "130733.737000"],
      "InstanceNumber": [1, 2, 3, 4, 5, 6, 7, 8, 9, 10, 11, 12, 13, 14, 15, 16, 17, 18, 19, 20, 21, 22, 23, 24, 25, 26, 27, 28, 29, 30, 31, 32, 33, 34, 35, 36, 37, 38, 39, 40, 41, 42, 43, 44, 45, 46, 47, 48, 49, 50, 51, 52, 53, 54, 55, 56, 57, 58, 59, 60, 61, 62, 63, 64, 65, 66, 67, 68, 69, 70, 71, 72, 73, 74, 75, 76, 77, 78, 79, 80, 81, 82, 83, 84, 85, 86, 87, 88, 89, 90, 91, 92, 93, 94, 95, 96, 97, 98, 99, 100, 101, 102, 103, 104, 105, 106, 107, 108, 109, 110, 111, 112, 113, 114, 115, 116, 117, 118, 119, 120, 121, 122, 123, 124, 125, 126, 127, 128, 129, 130, 131, 132, 133, 134, 135, 136, 137, 138, 139, 140, 141, 142, 143, 144, 145, 146, 147, 148, 149, 150, 151, 152, 153, 154, 155, 156, 157, 158, 159, 160, 161, 162, 163, 164, 165, 166, 167, 168, 169, 170, 171, 172, 173, 174, 175, 176, 177, 178, 179, 180, 181, 182, 183, 184, 185, 186, 187, 188, 189, 190, 191, 192, 193, 194, 195, 196, 197, 198, 199, 200, 201, 202, 203, 204, 205, 206, 207, 208, 209, 210, 211, 212, 213, 214, 215, 216, 217, 218, 219, 220, 221, 222, 223, 224, 225, 226, 227, 228, 229, 230, 231, 232, 233, 234, 235, 236, 237, 238, 239, 240, 241, 242, 243, 244, 245, 246, 247, 248, 249, 250, 251, 252, 253, 254, 255, 256, 257, 258, 259, 260, 261, 262, 263, 264],
      "LargestImagePixelValue": [12264, 11647, 11603, 11409, 11540, 11475, 11374, 11465, 11648, 11541, 11548, 11433, 11475, 11407, 11401, 11262, 11438, 11489, 11466, 11504, 11479, 11486, 11525, 11556, 11431, 11407, 11586, 11481, 11579, 11508, 11468, 11597, 11516, 11553, 11557, 11506, 11550, 11650, 11649, 11493, 11525, 11558, 11561, 11506, 11530, 11567, 11585, 11557, 11556, 11490, 11449, 11520, 11512, 11492, 11510, 11474, 11476, 11456, 11459, 11478, 11477, 11483, 11591, 11459, 11535, 11584, 11583, 11471, 11503, 11489, 11545, 11542, 11537, 11502, 11525, 11479, 11537, 11461, 11486, 11425, 11468, 11428, 11504, 11536, 11539, 11465, 11537, 11512, 11401, 11573, 11392, 11455, 11536, 11497, 11373, 11460, 11520, 11375, 11479, 11457, 11490, 11419, 11533, 11473, 11463, 11562, 11533, 11439, 11451, 11498, 11438, 11454, 11440, 11406, 11460, 11481, 11509, 11577, 11506, 11447, 11583, 11470, 11506, 11537, 11566, 11462, 11597, 11506, 11516, 11473, 11404, 11466, 11447, 11393, 11337, 11523, 11419, 11418, 11517, 11482, 11379, 11462, 11432, 11395, 11400, 11380, 11371, 11311, 11461, 11406, 11423, 11484, 11369, 11342, 11418, 11438, 11413, 11416, 11354, 11298, 11401, 11545, 11300, 11376, 11477, 11351, 11259, 11476, 11319, 11490, 11325, 11317, 11437, 11411, 11375, 11398, 11367, 11339, 11419, 11381, 11320, 11394, 11463, 11489, 11358, 11487, 11443, 11310, 11496, 11399, 11433, 11441, 11388, 11414, 11496, 11299, 11301, 11451, 11336, 11291, 11391, 11355, 11340, 11494, 11353, 11372, 11398, 11339, 11308, 11459, 11340, 11428, 11387, 11407, 11345, 11401, 11339, 11376, 11374, 11345, 11411, 11335, 11303, 11422, 11322, 11336, 11472, 11327, 11379, 11332, 11521, 11498, 11422, 11260, 11436, 11364, 11228, 11510, 11248, 11361, 11406, 11402, 11444, 11503, 11384, 11589, 11432, 11394, 11516, 11373, 11478, 11462, 11378, 11495, 11541, 11457, 11680, 11501, 11585, 11479, 11541, 11531, 11548, 11571],
      "TriggerTime": [8102.5, 9102.5, 10102.5, 11102.5, 12102.5, 13102.5, 14102.5, 15102.5, 16102.5, 17102.5, 18102.5, 19102.5, 20102.5, 21102.5, 22102.5, 23102.5, 24102.5, 25102.5, 26102.5, 27102.5, 28102.5, 29102.5, 30102.5, 31102.5, 32102.5, 33102.5, 34102.5, 35102.5, 36102.5, 37102.5, 38102.5, 39102.5, 40102.5, 41102.5, 42102.5, 43102.5, 44102.5, 45102.5, 46102.5, 47102.5, 48102.5, 49102.5, 50102.5, 51102.5, 52102.5, 53102.5, 54102.5, 55102.5, 56102.5, 57102.5, 58102.5, 59102.5, 60102.5, 61102.5, 62102.5, 63102.5, 64102.5, 65102.5, 66102.5, 67102.5, 68102.5, 69102.5, 70102.5, 71102.5, 72102.5, 73102.5, 74102.5, 75102.5, 76102.5, 77102.5, 78102.5, 79102.5, 80102.5, 81102.5, 82102.5, 83102.5, 84102.5, 85102.5, 86102.5, 87102.5, 88102.5, 89102.5, 90102.5, 91102.5, 92102.5, 93102.5, 94102.5, 95102.5, 96102.5, 97102.5, 98102.5, 99102.5, 100102.5, 101102.5, 102102.5, 103102.5, 104102.5, 105102.5, 106102.5, 107102.5, 108102.5, 109102.5, 110102.5, 111102.5, 112102.5, 113102.5, 114102.5, 115102.5, 116102.5, 117102.5, 118102.5, 119102.5, 120102.5, 121102.5, 122102.5, 123102.5, 124102.5, 125102.5, 126102.5, 127102.5, 128102.5, 129102.5, 130102.5, 131102.5, 132102.5, 133102.5, 134102.5, 135102.5, 136102.5, 137102.5, 138102.5, 139102.5, 140102.5, 141102.5, 142102.5, 143102.5, 144102.5, 145102.5, 146102.5, 147102.5, 148102.5, 149102.5, 150102.5, 151102.5, 152102.5, 153102.5, 154102.5, 155102.5, 156102.5, 157102.5, 158102.5, 159102.5, 160102.5, 161102.5, 162102.5, 163102.5, 164102.5, 165102.5, 166102.5, 167102.5, 168102.5, 169102.5, 170102.5, 171102.5, 172102.5, 173102.5, 174102.5, 175102.5, 176102.5, 177102.5, 178102.5, 179102.5, 180102.5, 181102.5, 182102.5, 183102.5, 184102.5, 185102.5, 186102.5, 187102.5, 188102.5, 189102.5, 190102.5, 191102.5, 192102.5, 193102.5, 194102.5, 195102.5, 196102.5, 197102.5, 198102.5, 199102.5, 200102.5, 201102.5, 202102.5, 203102.5, 204102.5, 205102.5, 206102.5, 207102.5, 208102.5, 209102.5, 210102.5, 211102.5, 212102.5, 213102.5, 214102.5, 215102.5, 216102.5, 217102.5, 218102.5, 219102.5, 220102.5, 221102.5, 222102.5, 223102.5, 224102.5, 225102.5, 226102.5, 227102.5, 228102.5, 229102.5, 230102.5, 231102.5, 232102.5, 233102.5, 234102.5, 235102.5, 236102.5, 237102.5, 238102.5, 239102.5, 240102.5, 241102.5, 242102.5, 243102.5, 244102.5, 245102.5, 246102.5, 247102.5, 248102.5, 249102.5, 250102.5, 251102.5, 252102.5, 253102.5, 254102.5, 255102.5, 256102.5, 257102.5, 258102.5, 259102.5, 260102.5, 261102.5, 262102.5, 263102.5, 264102.5, 265102.5, 266102.5, 267102.5, 268102.5, 269102.5, 270102.5, 271102.5],
      "WindowCenter": [4739.0, 4698.0, 4679.0, 4678.0, 4666.0, 4652.0, 4639.0, 4622.0, 4621.0, 4624.0, 4623.0, 4621.0, 4634.0, 4639.0, 4648.0, 4649.0, 4661.0, 4665.0, 4665.0, 4670.0, 4668.0, 4664.0, 4669.0, 4671.0, 4669.0, 4677.0, 4685.0, 4680.0, 4696.0, 4681.0, 4692.0, 4695.0, 4682.0, 4686.0, 4681.0, 4692.0, 4691.0, 4696.0, 4692.0, 4693.0, 4692.0, 4702.0, 4681.0, 4679.0, 4688.0, 4680.0, 4665.0, 4665.0, 4664.0, 4664.0, 4664.0, 4667.0, 4664.0, 4652.0, 4653.0, 4662.0, 4650.0, 4649.0, 4649.0, 4651.0, 4652.0, 4652.0, 4650.0, 4651.0, 4649.0, 4651.0, 4655.0, 4665.0, 4665.0, 4667.0, 4667.0, 4667.0, 4664.0, 4667.0, 4666.0, 4662.0, 4663.0, 4664.0, 4665.0, 4666.0, 4667.0, 4666.0, 4679.0, 4678.0, 4676.0, 4679.0, 4678.0, 4668.0, 4679.0, 4668.0, 4665.0, 4668.0, 4665.0, 4662.0, 4665.0, 4666.0, 4664.0, 4668.0, 4666.0, 4664.0, 4653.0, 4653.0, 4661.0, 4664.0, 4663.0, 4664.0, 4666.0, 4667.0, 4662.0, 4665.0, 4662.0, 4663.0, 4669.0, 4662.0, 4663.0, 4664.0, 4668.0, 4664.0, 4665.0, 4668.0, 4665.0, 4666.0, 4665.0, 4652.0, 4662.0, 4666.0, 4668.0, 4669.0, 4666.0, 4665.0, 4663.0, 4667.0, 4653.0, 4665.0, 4654.0, 4663.0, 4654.0, 4654.0, 4661.0, 4653.0, 4665.0, 4664.0, 4665.0, 4665.0, 4665.0, 4666.0, 4665.0, 4669.0, 4665.0, 4662.0, 4663.0, 4666.0, 4655.0, 4663.0, 4669.0, 4663.0, 4664.0, 4665.0, 4655.0, 4665.0, 4665.0, 4667.0, 4655.0, 4661.0, 4651.0, 4651.0, 4654.0, 4669.0, 4667.0, 4664.0, 4654.0, 4665.0, 4666.0, 4667.0, 4663.0, 4663.0, 4666.0, 4654.0, 4665.0, 4662.0, 4653.0, 4654.0, 4663.0, 4675.0, 4677.0, 4688.0, 4678.0, 4654.0, 4660.0, 4649.0, 4650.0, 4652.0, 4652.0, 4661.0, 4652.0, 4654.0, 4668.0, 4677.0, 4668.0, 4664.0, 4662.0, 4656.0, 4663.0, 4661.0, 4652.0, 4665.0, 4662.0, 4652.0, 4652.0, 4650.0, 4651.0, 4652.0, 4649.0, 4654.0, 4650.0, 4650.0, 4650.0, 4662.0, 4651.0, 4650.0, 4661.0, 4651.0, 4650.0, 4654.0, 4653.0, 4651.0, 4650.0, 4652.0, 4661.0, 4654.0, 4664.0, 4662.0, 4662.0, 4652.0, 4665.0, 4664.0, 4668.0, 4674.0, 4664.0, 4667.0, 4665.0, 4660.0, 4661.0, 4662.0, 4662.0, 4663.0, 4664.0, 4667.0, 4675.0, 4665.0, 4663.0, 4662.0, 4662.0, 4662.0, 4660.0, 4662.0, 4659.0, 4662.0, 4650.0, 4649.0, 4651.0, 4651.0, 4652.0, 4659.0],
