{
  "AcquisitionMatrixPE": 106,
  "AcquisitionNumber": 1,
  "AcquisitionTime": "12:44:50.195000",
  "BandwidthPerPixelPhaseEncode": 16.846,
  "BaseResolution": 106,
  "BodyPartExamined": "BRAIN",
  "CoilCombinationMethod": "Sum of Squares",
  "ConsistencyInfo": "N4_VE11C_LATEST_20160120",
  "ConversionSoftware": "dcm2niix",
  "ConversionSoftwareVersion": "v1.0.20220720",
  "DerivedVendorReportedEchoSpacing": 0.000560012,
  "DeviceSerialNumber": "166108",
  "DwellTime": 1.8e-06,
  "EchoTime": 0.0352,
  "EchoTrainLength": 106,
  "EffectiveEchoSpacing": 0.000560012,
  "FlipAngle": 60,
  "HeudiconvVersion": "1.3.0",
  "ImageComments": "Unaliased MB4/PE3/LB",
  "ImageOrientationPatientDICOM": [1, 0, 0, 0, 0.955793, -0.29404],
  "ImageOrientationText": "Tra>Cor(-17.1)",
  "ImageType": [
    "ORIGINAL",
    "PRIMARY",
    "M",
    "MB",
    "ND",
    "MOSAIC"
],
  "ImagingFrequency": 123.244,
  "InPlanePhaseEncodingDirectionDICOM": "COL",
  "InstitutionAddress": "Bedford Way 26,London,London,GB,WC1H 0AP",
  "InstitutionName": "University College",
  "InstitutionalDepartmentName": "Department",
  "MRAcquisitionType": "2D",
  "MagneticFieldStrength": 3,
  "Manufacturer": "Siemens",
  "ManufacturersModelName": "Prisma",
  "MatrixCoilMode": "SENSE",
  "Modality": "MR",
  "MultibandAccelerationFactor": 4,
  "NonlinearGradientCorrection": false,
  "PartialFourier": 1,
  "PatientPosition": "HFS",
  "PercentPhaseFOV": 100,
  "PercentSampling": 100,
  "PhaseEncodingDirection": "j-",
  "PhaseEncodingSteps": 106,
  "PhaseResolution": 1,
  "PixelBandwidth": 2620,
  "ProcedureStepDescription": "Egor^MovieProject2",
  "ProtocolName": "func-bold_task-pRF_run-02",
  "PulseSequenceDetails": "%CustomerSeq%\\cmrr_mbep2d_bold",
  "ReceiveCoilActiveElements": "HEA;HEP",
  "ReceiveCoilName": "Head_32",
  "ReconMatrixPE": 106,
  "RepetitionTime": 1,
  "SAR": 0.0685901,
  "ScanOptions": "FS\\EXT",
  "ScanningSequence": "EP",
  "SequenceName": "epfid2d1_106",
  "SequenceVariant": "SK\\SS",
  "SeriesDescription": "func-bold_task-pRF_run-02",
  "SeriesNumber": 12,
  "ShimSetting": [-1506, 626, 7423, 275, -80, 316, 276, -91],
  "SliceThickness": 2,
  "SliceTiming": [0, 0.4075, 0.815, 0.245, 0.6525, 0.08, 0.49, 0.8975, 0.325, 0.735, 0.1625, 0.57, 0, 0.4075, 0.815, 0.245, 0.6525, 0.08, 0.49, 0.8975, 0.325, 0.735, 0.1625, 0.57, 0, 0.4075, 0.815, 0.245, 0.6525, 0.08, 0.49, 0.8975, 0.325, 0.735, 0.1625, 0.57, 0, 0.4075, 0.815, 0.245, 0.6525, 0.08, 0.49, 0.8975, 0.325, 0.735, 0.1625, 0.57],
  "SoftwareVersions": "syngo MR E11",
  "SpacingBetweenSlices": 2,
  "StationName": "AWP166108",
  "TaskName": "retinotopy",
  "TotalReadoutTime": 0.0588013,
  "TxRefAmp": 221.21,
  "WipMemBlock": "6a030e87-8597-4c81-b367-4ef5764bfee5||Sequence: R016 ve11c/master r/e634e98; Dec 19 2017 11:00:25 by eja",
  "dcmmeta_affine": [
    [-2.0, 0.0, 0.0, 106.0],
    [0.0, 1.911586046218872, -0.588080644607544, -87.43318176269531],
    [0.0, 0.588080644607544, 1.911586046218872, -39.724151611328125],
    [0.0, 0.0, 0.0, 1.0]
],
  "dcmmeta_reorient_transform": [
    [0.0, -1.0, 0.0, 105.0],
    [1.0, 0.0, 0.0, 0.0],
    [0.0, 0.0, 1.0, 0.0],
    [0.0, 0.0, 0.0, 1.0]
],
  "dcmmeta_shape": [106, 106, 48, 356],
  "dcmmeta_slice_dim": 2,
  "dcmmeta_version": 0.6,
  "global": {
    "const": {
      "AcquisitionMatrix": [106, 0, 0, 106],
      "AngioFlag": "N",
      "BitsAllocated": 16,
      "BitsStored": 16,
      "BodyPartExamined": "BRAIN",
      "CardiacNumberOfImages": 1,
      "Columns": 742,
      "EchoNumbers": 1,
      "EchoTime": 35.2,
      "EchoTrainLength": 106,
      "FlipAngle": 60.0,
      "HighBit": 15,
      "ImageOrientationPatient": [1.0, 0.0, 0.0, 0.0, 0.95579301476915, -0.2940403253272],
      "ImagePositionPatient": [-742.0, -721.1677095994, 209.03396330101],
      "ImageType": [
        "ORIGINAL",
        "PRIMARY",
        "M",
        "MB",
        "ND",
        "MOSAIC"
],
      "ImagedNucleus": "1H",
      "ImagingFrequency": 123.243652,
      "InPlanePhaseEncodingDirection": "COL",
      "MRAcquisitionType": "2D",
      "MagneticFieldStrength": 3.0,
      "Manufacturer": "SIEMENS",
      "ManufacturerModelName": "Prisma",
      "Modality": "MR",
      "NominalInterval": 0,
      "NumberOfAverages": 1.0,
      "NumberOfPhaseEncodingSteps": 106,
      "PercentPhaseFieldOfView": 100.0,
      "PercentSampling": 100.0,
      "PerformedProcedureStepStartTime": "115716.354000",
      "PhotometricInterpretation": "MONOCHROME2",
      "PixelBandwidth": 2620.0,
      "PixelRepresentation": 0,
      "PixelSpacing": [2.0, 2.0],
      "ProtocolName": "func-bold_task-pRF_run-02",
      "RepetitionTime": 1000.0,
      "Rows": 742,
      "SAR": 0.06859006287097,
      "SamplesPerPixel": 1,
      "ScanOptions": [
        "FS",
        "EXT"
],
      "ScanningSequence": "EP",
      "SequenceName": "epfid2d1_106",
      "SequenceVariant": [
        "SK",
        "SS"
],
      "SeriesDescription": "func-bold_task-pRF_run-02",
      "SeriesNumber": 12,
      "SeriesTime": "124528.502000",
      "SliceLocation": -12.259185973426,
      "SliceThickness": 2.0,
      "SmallestImagePixelValue": 0,
      "SoftwareVersions": "syngo MR E11",
      "SpacingBetweenSlices": 1.9999999817174,
      "SpecificCharacterSet": "ISO_IR 100",
      "StudyID": "1",
      "StudyTime": "115716.297000",
      "TransmitCoilName": "Body",
      "VariableFlipAngleFlag": "N",
      "WindowCenterWidthExplanation": "Algo1",
      "dBdt": 0.0},
    "slices": {}
  },
  "time": {
    "samples": {
      "AcquisitionNumber": [1, 2, 3, 4, 5, 6, 7, 8, 9, 10, 11, 12, 13, 14, 15, 16, 17, 18, 19, 20, 21, 22, 23, 24, 25, 26, 27, 28, 29, 30, 31, 32, 33, 34, 35, 36, 37, 38, 39, 40, 41, 42, 43, 44, 45, 46, 47, 48, 49, 50, 51, 52, 53, 54, 55, 56, 57, 58, 59, 60, 61, 62, 63, 64, 65, 66, 67, 68, 69, 70, 71, 72, 73, 74, 75, 76, 77, 78, 79, 80, 81, 82, 83, 84, 85, 86, 87, 88, 89, 90, 91, 92, 93, 94, 95, 96, 97, 98, 99, 100, 101, 102, 103, 104, 105, 106, 107, 108, 109, 110, 111, 112, 113, 114, 115, 116, 117, 118, 119, 120, 121, 122, 123, 124, 125, 126, 127, 128, 129, 130, 131, 132, 133, 134, 135, 136, 137, 138, 139, 140, 141, 142, 143, 144, 145, 146, 147, 148, 149, 150, 151, 152, 153, 154, 155, 156, 157, 158, 159, 160, 161, 162, 163, 164, 165, 166, 167, 168, 169, 170, 171, 172, 173, 174, 175, 176, 177, 178, 179, 180, 181, 182, 183, 184, 185, 186, 187, 188, 189, 190, 191, 192, 193, 194, 195, 196, 197, 198, 199, 200, 201, 202, 203, 204, 205, 206, 207, 208, 209, 210, 211, 212, 213, 214, 215, 216, 217, 218, 219, 220, 221, 222, 223, 224, 225, 226, 227, 228, 229, 230, 231, 232, 233, 234, 235, 236, 237, 238, 239, 240, 241, 242, 243, 244, 245, 246, 247, 248, 249, 250, 251, 252, 253, 254, 255, 256, 257, 258, 259, 260, 261, 262, 263, 264, 265, 266, 267, 268, 269, 270, 271, 272, 273, 274, 275, 276, 277, 278, 279, 280, 281, 282, 283, 284, 285, 286, 287, 288, 289, 290, 291, 292, 293, 294, 295, 296, 297, 298, 299, 300, 301, 302, 303, 304, 305, 306, 307, 308, 309, 310, 311, 312, 313, 314, 315, 316, 317, 318, 319, 320, 321, 322, 323, 324, 325, 326, 327, 328, 329, 330, 331, 332, 333, 334, 335, 336, 337, 338, 339, 340, 341, 342, 343, 344, 345, 346, 347, 348, 349, 350, 351, 352, 353, 354, 355, 356],
      "AcquisitionTime": ["124450.195000", "124451.195000", "124452.195000", "124453.195000", "124454.195000", "124455.195000", "124456.195000", "124457.195000", "124458.195000", "124459.195000", "124500.195000", "124501.195000", "124502.195000", "124503.195000", "124504.195000", "124505.195000", "124506.195000", "124507.195000", "124508.195000", "124509.195000", "124510.195000", "124511.195000", "124512.195000", "124513.195000", "124514.195000", "124515.195000", "124516.195000", "124517.195000", "124518.195000", "124519.195000", "124520.195000", "124521.195000", "124522.195000", "124523.195000", "124524.195000", "124525.195000", "124526.195000", "124527.195000", "124528.195000", "124529.195000", "124530.195000", "124531.195000", "124532.195000", "124533.195000", "124534.195000", "124535.195000", "124536.195000", "124537.195000", "124538.195000", "124539.195000", "124540.195000", "124541.195000", "124542.195000", "124543.195000", "124544.195000", "124545.195000", "124546.195000", "124547.195000", "124548.195000", "124549.195000", "124550.195000", "124551.195000", "124552.195000", "124553.195000", "124554.195000", "124555.195000", "124556.195000", "124557.195000", "124558.195000", "124559.195000", "124600.195000", "124601.195000", "124602.195000", "124603.195000", "124604.195000", "124605.195000", "124606.195000", "124607.195000", "124608.195000", "124609.195000", "124610.195000", "124611.195000", "124612.195000", "124613.195000", "124614.195000", "124615.195000", "124616.195000", "124617.195000", "124618.195000", "124619.195000", "124620.195000", "124621.195000", "124622.195000", "124623.195000", "124624.195000", "124625.195000", "124626.195000", "124627.195000", "124628.195000", "124629.195000", "124630.195000", "124631.195000", "124632.195000", "124633.195000", "124634.195000", "124635.195000", "124636.195000", "124637.195000", "124638.195000", "124639.195000", "124640.195000", "124641.195000", "124642.195000", "124643.195000", "124644.195000", "124645.195000", "124646.195000", "124647.195000", "124648.195000", "124649.195000", "124650.195000", "124651.195000", "124652.195000", "124653.195000", "124654.195000", "124655.195000", "124656.195000", "124657.195000", "124658.195000", "124659.195000", "124700.195000", "124701.195000", "124702.195000", "124703.195000", "124704.195000", "124705.195000", "124706.195000", "124707.195000", "124708.195000", "124709.195000", "124710.195000", "124711.195000", "124712.195000", "124713.195000", "124714.195000", "124715.195000", "124716.195000", "124717.195000", "124718.195000", "124719.195000", "124720.195000", "124721.195000", "124722.195000", "124723.195000", "124724.195000", "124725.195000", "124726.195000", "124727.195000", "124728.195000", "124729.195000", "124730.195000", "124731.195000", "124732.195000", "124733.195000", "124734.195000", "124735.195000", "124736.195000", "124737.195000", "124738.195000", "124739.195000", "124740.195000", "124741.195000", "124742.195000", "124743.195000", "124744.195000", "124745.195000", "124746.195000", "124747.195000", "124748.195000", "124749.195000", "124750.195000", "124751.195000", "124752.195000", "124753.195000", "124754.195000", "124755.195000", "124756.195000", "124757.195000", "124758.195000", "124759.195000", "124800.195000", "124801.195000", "124802.195000", "124803.195000", "124804.195000", "124805.195000", "124806.195000", "124807.195000", "124808.195000", "124809.195000", "124810.195000", "124811.195000", "124812.195000", "124813.195000", "124814.195000", "124815.195000", "124816.195000", "124817.195000", "124818.195000", "124819.195000", "124820.195000", "124821.195000", "124822.195000", "124823.195000", "124824.195000", "124825.195000", "124826.195000", "124827.195000", "124828.195000", "124829.195000", "124830.195000", "124831.195000", "124832.195000", "124833.195000", "124834.195000", "124835.195000", "124836.195000", "124837.195000", "124838.195000", "124839.195000", "124840.195000", "124841.195000", "124842.195000", "124843.195000", "124844.195000", "124845.195000", "124846.195000", "124847.195000", "124848.195000", "124849.195000", "124850.195000", "124851.195000", "124852.195000", "124853.195000", "124854.195000", "124855.195000", "124856.195000", "124857.195000", "124858.195000", "124859.195000", "124900.195000", "124901.195000", "124902.195000", "124903.195000", "124904.195000", "124905.195000", "124906.195000", "124907.195000", "124908.195000", "124909.195000", "124910.195000", "124911.195000", "124912.195000", "124913.195000", "124914.195000", "124915.195000", "124916.195000", "124917.195000", "124918.195000", "124919.195000", "124920.195000", "124921.195000", "124922.195000", "124923.195000", "124924.195000", "124925.195000", "124926.195000", "124927.195000", "124928.195000", "124929.195000", "124930.195000", "124931.195000", "124932.195000", "124933.195000", "124934.195000", "124935.195000", "124936.195000", "124937.195000", "124938.195000", "124939.195000", "124940.195000", "124941.195000", "124942.195000", "124943.195000", "124944.195000", "124945.195000", "124946.195000", "124947.195000", "124948.195000", "124949.195000", "124950.195000", "124951.195000", "124952.195000", "124953.195000", "124954.195000", "124955.195000", "124956.195000", "124957.195000", "124958.195000", "124959.195000", "125000.195000", "125001.195000", "125002.195000", "125003.195000", "125004.195000", "125005.195000", "125006.195000", "125007.195000", "125008.195000", "125009.195000", "125010.195000", "125011.195000", "125012.195000", "125013.195000", "125014.195000", "125015.195000", "125016.195000", "125017.195000", "125018.195000", "125019.195000", "125020.195000", "125021.195000", "125022.195000", "125023.195000", "125024.195000", "125025.195000", "125026.195000", "125027.195000", "125028.195000", "125029.195000", "125030.195000", "125031.195000", "125032.195000", "125033.195000", "125034.195000", "125035.195000", "125036.195000", "125037.195000", "125038.195000", "125039.195000", "125040.195000", "125041.195000", "125042.195000", "125043.195000", "125044.195000", "125045.195000"],
      "ContentTime": ["124528.505000", "124528.508000", "124528.510000", "124528.513000", "124528.515000", "124528.517000", "124528.520000", "124528.523000", "124528.525000", "124528.528000", "124528.530000", "124528.533000", "124528.535000", "124528.537000", "124528.540000", "124528.543000", "124528.545000", "124528.548000", "124528.550000", "124528.553000", "124528.555000", "124528.558000", "124528.560000", "124528.563000", "124528.565000", "124528.567000", "124528.579000", "124528.582000", "124528.584000", "124528.587000", "124528.589000", "124528.592000", "124528.594000", "124528.597000", "124528.599000", "124528.602000", "124528.604000", "124548.437000", "124548.440000", "124548.443000", "124548.445000", "124548.448000", "124548.450000", "124548.453000", "124548.455000", "124548.458000", "124548.460000", "124548.463000", "124548.465000", "124548.468000", "124548.470000", "124548.473000", "124548.475000", "124548.477000", "124548.480000", "124548.482000", "124548.492000", "124608.438000", "124608.441000", "124608.444000", "124608.446000", "124608.448000", "124608.451000", "124608.453000", "124608.456000", "124608.458000", "124608.461000", "124608.463000", "124608.466000", "124608.468000", "124608.471000", "124608.473000", "124608.475000", "124608.478000", "124608.480000", "124608.483000", "124608.485000", "124628.438000", "124628.441000", "124628.444000", "124628.446000", "124628.457000", "124628.459000", "124628.462000", "124628.464000", "124628.466000", "124628.469000", "124628.471000", "124628.474000", "124628.476000", "124628.479000", "124628.481000", "124628.484000", "124628.498000", "124628.501000", "124628.503000", "124628.506000", "124648.438000", "124648.441000", "124648.444000", "124648.446000", "124648.449000", "124648.451000", "124648.454000", "124648.456000", "124648.459000", "124648.461000", "124648.464000", "124648.466000", "124648.469000", "124648.471000", "124648.474000", "124648.476000", "124648.479000", "124648.481000", "124648.484000", "124648.486000", "124708.438000", "124708.441000", "124708.443000", "124708.446000", "124708.448000", "124708.451000", "124708.453000", "124708.456000", "124708.458000", "124708.461000", "124708.463000", "124708.466000", "124708.468000", "124708.471000", "124708.473000", "124708.476000", "124708.478000", "124708.481000", "124708.483000", "124708.486000", "124728.437000", "124728.440000", "124728.443000", "124728.445000", "124728.447000", "124728.450000", "124728.452000", "124728.455000", "124728.458000", "124728.460000", "124728.463000", "124728.465000", "124728.467000", "124728.470000", "124728.472000", "124728.475000", "124728.477000", "124728.480000", "124728.482000", "124728.485000", "124748.437000", "124748.440000", "124748.443000", "124748.445000", "124748.448000", "124748.450000", "124748.453000", "124748.455000", "124748.457000", "124748.460000", "124748.463000", "124748.465000", "124748.467000", "124748.470000", "124748.473000", "124748.475000", "124748.477000", "124748.480000", "124748.482000", "124748.485000", "124808.438000", "124808.440000", "124808.443000", "124808.445000", "124808.448000", "124808.450000", "124808.453000", "124808.455000", "124808.458000", "124808.461000", "124808.463000", "124808.466000", "124808.468000", "124808.471000", "124808.473000", "124808.476000", "124808.478000", "124808.481000", "124808.483000", "124808.486000", "124828.438000", "124828.441000", "124828.444000", "124828.446000", "124828.449000", "124828.451000", "124828.454000", "124828.456000", "124828.458000", "124828.461000", "124828.463000", "124828.466000", "124828.468000", "124828.471000", "124828.473000", "124828.476000", "124828.478000", "124828.481000", "124828.484000", "124828.486000", "124848.439000", "124848.442000", "124848.444000", "124848.447000", "124848.449000", "124848.452000", "124848.454000", "124848.457000", "124848.459000", "124848.462000", "124848.464000", "124848.467000", "124848.469000", "124848.472000", "124848.474000", "124848.476000", "124848.479000", "124848.482000", "124848.484000", "124848.486000", "124908.438000", "124908.441000", "124908.444000", "124908.446000", "124908.449000", "124908.451000", "124908.454000", "124908.456000", "124908.459000", "124908.461000", "124908.463000", "124908.466000", "124908.468000", "124908.471000", "124908.473000", "124908.476000", "124908.478000", "124908.481000", "124908.483000", "124908.486000", "124928.438000", "124928.441000", "124928.444000", "124928.446000", "124928.449000", "124928.451000", "124928.454000", "124928.456000", "124928.459000", "124928.461000", "124928.464000", "124928.466000", "124928.469000", "124928.471000", "124928.474000", "124928.476000", "124928.479000", "124928.481000", "124928.484000", "124928.486000", "124948.438000", "124948.440000", "124948.443000", "124948.445000", "124948.448000", "124948.450000", "124948.453000", "124948.455000", "124948.458000", "124948.460000", "124948.463000", "124948.465000", "124948.468000", "124948.470000", "124948.473000", "124948.475000", "124948.478000", "124948.480000", "124948.482000", "124948.485000", "125008.437000", "125008.440000", "125008.443000", "125008.445000", "125008.448000", "125008.450000", "125008.453000", "125008.455000", "125008.458000", "125008.460000", "125008.463000", "125008.465000", "125008.467000", "125008.470000", "125008.472000", "125008.475000", "125008.491000", "125008.493000", "125008.496000", "125008.498000", "125028.438000", "125028.440000", "125028.443000", "125028.445000", "125028.448000", "125028.450000", "125028.453000", "125028.455000", "125028.458000", "125028.460000", "125028.463000", "125028.465000", "125028.468000", "125028.470000", "125028.473000", "125028.475000", "125028.478000", "125028.480000", "125028.483000", "125028.485000", "125047.016000", "125047.019000", "125047.021000", "125047.024000", "125047.026000", "125047.029000", "125047.031000", "125047.034000", "125047.036000", "125047.039000", "125047.041000", "125047.044000", "125047.046000", "125047.049000", "125047.051000", "125047.054000", "125047.056000", "125047.059000", "125047.061000"],
      "InstanceCreationTime": ["124528.505000", "124528.508000", "124528.510000", "124528.513000", "124528.515000", "124528.517000", "124528.520000", "124528.523000", "124528.525000", "124528.528000", "124528.530000", "124528.533000", "124528.535000", "124528.537000", "124528.540000", "124528.543000", "124528.545000", "124528.548000", "124528.550000", "124528.553000", "124528.555000", "124528.558000", "124528.560000", "124528.563000", "124528.565000", "124528.567000", "124528.579000", "124528.582000", "124528.584000", "124528.587000", "124528.589000", "124528.592000", "124528.594000", "124528.597000", "124528.599000", "124528.602000", "124528.604000", "124548.437000", "124548.440000", "124548.443000", "124548.445000", "124548.448000", "124548.450000", "124548.453000", "124548.455000", "124548.458000", "124548.460000", "124548.463000", "124548.465000", "124548.468000", "124548.470000", "124548.473000", "124548.475000", "124548.477000", "124548.480000", "124548.482000", "124548.492000", "124608.438000", "124608.441000", "124608.444000", "124608.446000", "124608.448000", "124608.451000", "124608.453000", "124608.456000", "124608.458000", "124608.461000", "124608.463000", "124608.466000", "124608.468000", "124608.471000", "124608.473000", "124608.475000", "124608.478000", "124608.480000", "124608.483000", "124608.485000", "124628.438000", "124628.441000", "124628.444000", "124628.446000", "124628.457000", "124628.459000", "124628.462000", "124628.464000", "124628.466000", "124628.469000", "124628.471000", "124628.474000", "124628.476000", "124628.479000", "124628.481000", "124628.484000", "124628.498000", "124628.501000", "124628.503000", "124628.506000", "124648.438000", "124648.441000", "124648.444000", "124648.446000", "124648.449000", "124648.451000", "124648.454000", "124648.456000", "124648.459000", "124648.461000", "124648.464000", "124648.466000", "124648.469000", "124648.471000", "124648.474000", "124648.476000", "124648.479000", "124648.481000", "124648.484000", "124648.486000", "124708.438000", "124708.441000", "124708.443000", "124708.446000", "124708.448000", "124708.451000", "124708.453000", "124708.456000", "124708.458000", "124708.461000", "124708.463000", "124708.466000", "124708.468000", "124708.471000", "124708.473000", "124708.476000", "124708.478000", "124708.481000", "124708.483000", "124708.486000", "124728.437000", "124728.440000", "124728.443000", "124728.445000", "124728.447000", "124728.450000", "124728.452000", "124728.455000", "124728.458000", "124728.460000", "124728.463000", "124728.465000", "124728.467000", "124728.470000", "124728.472000", "124728.475000", "124728.477000", "124728.480000", "124728.482000", "124728.485000", "124748.437000", "124748.440000", "124748.443000", "124748.445000", "124748.448000", "124748.450000", "124748.453000", "124748.455000", "124748.457000", "124748.460000", "124748.463000", "124748.465000", "124748.467000", "124748.470000", "124748.473000", "124748.475000", "124748.477000", "124748.480000", "124748.482000", "124748.485000", "124808.438000", "124808.440000", "124808.443000", "124808.445000", "124808.448000", "124808.450000", "124808.453000", "124808.455000", "124808.458000", "124808.461000", "124808.463000", "124808.466000", "124808.468000", "124808.471000", "124808.473000", "124808.476000", "124808.478000", "124808.481000", "124808.483000", "124808.486000", "124828.438000", "124828.441000", "124828.444000", "124828.446000", "124828.449000", "124828.451000", "124828.454000", "124828.456000", "124828.458000", "124828.461000", "124828.463000", "124828.466000", "124828.468000", "124828.471000", "124828.473000", "124828.476000", "124828.478000", "124828.481000", "124828.484000", "124828.486000", "124848.439000", "124848.442000", "124848.444000", "124848.447000", "124848.449000", "124848.452000", "124848.454000", "124848.457000", "124848.459000", "124848.462000", "124848.464000", "124848.467000", "124848.469000", "124848.472000", "124848.474000", "124848.476000", "124848.479000", "124848.482000", "124848.484000", "124848.486000", "124908.438000", "124908.441000", "124908.444000", "124908.446000", "124908.449000", "124908.451000", "124908.454000", "124908.456000", "124908.459000", "124908.461000", "124908.463000", "124908.466000", "124908.468000", "124908.471000", "124908.473000", "124908.476000", "124908.478000", "124908.481000", "124908.483000", "124908.486000", "124928.438000", "124928.441000", "124928.444000", "124928.446000", "124928.449000", "124928.451000", "124928.454000", "124928.456000", "124928.459000", "124928.461000", "124928.464000", "124928.466000", "124928.469000", "124928.471000", "124928.474000", "124928.476000", "124928.479000", "124928.481000", "124928.484000", "124928.486000", "124948.438000", "124948.440000", "124948.443000", "124948.445000", "124948.448000", "124948.450000", "124948.453000", "124948.455000", "124948.458000", "124948.460000", "124948.463000", "124948.465000", "124948.468000", "124948.470000", "124948.473000", "124948.475000", "124948.478000", "124948.480000", "124948.482000", "124948.485000", "125008.437000", "125008.440000", "125008.443000", "125008.445000", "125008.448000", "125008.450000", "125008.453000", "125008.455000", "125008.458000", "125008.460000", "125008.463000", "125008.465000", "125008.467000", "125008.470000", "125008.472000", "125008.475000", "125008.491000", "125008.493000", "125008.496000", "125008.498000", "125028.438000", "125028.440000", "125028.443000", "125028.445000", "125028.448000", "125028.450000", "125028.453000", "125028.455000", "125028.458000", "125028.460000", "125028.463000", "125028.465000", "125028.468000", "125028.470000", "125028.473000", "125028.475000", "125028.478000", "125028.480000", "125028.483000", "125028.485000", "125047.016000", "125047.019000", "125047.021000", "125047.024000", "125047.026000", "125047.029000", "125047.031000", "125047.034000", "125047.036000", "125047.039000", "125047.041000", "125047.044000", "125047.046000", "125047.049000", "125047.051000", "125047.054000", "125047.056000", "125047.059000", "125047.061000"],
      "InstanceNumber": [1, 2, 3, 4, 5, 6, 7, 8, 9, 10, 11, 12, 13, 14, 15, 16, 17, 18, 19, 20, 21, 22, 23, 24, 25, 26, 27, 28, 29, 30, 31, 32, 33, 34, 35, 36, 37, 38, 39, 40, 41, 42, 43, 44, 45, 46, 47, 48, 49, 50, 51, 52, 53, 54, 55, 56, 57, 58, 59, 60, 61, 62, 63, 64, 65, 66, 67, 68, 69, 70, 71, 72, 73, 74, 75, 76, 77, 78, 79, 80, 81, 82, 83, 84, 85, 86, 87, 88, 89, 90, 91, 92, 93, 94, 95, 96, 97, 98, 99, 100, 101, 102, 103, 104, 105, 106, 107, 108, 109, 110, 111, 112, 113, 114, 115, 116, 117, 118, 119, 120, 121, 122, 123, 124, 125, 126, 127, 128, 129, 130, 131, 132, 133, 134, 135, 136, 137, 138, 139, 140, 141, 142, 143, 144, 145, 146, 147, 148, 149, 150, 151, 152, 153, 154, 155, 156, 157, 158, 159, 160, 161, 162, 163, 164, 165, 166, 167, 168, 169, 170, 171, 172, 173, 174, 175, 176, 177, 178, 179, 180, 181, 182, 183, 184, 185, 186, 187, 188, 189, 190, 191, 192, 193, 194, 195, 196, 197, 198, 199, 200, 201, 202, 203, 204, 205, 206, 207, 208, 209, 210, 211, 212, 213, 214, 215, 216, 217, 218, 219, 220, 221, 222, 223, 224, 225, 226, 227, 228, 229, 230, 231, 232, 233, 234, 235, 236, 237, 238, 239, 240, 241, 242, 243, 244, 245, 246, 247, 248, 249, 250, 251, 252, 253, 254, 255, 256, 257, 258, 259, 260, 261, 262, 263, 264, 265, 266, 267, 268, 269, 270, 271, 272, 273, 274, 275, 276, 277, 278, 279, 280, 281, 282, 283, 284, 285, 286, 287, 288, 289, 290, 291, 292, 293, 294, 295, 296, 297, 298, 299, 300, 301, 302, 303, 304, 305, 306, 307, 308, 309, 310, 311, 312, 313, 314, 315, 316, 317, 318, 319, 320, 321, 322, 323, 324, 325, 326, 327, 328, 329, 330, 331, 332, 333, 334, 335, 336, 337, 338, 339, 340, 341, 342, 343, 344, 345, 346, 347, 348, 349, 350, 351, 352, 353, 354, 355, 356],
      "LargestImagePixelValue": [11866, 11432, 11367, 11231, 11198, 11252, 10950, 10974, 11174, 11142, 11243, 11080, 11252, 11208, 11117, 11180, 11065, 11177, 11192, 11200, 11079, 11181, 11139, 11118, 11076, 11004, 11051, 11285, 11231, 11190, 11138, 11067, 11107, 11208, 11187, 11296, 11177, 11132, 11104, 11174, 11086, 11129, 11201, 10966, 11116, 11135, 11086, 11041, 11207, 11111, 11192, 11154, 11135, 11101, 11152, 11115, 11138, 11196, 11104, 11233, 11163, 11199, 11162, 11043, 11118, 11200, 11025, 11044, 11160, 11287, 11210, 11308, 11091, 11040, 11239, 11245, 11137, 11100, 11122, 11347, 11118, 11212, 11142, 11105, 11159, 11053, 11230, 11197, 11024, 11058, 11116, 11201, 11049, 11118, 11040, 11079, 11079, 11222, 11088, 11067, 11114, 11075, 11234, 11008, 11178, 11284, 11140, 11240, 11167, 11271, 11186, 11217, 11091, 11056, 11079, 11153, 11238, 11328, 11194, 11061, 11128, 11015, 11134, 11398, 11428, 10992, 11159, 11255, 11141, 11373, 11267, 11308, 11333, 11301, 11146, 11208, 11264, 11237, 11196, 11328, 11198, 11241, 11152, 11163, 11244, 11236, 11232, 11152, 11285, 11248, 11194, 11215, 11250, 11216, 11218, 11263, 11224, 11277, 11137, 11203, 11148, 11234, 11151, 11205, 11151, 11102, 11212, 11187, 11233, 11233, 11271, 11160, 11180, 11223, 11294, 11268, 11220, 11208, 11375, 11269, 11290, 11279, 11314, 11440, 11447, 11236, 11224, 11266, 11127, 11335, 11222, 11243, 11187, 11342, 11130, 11216, 11126, 11291, 11148, 11230, 10983, 11271, 11195, 11242, 11272, 11179, 11098, 11164, 11004, 11175, 11100, 11114, 11052, 11403, 11135, 11138, 11124, 11208, 11122, 11209, 11103, 11068, 11122, 11154, 11028, 11013, 11227, 11125, 11055, 11041, 11067, 11075, 11178, 11197, 11204, 10975, 11136, 11045, 11047, 11324, 11148, 11070, 11030, 10976, 11046, 11043, 10908, 11100, 11032, 10985, 10969, 11137, 10984, 11026, 11194, 11093, 11054, 11078, 11139, 11033, 11111, 10951, 11056, 11082, 11067, 11356, 11117, 11054, 11365, 11473, 11251, 11308, 11169, 11110, 11284, 11313, 11263, 11380, 11450, 11529, 11261, 11545, 11437, 11393, 11393, 11567, 11623, 11444, 11482, 11454, 11515, 11528, 11468, 11591, 11726, 11627, 11586, 11657, 11525, 11469, 11580, 11560, 11559, 11486, 11449, 11459, 11506, 11451, 11500, 11521, 11393, 11458, 11440, 11567, 11523, 11445, 11539, 11506, 11374, 11389, 11359, 11450, 11421, 11322, 11331, 11359, 11324, 11499, 11196, 11254, 11288, 11398, 11238, 11282, 11333, 11290, 11346, 11396, 11368, 11167, 11311, 11255, 11442, 11406, 11395, 11519, 11476, 11376, 11526, 11526, 11433, 11668, 11559, 11623, 11531, 11601],
