{
  "AcquisitionMatrixPE": 106,
  "AcquisitionNumber": 1,
  "AcquisitionTime": "12:15:56.555000",
  "BandwidthPerPixelPhaseEncode": 13.477,
  "BaseResolution": 106,
  "BodyPartExamined": "BRAIN",
  "CoilCombinationMethod": "Sum of Squares",
  "ConsistencyInfo": "N4_VE11C_LATEST_20160120",
  "ConversionSoftware": "dcm2niix",
  "ConversionSoftwareVersion": "v1.0.20220720",
  "DerivedVendorReportedEchoSpacing": 0.000700005,
  "DeviceSerialNumber": "166108",
  "DwellTime": 2.6e-06,
  "EchoTime": 0.03,
  "EchoTrainLength": 80,
  "EffectiveEchoSpacing": 0.000700005,
  "FlipAngle": 62,
  "HeudiconvVersion": "1.3.0",
  "ImageComments": "Unaliased MB4/PE3/LB",
  "ImageOrientationPatientDICOM": [1, 0, 0, 0, 0.995725, -0.0923706],
  "ImageOrientationText": "Tra>Cor(-5.3)",
  "ImageType": [
    "ORIGINAL",
    "PRIMARY",
    "M",
    "MB",
    "ND",
    "MOSAIC"
],
  "ImagingFrequency": 123.244,
  "InPlanePhaseEncodingDirectionDICOM": "COL",
  "InstitutionAddress": "Bedford Way 26,London,London,GB,WC1H 0AP",
  "InstitutionName": "University College",
  "InstitutionalDepartmentName": "Department",
  "MRAcquisitionType": "2D",
  "MagneticFieldStrength": 3,
  "Manufacturer": "Siemens",
  "ManufacturersModelName": "Prisma",
  "MatrixCoilMode": "SENSE",
  "Modality": "MR",
  "MultibandAccelerationFactor": 4,
  "NonlinearGradientCorrection": false,
  "PartialFourier": 0.75,
  "PatientPosition": "HFS",
  "PercentPhaseFOV": 100,
  "PercentSampling": 100,
  "PhaseEncodingDirection": "j-",
  "PhaseEncodingSteps": 80,
  "PhaseResolution": 1,
  "PixelBandwidth": 1815,
  "ProcedureStepDescription": "Egor^MovieProject2",
  "ProtocolName": "func-bold_task-motor_run-02",
  "PulseSequenceDetails": "%CustomerSeq%\\cmrr_mbep2d_bold",
  "ReceiveCoilActiveElements": "HEA;HEP",
  "ReceiveCoilName": "Head_32",
  "ReconMatrixPE": 106,
  "RepetitionTime": 1,
  "SAR": 0.0382915,
  "ScanOptions": "PFP\\FS\\EXT",
  "ScanningSequence": "EP",
  "SequenceName": "epfid2d1_106",
  "SequenceVariant": "SK\\SS",
  "SeriesDescription": "func-bold_task-motor_run-02",
  "SeriesNumber": 4,
  "ShimSetting": [-1495, 618, 7364, 51, -47, 295, 258, -120],
  "SliceThickness": 2,
  "SliceTiming": [0, 0.535, 0.09, 0.6225, 0.1775, 0.7125, 0.2675, 0.8025, 0.3575, 0.89, 0.445, 0, 0.535, 0.09, 0.6225, 0.1775, 0.7125, 0.2675, 0.8025, 0.3575, 0.89, 0.445, 0, 0.535, 0.09, 0.6225, 0.1775, 0.7125, 0.2675, 0.8025, 0.3575, 0.89, 0.445, 0, 0.535, 0.09, 0.6225, 0.1775, 0.7125, 0.2675, 0.8025, 0.3575, 0.89, 0.445],
  "SoftwareVersions": "syngo MR E11",
  "SpacingBetweenSlices": 2,
  "StationName": "AWP166108",
  "TaskName": "somatotopy",
  "TotalReadoutTime": 0.0735005,
  "TxRefAmp": 221.21,
  "WipMemBlock": "f06f335c-a877-40d3-9b44-e3af5e426d2c||Sequence: R016 ve11c/master r/e634e98; Dec 19 2017 11:00:25 by eja",
  "dcmmeta_affine": [
    [-2.0, 0.0, 0.0, 106.0],
    [0.0, 1.9914493560791016, -0.18474115431308746, -91.99810028076172],
    [0.0, 0.18474115431308746, 1.9914493560791016, -8.018465995788574],
    [0.0, 0.0, 0.0, 1.0]
],
  "dcmmeta_reorient_transform": [
    [0.0, -1.0, 0.0, 105.0],
    [1.0, 0.0, 0.0, 0.0],
    [0.0, 0.0, 1.0, 0.0],
    [0.0, 0.0, 0.0, 1.0]
],
  "dcmmeta_shape": [106, 106, 44, 469],
  "dcmmeta_slice_dim": 2,
  "dcmmeta_version": 0.6,
  "global": {
    "const": {
      "AcquisitionMatrix": [106, 0, 0, 106],
      "AngioFlag": "N",
      "BitsAllocated": 16,
      "BitsStored": 16,
      "BodyPartExamined": "BRAIN",
      "CardiacNumberOfImages": 1,
      "Columns": 742,
      "EchoNumbers": 1,
      "EchoTime": 30.0,
      "EchoTrainLength": 80,
      "FlipAngle": 62.0,
      "HighBit": 15,
      "ImageOrientationPatient": [1.0, 0.0, 0.0, 0.0, 0.99572469889668, -0.0923705797704],
      "ImagePositionPatient": [-742.0, -750.38499377036, 70.127044039284],
      "ImageType": [
        "ORIGINAL",
        "PRIMARY",
        "M",
        "MB",
        "ND",
        "MOSAIC"
],
      "ImagedNucleus": "1H",
      "ImagingFrequency": 123.243668,
      "InPlanePhaseEncodingDirection": "COL",
      "MRAcquisitionType": "2D",
      "MagneticFieldStrength": 3.0,
      "Manufacturer": "SIEMENS",
      "ManufacturerModelName": "Prisma",
      "Modality": "MR",
      "NominalInterval": 0,
      "NumberOfAverages": 1.0,
      "NumberOfPhaseEncodingSteps": 80,
      "PercentPhaseFieldOfView": 100.0,
      "PercentSampling": 100.0,
      "PerformedProcedureStepStartTime": "115716.354000",
      "PhotometricInterpretation": "MONOCHROME2",
      "PixelBandwidth": 1815.0,
      "PixelRepresentation": 0,
      "PixelSpacing": [2.0, 2.0],
      "ProtocolName": "func-bold_task-motor_run-02",
      "RepetitionTime": 1000.0,
      "Rows": 742,
      "SAR": 0.03829150192881,
      "SamplesPerPixel": 1,
      "ScanOptions": [
        "PFP",
        "FS",
        "EXT"
],
      "ScanningSequence": "EP",
      "SequenceName": "epfid2d1_106",
      "SequenceVariant": [
        "SK",
        "SS"
],
      "SeriesDescription": "func-bold_task-motor_run-02",
      "SeriesNumber": 4,
      "SeriesTime": "121632.338000",
      "SliceLocation": 0.51373288498511,
      "SliceThickness": 2.0,
      "SmallestImagePixelValue": 0,
      "SoftwareVersions": "syngo MR E11",
      "SpacingBetweenSlices": 2.0000000008285,
      "SpecificCharacterSet": "ISO_IR 100",
      "StudyID": "1",
      "StudyTime": "115716.297000",
      "TransmitCoilName": "Body",
      "VariableFlipAngleFlag": "N",
      "WindowCenterWidthExplanation": "Algo1",
      "dBdt": 0.0},
    "slices": {}
  },
  "time": {
    "samples": {
      "AcquisitionNumber": [1, 2, 3, 4, 5, 6, 7, 8, 9, 10, 11, 12, 13, 14, 15, 16, 17, 18, 19, 20, 21, 22, 23, 24, 25, 26, 27, 28, 29, 30, 31, 32, 33, 34, 35, 36, 37, 38, 39, 40, 41, 42, 43, 44, 45, 46, 47, 48, 49, 50, 51, 52, 53, 54, 55, 56, 57, 58, 59, 60, 61, 62, 63, 64, 65, 66, 67, 68, 69, 70, 71, 72, 73, 74, 75, 76, 77, 78, 79, 80, 81, 82, 83, 84, 85, 86, 87, 88, 89, 90, 91, 92, 93, 94, 95, 96, 97, 98, 99, 100, 101, 102, 103, 104, 105, 106, 107, 108, 109, 110, 111, 112, 113, 114, 115, 116, 117, 118, 119, 120, 121, 122, 123, 124, 125, 126, 127, 128, 129, 130, 131, 132, 133, 134, 135, 136, 137, 138, 139, 140, 141, 142, 143, 144, 145, 146, 147, 148, 149, 150, 151, 152, 153, 154, 155, 156, 157, 158, 159, 160, 161, 162, 163, 164, 165, 166, 167, 168, 169, 170, 171, 172, 173, 174, 175, 176, 177, 178, 179, 180, 181, 182, 183, 184, 185, 186, 187, 188, 189, 190, 191, 192, 193, 194, 195, 196, 197, 198, 199, 200, 201, 202, 203, 204, 205, 206, 207, 208, 209, 210, 211, 212, 213, 214, 215, 216, 217, 218, 219, 220, 221, 222, 223, 224, 225, 226, 227, 228, 229, 230, 231, 232, 233, 234, 235, 236, 237, 238, 239, 240, 241, 242, 243, 244, 245, 246, 247, 248, 249, 250, 251, 252, 253, 254, 255, 256, 257, 258, 259, 260, 261, 262, 263, 264, 265, 266, 267, 268, 269, 270, 271, 272, 273, 274, 275, 276, 277, 278, 279, 280, 281, 282, 283, 284, 285, 286, 287, 288, 289, 290, 291, 292, 293, 294, 295, 296, 297, 298, 299, 300, 301, 302, 303, 304, 305, 306, 307, 308, 309, 310, 311, 312, 313, 314, 315, 316, 317, 318, 319, 320, 321, 322, 323, 324, 325, 326, 327, 328, 329, 330, 331, 332, 333, 334, 335, 336, 337, 338, 339, 340, 341, 342, 343, 344, 345, 346, 347, 348, 349, 350, 351, 352, 353, 354, 355, 356, 357, 358, 359, 360, 361, 362, 363, 364, 365, 366, 367, 368, 369, 370, 371, 372, 373, 374, 375, 376, 377, 378, 379, 380, 381, 382, 383, 384, 385, 386, 387, 388, 389, 390, 391, 392, 393, 394, 395, 396, 397, 398, 399, 400, 401, 402, 403, 404, 405, 406, 407, 408, 409, 410, 411, 412, 413, 414, 415, 416, 417, 418, 419, 420, 421, 422, 423, 424, 425, 426, 427, 428, 429, 430, 431, 432, 433, 434, 435, 436, 437, 438, 439, 440, 441, 442, 443, 444, 445, 446, 447, 448, 449, 450, 451, 452, 453, 454, 455, 456, 457, 458, 459, 460, 461, 462, 463, 464, 465, 466, 467, 468, 469],
      "AcquisitionTime": ["121556.555000", "121557.555000", "121558.555000", "121559.555000", "121600.555000", "121601.555000", "121602.555000", "121603.555000", "121604.555000", "121605.555000", "121606.555000", "121607.555000", "121608.555000", "121609.555000", "121610.555000", "121611.555000", "121612.555000", "121613.555000", "121614.555000", "121615.555000", "121616.555000", "121617.555000", "121618.555000", "121619.555000", "121620.555000", "121621.555000", "121622.555000", "121623.555000", "121624.555000", "121625.555000", "121626.555000", "121627.555000", "121628.555000", "121629.555000", "121630.555000", "121631.555000", "121632.555000", "121633.555000", "121634.555000", "121635.555000", "121636.555000", "121637.555000", "121638.555000", "121639.555000", "121640.555000", "121641.555000", "121642.555000", "121643.555000", "121644.555000", "121645.555000", "121646.555000", "121647.555000", "121648.555000", "121649.555000", "121650.555000", "121651.555000", "121652.555000", "121653.555000", "121654.555000", "121655.555000", "121656.555000", "121657.555000", "121658.555000", "121659.555000", "121700.555000", "121701.555000", "121702.555000", "121703.555000", "121704.555000", "121705.555000", "121706.555000", "121707.555000", "121708.555000", "121709.555000", "121710.555000", "121711.555000", "121712.555000", "121713.555000", "121714.555000", "121715.555000", "121716.555000", "121717.555000", "121718.555000", "121719.555000", "121720.555000", "121721.555000", "121722.555000", "121723.555000", "121724.555000", "121725.555000", "121726.555000", "121727.555000", "121728.555000", "121729.555000", "121730.555000", "121731.555000", "121732.555000", "121733.555000", "121734.555000", "121735.555000", "121736.555000", "121737.555000", "121738.555000", "121739.555000", "121740.555000", "121741.555000", "121742.555000", "121743.555000", "121744.555000", "121745.555000", "121746.555000", "121747.555000", "121748.555000", "121749.555000", "121750.555000", "121751.555000", "121752.555000", "121753.555000", "121754.555000", "121755.555000", "121756.555000", "121757.555000", "121758.555000", "121759.555000", "121800.555000", "121801.555000", "121802.555000", "121803.555000", "121804.555000", "121805.555000", "121806.555000", "121807.555000", "121808.555000", "121809.555000", "121810.555000", "121811.555000", "121812.555000", "121813.555000", "121814.555000", "121815.555000", "121816.555000", "121817.555000", "121818.555000", "121819.555000", "121820.555000", "121821.555000", "121822.555000", "121823.555000", "121824.555000", "121825.555000", "121826.555000", "121827.555000", "121828.555000", "121829.555000", "121830.555000", "121831.555000", "121832.555000", "121833.555000", "121834.555000", "121835.555000", "121836.555000", "121837.555000", "121838.555000", "121839.555000", "121840.555000", "121841.555000", "121842.555000", "121843.555000", "121844.555000", "121845.555000", "121846.555000", "121847.555000", "121848.555000", "121849.555000", "121850.555000", "121851.555000", "121852.555000", "121853.555000", "121854.555000", "121855.555000", "121856.555000", "121857.555000", "121858.555000", "121859.555000", "121900.555000", "121901.555000", "121902.555000", "121903.555000", "121904.555000", "121905.555000", "121906.555000", "121907.555000", "121908.555000", "121909.555000", "121910.555000", "121911.555000", "121912.555000", "121913.555000", "121914.555000", "121915.555000", "121916.555000", "121917.555000", "121918.555000", "121919.555000", "121920.555000", "121921.555000", "121922.555000", "121923.555000", "121924.555000", "121925.555000", "121926.555000", "121927.555000", "121928.555000", "121929.555000", "121930.555000", "121931.555000", "121932.555000", "121933.555000", "121934.555000", "121935.555000", "121936.555000", "121937.555000", "121938.555000", "121939.555000", "121940.555000", "121941.555000", "121942.555000", "121943.555000", "121944.555000", "121945.555000", "121946.555000", "121947.555000", "121948.555000", "121949.555000", "121950.555000", "121951.555000", "121952.555000", "121953.555000", "121954.555000", "121955.555000", "121956.555000", "121957.555000", "121958.555000", "121959.555000", "122000.555000", "122001.555000", "122002.555000", "122003.555000", "122004.555000", "122005.555000", "122006.555000", "122007.555000", "122008.555000", "122009.555000", "122010.555000", "122011.555000", "122012.555000", "122013.555000", "122014.555000", "122015.555000", "122016.555000", "122017.555000", "122018.555000", "122019.555000", "122020.555000", "122021.555000", "122022.555000", "122023.555000", "122024.555000", "122025.555000", "122026.555000", "122027.555000", "122028.555000", "122029.555000", "122030.555000", "122031.555000", "122032.555000", "122033.555000", "122034.555000", "122035.555000", "122036.555000", "122037.555000", "122038.555000", "122039.555000", "122040.555000", "122041.555000", "122042.555000", "122043.555000", "122044.555000", "122045.555000", "122046.555000", "122047.555000", "122048.555000", "122049.555000", "122050.555000", "122051.555000", "122052.555000", "122053.555000", "122054.555000", "122055.555000", "122056.555000", "122057.555000", "122058.555000", "122059.555000", "122100.555000", "122101.555000", "122102.555000", "122103.555000", "122104.555000", "122105.555000", "122106.555000", "122107.555000", "122108.555000", "122109.555000", "122110.555000", "122111.555000", "122112.555000", "122113.555000", "122114.555000", "122115.555000", "122116.555000", "122117.555000", "122118.555000", "122119.555000", "122120.555000", "122121.555000", "122122.555000", "122123.555000", "122124.555000", "122125.555000", "122126.555000", "122127.555000", "122128.555000", "122129.555000", "122130.555000", "122131.555000", "122132.555000", "122133.555000", "122134.555000", "122135.555000", "122136.555000", "122137.555000", "122138.555000", "122139.555000", "122140.555000", "122141.555000", "122142.555000", "122143.555000", "122144.555000", "122145.555000", "122146.555000", "122147.555000", "122148.555000", "122149.555000", "122150.555000", "122151.555000", "122152.555000", "122153.555000", "122154.555000", "122155.555000", "122156.555000", "122157.555000", "122158.555000", "122159.555000", "122200.555000", "122201.555000", "122202.555000", "122203.555000", "122204.555000", "122205.555000", "122206.555000", "122207.555000", "122208.555000", "122209.555000", "122210.555000", "122211.555000", "122212.555000", "122213.555000", "122214.555000", "122215.555000", "122216.555000", "122217.555000", "122218.555000", "122219.555000", "122220.555000", "122221.555000", "122222.555000", "122223.555000", "122224.555000", "122225.555000", "122226.555000", "122227.555000", "122228.555000", "122229.555000", "122230.555000", "122231.555000", "122232.555000", "122233.555000", "122234.555000", "122235.555000", "122236.555000", "122237.555000", "122238.555000", "122239.555000", "122240.555000", "122241.555000", "122242.555000", "122243.555000", "122244.555000", "122245.555000", "122246.555000", "122247.555000", "122248.555000", "122249.555000", "122250.555000", "122251.555000", "122252.555000", "122253.555000", "122254.555000", "122255.555000", "122256.555000", "122257.555000", "122258.555000", "122259.555000", "122300.555000", "122301.555000", "122302.555000", "122303.555000", "122304.555000", "122305.555000", "122306.555000", "122307.555000", "122308.555000", "122309.555000", "122310.555000", "122311.555000", "122312.555000", "122313.555000", "122314.555000", "122315.555000", "122316.555000", "122317.555000", "122318.555000", "122319.555000", "122320.555000", "122321.555000", "122322.555000", "122323.555000", "122324.555000", "122325.555000", "122326.555000", "122327.555000", "122328.555000", "122329.555000", "122330.555000", "122331.555000", "122332.555000", "122333.555000", "122334.555000", "122335.555000", "122336.555000", "122337.555000", "122338.555000", "122339.555000", "122340.555000", "122341.555000", "122342.555000", "122343.555000", "122344.555000"],
      "ContentTime": ["121632.341000", "121632.344000", "121632.346000", "121632.349000", "121632.351000", "121632.354000", "121632.356000", "121632.359000", "121632.362000", "121632.364000", "121632.366000", "121632.369000", "121632.371000", "121632.374000", "121632.376000", "121632.379000", "121632.382000", "121632.384000", "121632.387000", "121632.389000", "121632.399000", "121632.401000", "121632.404000", "121632.406000", "121632.409000", "121632.411000", "121632.420000", "121632.423000", "121632.425000", "121632.428000", "121632.430000", "121632.433000", "121632.435000", "121632.438000", "121632.440000", "121652.309000", "121652.312000", "121652.314000", "121652.317000", "121652.320000", "121652.322000", "121652.325000", "121652.337000", "121652.340000", "121652.342000", "121652.345000", "121652.347000", "121652.350000", "121652.352000", "121652.355000", "121652.357000", "121652.360000", "121652.367000", "121652.370000", "121652.373000", "121712.309000", "121712.312000", "121712.314000", "121712.317000", "121712.320000", "121712.322000", "121712.325000", "121712.327000", "121712.330000", "121712.332000", "121712.335000", "121712.337000", "121712.340000", "121712.342000", "121712.345000", "121712.347000", "121712.350000", "121712.352000", "121712.354000", "121712.357000", "121732.309000", "121732.312000", "121732.315000", "121732.317000", "121732.320000", "121732.322000", "121732.325000", "121732.327000", "121732.330000", "121732.332000", "121732.335000", "121732.337000", "121732.355000", "121732.357000", "121732.360000", "121732.362000", "121732.365000", "121732.367000", "121732.370000", "121732.372000", "121752.310000", "121752.313000", "121752.316000", "121752.318000", "121752.321000", "121752.323000", "121752.326000", "121752.328000", "121752.331000", "121752.333000", "121752.336000", "121752.338000", "121752.341000", "121752.343000", "121752.346000", "121752.348000", "121752.351000", "121752.353000", "121752.355000", "121752.358000", "121812.310000", "121812.313000", "121812.316000", "121812.318000", "121812.321000", "121812.323000", "121812.326000", "121812.328000", "121812.331000", "121812.333000", "121812.336000", "121812.339000", "121812.341000", "121812.344000", "121812.346000", "121812.360000", "121812.363000", "121812.365000", "121812.367000", "121812.370000", "121832.309000", "121832.312000", "121832.315000", "121832.318000", "121832.320000", "121832.322000", "121832.325000", "121832.328000", "121832.330000", "121832.333000", "121832.335000", "121832.338000", "121832.340000", "121832.343000", "121832.345000", "121832.348000", "121832.350000", "121832.353000", "121832.355000", "121832.358000", "121852.309000", "121852.312000", "121852.314000", "121852.317000", "121852.320000", "121852.322000", "121852.325000", "121852.327000", "121852.330000", "121852.332000", "121852.335000", "121852.337000", "121852.340000", "121852.342000", "121852.345000", "121852.348000", "121852.350000", "121852.353000", "121852.355000", "121852.358000", "121912.309000", "121912.312000", "121912.314000", "121912.317000", "121912.320000", "121912.322000", "121912.325000", "121912.327000", "121912.330000", "121912.332000", "121912.335000", "121912.337000", "121912.340000", "121912.342000", "121912.345000", "121912.347000", "121912.350000", "121912.352000", "121912.354000", "121912.357000", "121932.310000", "121932.312000", "121932.315000", "121932.317000", "121932.320000", "121932.322000", "121932.325000", "121932.328000", "121932.330000", "121932.333000", "121932.335000", "121932.338000", "121932.340000", "121932.343000", "121932.345000", "121932.348000", "121932.350000", "121932.353000", "121932.355000", "121932.358000", "121952.309000", "121952.312000", "121952.314000", "121952.317000", "121952.320000", "121952.322000", "121952.325000", "121952.328000", "121952.330000", "121952.333000", "121952.335000", "121952.338000", "121952.340000", "121952.343000", "121952.345000", "121952.348000", "121952.351000", "121952.353000", "121952.355000", "121952.358000", "122012.311000", "122012.318000", "122012.320000", "122012.323000", "122012.325000", "122012.328000", "122012.330000", "122012.333000", "122012.335000", "122012.338000", "122012.341000", "122012.343000", "122012.346000", "122012.348000", "122012.351000", "122012.353000", "122012.356000", "122012.358000", "122012.361000", "122012.363000", "122032.310000", "122032.313000", "122032.316000", "122032.318000", "122032.321000", "122032.323000", "122032.326000", "122032.328000", "122032.331000", "122032.333000", "122032.336000", "122032.338000", "122032.341000", "122032.343000", "122032.346000", "122032.348000", "122032.351000", "122032.353000", "122032.356000", "122032.358000", "122052.310000", "122052.312000", "122052.315000", "122052.318000", "122052.320000", "122052.323000", "122052.325000", "122052.328000", "122052.330000", "122052.332000", "122052.335000", "122052.337000", "122052.346000", "122052.348000", "122052.351000", "122052.353000", "122052.356000", "122052.358000", "122052.361000", "122052.363000", "122112.309000", "122112.312000", "122112.314000", "122112.317000", "122112.320000", "122112.322000", "122112.325000", "122112.328000", "122112.330000", "122112.332000", "122112.335000", "122112.337000", "122112.340000", "122112.342000", "122112.345000", "122112.347000", "122112.350000", "122112.352000", "122112.355000", "122112.357000", "122132.310000", "122132.312000", "122132.315000", "122132.317000", "122132.320000", "122132.322000", "122132.325000", "122132.327000", "122132.330000", "122132.332000", "122132.335000", "122132.337000", "122132.340000", "122132.342000", "122132.345000", "122132.347000", "122132.350000", "122132.352000", "122132.355000", "122132.357000", "122152.309000", "122152.312000", "122152.315000", "122152.318000", "122152.320000", "122152.322000", "122152.325000", "122152.327000", "122152.330000", "122152.332000", "122152.335000", "122152.338000", "122152.340000", "122152.342000", "122152.345000", "122152.348000", "122152.350000", "122152.353000", "122152.355000", "122152.358000", "122212.309000", "122212.312000", "122212.315000", "122212.317000", "122212.320000", "122212.322000", "122212.325000", "122212.327000", "122212.330000", "122212.332000", "122212.335000", "122212.337000", "122212.340000", "122212.342000", "122212.345000", "122212.347000", "122212.350000", "122212.352000", "122212.355000", "122212.357000", "122232.310000", "122232.313000", "122232.316000", "122232.318000", "122232.321000", "122232.323000", "122232.326000", "122232.328000", "122232.331000", "122232.333000", "122232.336000", "122232.338000", "122232.341000", "122232.343000", "122232.346000", "122232.348000", "122232.351000", "122232.353000", "122232.356000", "122232.358000", "122252.310000", "122252.313000", "122252.315000", "122252.318000", "122252.321000", "122252.323000", "122252.326000", "122252.328000", "122252.331000", "122252.333000", "122252.336000", "122252.338000", "122252.341000", "122252.343000", "122252.346000", "122252.348000", "122252.351000", "122252.353000", "122252.356000", "122252.358000", "122312.310000", "122312.312000", "122312.315000", "122312.317000", "122312.320000", "122312.322000", "122312.325000", "122312.327000", "122312.330000", "122312.332000", "122312.335000", "122312.338000", "122312.340000", "122312.343000", "122312.345000", "122312.348000", "122312.350000", "122312.353000", "122312.355000", "122312.358000", "122332.309000", "122332.312000", "122332.315000", "122332.317000", "122332.320000", "122332.322000", "122332.325000", "122332.327000", "122332.330000", "122332.333000", "122332.335000", "122332.338000", "122332.340000", "122332.343000", "122332.345000", "122332.348000", "122332.350000", "122332.353000", "122332.355000", "122332.358000", "122345.758000", "122345.761000", "122345.763000", "122345.766000", "122345.769000", "122345.771000", "122345.774000", "122345.777000", "122345.779000", "122345.782000", "122345.784000", "122345.787000", "122345.789000", "122345.792000"],
