{
  "AcquisitionMatrixPE": 106,
  "AcquisitionNumber": 1,
  "AcquisitionTime": "12:54:6.770000",
  "BandwidthPerPixelPhaseEncode": 16.846,
  "BaseResolution": 106,
  "BodyPartExamined": "BRAIN",
  "CoilCombinationMethod": "Sum of Squares",
  "ConsistencyInfo": "N4_VE11C_LATEST_20160120",
  "ConversionSoftware": "dcm2niix",
  "ConversionSoftwareVersion": "v1.0.20220720",
  "DerivedVendorReportedEchoSpacing": 0.000560012,
  "DeviceSerialNumber": "166108",
  "DwellTime": 1.8e-06,
  "EchoTime": 0.0352,
  "EchoTrainLength": 106,
  "EffectiveEchoSpacing": 0.000560012,
  "FlipAngle": 60,
  "HeudiconvVersion": "1.3.0",
  "ImageComments": "Unaliased MB4/PE3/LB",
  "ImageOrientationPatientDICOM": [1, 0, 0, 0, 0.955793, -0.29404],
  "ImageOrientationText": "Tra>Cor(-17.1)",
  "ImageType": [
    "ORIGINAL",
    "PRIMARY",
    "M",
    "MB",
    "ND",
    "MOSAIC"
],
  "ImagingFrequency": 123.244,
  "InPlanePhaseEncodingDirectionDICOM": "COL",
  "InstitutionAddress": "Bedford Way 26,London,London,GB,WC1H 0AP",
  "InstitutionName": "University College",
  "InstitutionalDepartmentName": "Department",
  "MRAcquisitionType": "2D",
  "MagneticFieldStrength": 3,
  "Manufacturer": "Siemens",
  "ManufacturersModelName": "Prisma",
  "MatrixCoilMode": "SENSE",
  "Modality": "MR",
  "MultibandAccelerationFactor": 4,
  "NonlinearGradientCorrection": false,
  "PartialFourier": 1,
  "PatientPosition": "HFS",
  "PercentPhaseFOV": 100,
  "PercentSampling": 100,
  "PhaseEncodingDirection": "j-",
  "PhaseEncodingSteps": 106,
  "PhaseResolution": 1,
  "PixelBandwidth": 2620,
  "ProcedureStepDescription": "Egor^MovieProject2",
  "ProtocolName": "func-bold_task-pRF_run-03",
  "PulseSequenceDetails": "%CustomerSeq%\\cmrr_mbep2d_bold",
  "ReceiveCoilActiveElements": "HEA;HEP",
  "ReceiveCoilName": "Head_32",
  "ReconMatrixPE": 106,
  "RepetitionTime": 1,
  "SAR": 0.0685901,
  "ScanOptions": "FS\\EXT",
  "ScanningSequence": "EP",
  "SequenceName": "epfid2d1_106",
  "SequenceVariant": "SK\\SS",
  "SeriesDescription": "func-bold_task-pRF_run-03",
  "SeriesNumber": 14,
  "ShimSetting": [-1506, 626, 7423, 275, -80, 316, 276, -91],
  "SliceThickness": 2,
  "SliceTiming": [0, 0.4075, 0.815, 0.245, 0.6525, 0.08, 0.49, 0.8975, 0.325, 0.735, 0.1625, 0.57, 0, 0.4075, 0.815, 0.245, 0.6525, 0.08, 0.49, 0.8975, 0.325, 0.735, 0.1625, 0.57, 0, 0.4075, 0.815, 0.245, 0.6525, 0.08, 0.49, 0.8975, 0.325, 0.735, 0.1625, 0.57, 0, 0.4075, 0.815, 0.245, 0.6525, 0.08, 0.49, 0.8975, 0.325, 0.735, 0.1625, 0.57],
  "SoftwareVersions": "syngo MR E11",
  "SpacingBetweenSlices": 2,
  "StationName": "AWP166108",
  "TaskName": "retinotopy",
  "TotalReadoutTime": 0.0588013,
  "TxRefAmp": 221.21,
  "WipMemBlock": "90562302-a3a5-4f85-949d-f93980800b57||Sequence: R016 ve11c/master r/e634e98; Dec 19 2017 11:00:25 by eja",
  "dcmmeta_affine": [
    [-2.0, 0.0, 0.0, 106.0],
    [0.0, 1.911586046218872, -0.588080644607544, -87.43318176269531],
    [0.0, 0.588080644607544, 1.911586046218872, -39.724151611328125],
    [0.0, 0.0, 0.0, 1.0]
],
  "dcmmeta_reorient_transform": [
    [0.0, -1.0, 0.0, 105.0],
    [1.0, 0.0, 0.0, 0.0],
    [0.0, 0.0, 1.0, 0.0],
    [0.0, 0.0, 0.0, 1.0]
],
  "dcmmeta_shape": [106, 106, 48, 356],
  "dcmmeta_slice_dim": 2,
  "dcmmeta_version": 0.6,
  "global": {
    "const": {
      "AcquisitionMatrix": [106, 0, 0, 106],
      "AngioFlag": "N",
      "BitsAllocated": 16,
      "BitsStored": 16,
      "BodyPartExamined": "BRAIN",
      "CardiacNumberOfImages": 1,
      "Columns": 742,
      "EchoNumbers": 1,
      "EchoTime": 35.2,
      "EchoTrainLength": 106,
      "FlipAngle": 60.0,
      "HighBit": 15,
      "ImageOrientationPatient": [1.0, 0.0, 0.0, 0.0, 0.95579301476915, -0.2940403253272],
      "ImagePositionPatient": [-742.0, -721.1677095994, 209.03396330101],
      "ImageType": [
        "ORIGINAL",
        "PRIMARY",
        "M",
        "MB",
        "ND",
        "MOSAIC"
],
      "ImagedNucleus": "1H",
      "ImagingFrequency": 123.243655,
      "InPlanePhaseEncodingDirection": "COL",
      "MRAcquisitionType": "2D",
      "MagneticFieldStrength": 3.0,
      "Manufacturer": "SIEMENS",
      "ManufacturerModelName": "Prisma",
      "Modality": "MR",
      "NominalInterval": 0,
      "NumberOfAverages": 1.0,
      "NumberOfPhaseEncodingSteps": 106,
      "PercentPhaseFieldOfView": 100.0,
      "PercentSampling": 100.0,
      "PerformedProcedureStepStartTime": "115716.354000",
      "PhotometricInterpretation": "MONOCHROME2",
      "PixelBandwidth": 2620.0,
      "PixelRepresentation": 0,
      "PixelSpacing": [2.0, 2.0],
      "ProtocolName": "func-bold_task-pRF_run-03",
      "RepetitionTime": 1000.0,
      "Rows": 742,
      "SAR": 0.06859006287097,
      "SamplesPerPixel": 1,
      "ScanOptions": [
        "FS",
        "EXT"
],
      "ScanningSequence": "EP",
      "SequenceName": "epfid2d1_106",
      "SequenceVariant": [
        "SK",
        "SS"
],
      "SeriesDescription": "func-bold_task-pRF_run-03",
      "SeriesNumber": 14,
      "SeriesTime": "125448.600000",
      "SliceLocation": -12.259185973426,
      "SliceThickness": 2.0,
      "SmallestImagePixelValue": 0,
      "SoftwareVersions": "syngo MR E11",
      "SpacingBetweenSlices": 1.9999999817174,
      "SpecificCharacterSet": "ISO_IR 100",
      "StudyID": "1",
      "StudyTime": "115716.297000",
      "TransmitCoilName": "Body",
      "VariableFlipAngleFlag": "N",
      "WindowCenterWidthExplanation": "Algo1",
      "dBdt": 0.0},
    "slices": {}
  },
  "time": {
    "samples": {
      "AcquisitionNumber": [1, 2, 3, 4, 5, 6, 7, 8, 9, 10, 11, 12, 13, 14, 15, 16, 17, 18, 19, 20, 21, 22, 23, 24, 25, 26, 27, 28, 29, 30, 31, 32, 33, 34, 35, 36, 37, 38, 39, 40, 41, 42, 43, 44, 45, 46, 47, 48, 49, 50, 51, 52, 53, 54, 55, 56, 57, 58, 59, 60, 61, 62, 63, 64, 65, 66, 67, 68, 69, 70, 71, 72, 73, 74, 75, 76, 77, 78, 79, 80, 81, 82, 83, 84, 85, 86, 87, 88, 89, 90, 91, 92, 93, 94, 95, 96, 97, 98, 99, 100, 101, 102, 103, 104, 105, 106, 107, 108, 109, 110, 111, 112, 113, 114, 115, 116, 117, 118, 119, 120, 121, 122, 123, 124, 125, 126, 127, 128, 129, 130, 131, 132, 133, 134, 135, 136, 137, 138, 139, 140, 141, 142, 143, 144, 145, 146, 147, 148, 149, 150, 151, 152, 153, 154, 155, 156, 157, 158, 159, 160, 161, 162, 163, 164, 165, 166, 167, 168, 169, 170, 171, 172, 173, 174, 175, 176, 177, 178, 179, 180, 181, 182, 183, 184, 185, 186, 187, 188, 189, 190, 191, 192, 193, 194, 195, 196, 197, 198, 199, 200, 201, 202, 203, 204, 205, 206, 207, 208, 209, 210, 211, 212, 213, 214, 215, 216, 217, 218, 219, 220, 221, 222, 223, 224, 225, 226, 227, 228, 229, 230, 231, 232, 233, 234, 235, 236, 237, 238, 239, 240, 241, 242, 243, 244, 245, 246, 247, 248, 249, 250, 251, 252, 253, 254, 255, 256, 257, 258, 259, 260, 261, 262, 263, 264, 265, 266, 267, 268, 269, 270, 271, 272, 273, 274, 275, 276, 277, 278, 279, 280, 281, 282, 283, 284, 285, 286, 287, 288, 289, 290, 291, 292, 293, 294, 295, 296, 297, 298, 299, 300, 301, 302, 303, 304, 305, 306, 307, 308, 309, 310, 311, 312, 313, 314, 315, 316, 317, 318, 319, 320, 321, 322, 323, 324, 325, 326, 327, 328, 329, 330, 331, 332, 333, 334, 335, 336, 337, 338, 339, 340, 341, 342, 343, 344, 345, 346, 347, 348, 349, 350, 351, 352, 353, 354, 355, 356],
      "AcquisitionTime": ["125406.770000", "125407.770000", "125408.770000", "125409.770000", "125410.770000", "125411.770000", "125412.770000", "125413.770000", "125414.770000", "125415.770000", "125416.770000", "125417.770000", "125418.770000", "125419.770000", "125420.770000", "125421.770000", "125422.770000", "125423.770000", "125424.770000", "125425.770000", "125426.770000", "125427.770000", "125428.770000", "125429.770000", "125430.770000", "125431.770000", "125432.770000", "125433.770000", "125434.770000", "125435.770000", "125436.770000", "125437.770000", "125438.770000", "125439.770000", "125440.770000", "125441.770000", "125442.770000", "125443.770000", "125444.770000", "125445.770000", "125446.770000", "125447.770000", "125448.770000", "125449.770000", "125450.770000", "125451.770000", "125452.770000", "125453.770000", "125454.770000", "125455.770000", "125456.770000", "125457.770000", "125458.770000", "125459.770000", "125500.770000", "125501.770000", "125502.770000", "125503.770000", "125504.770000", "125505.770000", "125506.770000", "125507.770000", "125508.770000", "125509.770000", "125510.770000", "125511.770000", "125512.770000", "125513.770000", "125514.770000", "125515.770000", "125516.770000", "125517.770000", "125518.770000", "125519.770000", "125520.770000", "125521.770000", "125522.770000", "125523.770000", "125524.770000", "125525.770000", "125526.770000", "125527.770000", "125528.770000", "125529.770000", "125530.770000", "125531.770000", "125532.770000", "125533.770000", "125534.770000", "125535.770000", "125536.770000", "125537.770000", "125538.770000", "125539.770000", "125540.770000", "125541.770000", "125542.770000", "125543.770000", "125544.770000", "125545.770000", "125546.770000", "125547.770000", "125548.770000", "125549.770000", "125550.770000", "125551.770000", "125552.770000", "125553.770000", "125554.770000", "125555.770000", "125556.770000", "125557.770000", "125558.770000", "125559.770000", "125600.770000", "125601.770000", "125602.770000", "125603.770000", "125604.770000", "125605.770000", "125606.770000", "125607.770000", "125608.770000", "125609.770000", "125610.770000", "125611.770000", "125612.770000", "125613.770000", "125614.770000", "125615.770000", "125616.770000", "125617.770000", "125618.770000", "125619.770000", "125620.770000", "125621.770000", "125622.770000", "125623.770000", "125624.770000", "125625.770000", "125626.770000", "125627.770000", "125628.770000", "125629.770000", "125630.770000", "125631.770000", "125632.770000", "125633.770000", "125634.770000", "125635.770000", "125636.770000", "125637.770000", "125638.770000", "125639.770000", "125640.770000", "125641.770000", "125642.770000", "125643.770000", "125644.770000", "125645.770000", "125646.770000", "125647.770000", "125648.770000", "125649.770000", "125650.770000", "125651.770000", "125652.770000", "125653.770000", "125654.770000", "125655.770000", "125656.770000", "125657.770000", "125658.770000", "125659.770000", "125700.770000", "125701.770000", "125702.770000", "125703.770000", "125704.770000", "125705.770000", "125706.770000", "125707.770000", "125708.770000", "125709.770000", "125710.770000", "125711.770000", "125712.770000", "125713.770000", "125714.770000", "125715.770000", "125716.770000", "125717.770000", "125718.770000", "125719.770000", "125720.770000", "125721.770000", "125722.770000", "125723.770000", "125724.770000", "125725.770000", "125726.770000", "125727.770000", "125728.770000", "125729.770000", "125730.770000", "125731.770000", "125732.770000", "125733.770000", "125734.770000", "125735.770000", "125736.770000", "125737.770000", "125738.770000", "125739.770000", "125740.770000", "125741.770000", "125742.770000", "125743.770000", "125744.770000", "125745.770000", "125746.770000", "125747.770000", "125748.770000", "125749.770000", "125750.770000", "125751.770000", "125752.770000", "125753.770000", "125754.770000", "125755.770000", "125756.770000", "125757.770000", "125758.770000", "125759.770000", "125800.770000", "125801.770000", "125802.770000", "125803.770000", "125804.770000", "125805.770000", "125806.770000", "125807.770000", "125808.770000", "125809.770000", "125810.770000", "125811.770000", "125812.770000", "125813.770000", "125814.770000", "125815.770000", "125816.770000", "125817.770000", "125818.770000", "125819.770000", "125820.770000", "125821.770000", "125822.770000", "125823.770000", "125824.770000", "125825.770000", "125826.770000", "125827.770000", "125828.770000", "125829.770000", "125830.770000", "125831.770000", "125832.770000", "125833.770000", "125834.770000", "125835.770000", "125836.770000", "125837.770000", "125838.770000", "125839.770000", "125840.770000", "125841.770000", "125842.770000", "125843.770000", "125844.770000", "125845.770000", "125846.770000", "125847.770000", "125848.770000", "125849.770000", "125850.770000", "125851.770000", "125852.770000", "125853.770000", "125854.770000", "125855.770000", "125856.770000", "125857.770000", "125858.770000", "125859.770000", "125900.770000", "125901.770000", "125902.770000", "125903.770000", "125904.770000", "125905.770000", "125906.770000", "125907.770000", "125908.770000", "125909.770000", "125910.770000", "125911.770000", "125912.770000", "125913.770000", "125914.770000", "125915.770000", "125916.770000", "125917.770000", "125918.770000", "125919.770000", "125920.770000", "125921.770000", "125922.770000", "125923.770000", "125924.770000", "125925.770000", "125926.770000", "125927.770000", "125928.770000", "125929.770000", "125930.770000", "125931.770000", "125932.770000", "125933.770000", "125934.770000", "125935.770000", "125936.770000", "125937.770000", "125938.770000", "125939.770000", "125940.770000", "125941.770000", "125942.770000", "125943.770000", "125944.770000", "125945.770000", "125946.770000", "125947.770000", "125948.770000", "125949.770000", "125950.770000", "125951.770000", "125952.770000", "125953.770000", "125954.770000", "125955.770000", "125956.770000", "125957.770000", "125958.770000", "125959.770000", "130000.770000", "130001.770000"],
      "ContentTime": ["125448.602000", "125448.605000", "125448.608000", "125448.611000", "125448.614000", "125448.616000", "125448.619000", "125448.622000", "125448.625000", "125448.627000", "125448.630000", "125448.637000", "125448.641000", "125448.644000", "125448.647000", "125448.650000", "125448.653000", "125448.656000", "125448.658000", "125448.661000", "125448.672000", "125448.675000", "125448.681000", "125448.691000", "125448.694000", "125448.697000", "125448.701000", "125448.704000", "125448.706000", "125448.709000", "125448.711000", "125448.714000", "125448.717000", "125448.720000", "125448.722000", "125448.727000", "125448.730000", "125448.740000", "125448.743000", "125448.746000", "125448.749000", "125508.499000", "125508.502000", "125508.505000", "125508.507000", "125508.510000", "125508.512000", "125508.515000", "125508.517000", "125508.520000", "125508.523000", "125508.525000", "125508.527000", "125508.530000", "125508.532000", "125508.535000", "125508.537000", "125508.540000", "125508.542000", "125508.545000", "125508.547000", "125528.500000", "125528.503000", "125528.506000", "125528.508000", "125528.511000", "125528.513000", "125528.516000", "125528.518000", "125528.521000", "125528.523000", "125528.526000", "125528.528000", "125528.531000", "125528.533000", "125528.536000", "125528.538000", "125528.541000", "125528.544000", "125528.546000", "125528.549000", "125548.500000", "125548.503000", "125548.506000", "125548.508000", "125548.511000", "125548.513000", "125548.516000", "125548.518000", "125548.521000", "125548.524000", "125548.526000", "125548.529000", "125548.531000", "125548.534000", "125548.536000", "125548.539000", "125548.541000", "125548.544000", "125548.546000", "125548.548000", "125608.500000", "125608.503000", "125608.506000", "125608.508000", "125608.510000", "125608.513000", "125608.515000", "125608.518000", "125608.520000", "125608.523000", "125608.526000", "125608.528000", "125608.530000", "125608.533000", "125608.535000", "125608.538000", "125608.540000", "125608.543000", "125608.545000", "125608.548000", "125628.500000", "125628.503000", "125628.506000", "125628.509000", "125628.511000", "125628.514000", "125628.516000", "125628.519000", "125628.521000", "125628.524000", "125628.526000", "125628.528000", "125628.531000", "125628.533000", "125628.536000", "125628.538000", "125628.541000", "125628.543000", "125628.546000", "125628.548000", "125648.499000", "125648.502000", "125648.505000", "125648.507000", "125648.510000", "125648.513000", "125648.515000", "125648.518000", "125648.520000", "125648.523000", "125648.525000", "125648.528000", "125648.530000", "125648.533000", "125648.535000", "125648.538000", "125648.540000", "125648.543000", "125648.545000", "125648.548000", "125708.500000", "125708.503000", "125708.505000", "125708.508000", "125708.510000", "125708.513000", "125708.515000", "125708.518000", "125708.520000", "125708.523000", "125708.539000", "125708.542000", "125708.544000", "125708.547000", "125708.550000", "125708.556000", "125708.559000", "125708.562000", "125708.564000", "125708.567000", "125728.499000", "125728.502000", "125728.505000", "125728.507000", "125728.510000", "125728.512000", "125728.515000", "125728.517000", "125728.520000", "125728.522000", "125728.525000", "125728.527000", "125728.530000", "125728.532000", "125728.535000", "125728.537000", "125728.540000", "125728.542000", "125728.544000", "125728.547000", "125748.500000", "125748.512000", "125748.514000", "125748.517000", "125748.519000", "125748.522000", "125748.525000", "125748.527000", "125748.530000", "125748.532000", "125748.535000", "125748.537000", "125748.540000", "125748.542000", "125748.545000", "125748.547000", "125748.550000", "125748.552000", "125748.555000", "125748.557000", "125808.500000", "125808.503000", "125808.506000", "125808.508000", "125808.511000", "125808.514000", "125808.516000", "125808.519000", "125808.521000", "125808.524000", "125808.527000", "125808.529000", "125808.531000", "125808.534000", "125808.537000", "125808.539000", "125808.542000", "125808.544000", "125808.547000", "125808.549000", "125828.501000", "125828.504000", "125828.506000", "125828.509000", "125828.511000", "125828.514000", "125828.516000", "125828.519000", "125828.521000", "125828.524000", "125828.527000", "125828.529000", "125828.532000", "125828.534000", "125828.537000", "125828.539000", "125828.550000", "125828.552000", "125828.555000", "125828.557000", "125848.501000", "125848.503000", "125848.506000", "125848.508000", "125848.511000", "125848.513000", "125848.516000", "125848.518000", "125848.521000", "125848.523000", "125848.526000", "125848.528000", "125848.531000", "125848.533000", "125848.536000", "125848.538000", "125848.541000", "125848.544000", "125848.546000", "125848.548000", "125908.500000", "125908.503000", "125908.505000", "125908.508000", "125908.510000", "125908.513000", "125908.516000", "125908.518000", "125908.521000", "125908.523000", "125908.526000", "125908.528000", "125908.531000", "125908.533000", "125908.536000", "125908.538000", "125908.541000", "125908.544000", "125908.546000", "125908.548000", "125928.499000", "125928.502000", "125928.505000", "125928.507000", "125928.510000", "125928.512000", "125928.515000", "125928.517000", "125928.520000", "125928.522000", "125928.525000", "125928.527000", "125928.530000", "125928.533000", "125928.535000", "125928.538000", "125928.540000", "125928.543000", "125928.545000", "125928.548000", "125948.499000", "125948.502000", "125948.505000", "125948.507000", "125948.510000", "125948.512000", "125948.515000", "125948.517000", "125948.520000", "125948.523000", "125948.525000", "125948.528000", "125948.530000", "125948.533000", "125948.535000", "125948.537000", "125948.540000", "125948.542000", "125948.545000", "125948.547000", "130002.995000", "130002.998000", "130003.002000", "130003.005000", "130003.007000", "130003.010000", "130003.013000", "130003.016000", "130003.018000", "130003.021000", "130003.023000", "130003.026000", "130003.028000", "130003.031000", "130003.034000"],
      "InstanceCreationTime": ["125448.602000", "125448.605000", "125448.608000", "125448.611000", "125448.614000", "125448.616000", "125448.619000", "125448.622000", "125448.625000", "125448.627000", "125448.630000", "125448.637000", "125448.641000", "125448.644000", "125448.647000", "125448.650000", "125448.653000", "125448.656000", "125448.658000", "125448.661000", "125448.672000", "125448.675000", "125448.681000", "125448.691000", "125448.694000", "125448.697000", "125448.701000", "125448.704000", "125448.706000", "125448.709000", "125448.711000", "125448.714000", "125448.717000", "125448.720000", "125448.722000", "125448.727000", "125448.730000", "125448.740000", "125448.743000", "125448.746000", "125448.749000", "125508.499000", "125508.502000", "125508.505000", "125508.507000", "125508.510000", "125508.512000", "125508.515000", "125508.517000", "125508.520000", "125508.523000", "125508.525000", "125508.527000", "125508.530000", "125508.532000", "125508.535000", "125508.537000", "125508.540000", "125508.542000", "125508.545000", "125508.547000", "125528.500000", "125528.503000", "125528.506000", "125528.508000", "125528.511000", "125528.513000", "125528.516000", "125528.518000", "125528.521000", "125528.523000", "125528.526000", "125528.528000", "125528.531000", "125528.533000", "125528.536000", "125528.538000", "125528.541000", "125528.544000", "125528.546000", "125528.549000", "125548.500000", "125548.503000", "125548.506000", "125548.508000", "125548.511000", "125548.513000", "125548.516000", "125548.518000", "125548.521000", "125548.524000", "125548.526000", "125548.529000", "125548.531000", "125548.534000", "125548.536000", "125548.539000", "125548.541000", "125548.544000", "125548.546000", "125548.548000", "125608.500000", "125608.503000", "125608.506000", "125608.508000", "125608.510000", "125608.513000", "125608.515000", "125608.518000", "125608.520000", "125608.523000", "125608.526000", "125608.528000", "125608.530000", "125608.533000", "125608.535000", "125608.538000", "125608.540000", "125608.543000", "125608.545000", "125608.548000", "125628.500000", "125628.503000", "125628.506000", "125628.509000", "125628.511000", "125628.514000", "125628.516000", "125628.519000", "125628.521000", "125628.524000", "125628.526000", "125628.528000", "125628.531000", "125628.533000", "125628.536000", "125628.538000", "125628.541000", "125628.543000", "125628.546000", "125628.548000", "125648.499000", "125648.502000", "125648.505000", "125648.507000", "125648.510000", "125648.513000", "125648.515000", "125648.518000", "125648.520000", "125648.523000", "125648.525000", "125648.528000", "125648.530000", "125648.533000", "125648.535000", "125648.538000", "125648.540000", "125648.543000", "125648.545000", "125648.548000", "125708.500000", "125708.503000", "125708.505000", "125708.508000", "125708.510000", "125708.513000", "125708.515000", "125708.518000", "125708.520000", "125708.523000", "125708.539000", "125708.542000", "125708.544000", "125708.547000", "125708.550000", "125708.556000", "125708.559000", "125708.562000", "125708.564000", "125708.567000", "125728.499000", "125728.502000", "125728.505000", "125728.507000", "125728.510000", "125728.512000", "125728.515000", "125728.517000", "125728.520000", "125728.522000", "125728.525000", "125728.527000", "125728.530000", "125728.532000", "125728.535000", "125728.537000", "125728.540000", "125728.542000", "125728.544000", "125728.547000", "125748.500000", "125748.512000", "125748.514000", "125748.517000", "125748.519000", "125748.522000", "125748.525000", "125748.527000", "125748.530000", "125748.532000", "125748.535000", "125748.537000", "125748.540000", "125748.542000", "125748.545000", "125748.547000", "125748.550000", "125748.552000", "125748.555000", "125748.557000", "125808.500000", "125808.503000", "125808.506000", "125808.508000", "125808.511000", "125808.514000", "125808.516000", "125808.519000", "125808.521000", "125808.524000", "125808.527000", "125808.529000", "125808.531000", "125808.534000", "125808.537000", "125808.539000", "125808.542000", "125808.544000", "125808.547000", "125808.549000", "125828.501000", "125828.504000", "125828.506000", "125828.509000", "125828.511000", "125828.514000", "125828.516000", "125828.519000", "125828.521000", "125828.524000", "125828.527000", "125828.529000", "125828.532000", "125828.534000", "125828.537000", "125828.539000", "125828.550000", "125828.552000", "125828.555000", "125828.557000", "125848.501000", "125848.503000", "125848.506000", "125848.508000", "125848.511000", "125848.513000", "125848.516000", "125848.518000", "125848.521000", "125848.523000", "125848.526000", "125848.528000", "125848.531000", "125848.533000", "125848.536000", "125848.538000", "125848.541000", "125848.544000", "125848.546000", "125848.548000", "125908.500000", "125908.503000", "125908.505000", "125908.508000", "125908.510000", "125908.513000", "125908.516000", "125908.518000", "125908.521000", "125908.523000", "125908.526000", "125908.528000", "125908.531000", "125908.533000", "125908.536000", "125908.538000", "125908.541000", "125908.544000", "125908.546000", "125908.548000", "125928.499000", "125928.502000", "125928.505000", "125928.507000", "125928.510000", "125928.512000", "125928.515000", "125928.517000", "125928.520000", "125928.522000", "125928.525000", "125928.527000", "125928.530000", "125928.533000", "125928.535000", "125928.538000", "125928.540000", "125928.543000", "125928.545000", "125928.548000", "125948.499000", "125948.502000", "125948.505000", "125948.507000", "125948.510000", "125948.512000", "125948.515000", "125948.517000", "125948.520000", "125948.523000", "125948.525000", "125948.528000", "125948.530000", "125948.533000", "125948.535000", "125948.537000", "125948.540000", "125948.542000", "125948.545000", "125948.547000", "130002.995000", "130002.998000", "130003.002000", "130003.005000", "130003.007000", "130003.010000", "130003.013000", "130003.016000", "130003.018000", "130003.021000", "130003.023000", "130003.026000", "130003.028000", "130003.031000", "130003.034000"],
      "InstanceNumber": [1, 2, 3, 4, 5, 6, 7, 8, 9, 10, 11, 12, 13, 14, 15, 16, 17, 18, 19, 20, 21, 22, 23, 24, 25, 26, 27, 28, 29, 30, 31, 32, 33, 34, 35, 36, 37, 38, 39, 40, 41, 42, 43, 44, 45, 46, 47, 48, 49, 50, 51, 52, 53, 54, 55, 56, 57, 58, 59, 60, 61, 62, 63, 64, 65, 66, 67, 68, 69, 70, 71, 72, 73, 74, 75, 76, 77, 78, 79, 80, 81, 82, 83, 84, 85, 86, 87, 88, 89, 90, 91, 92, 93, 94, 95, 96, 97, 98, 99, 100, 101, 102, 103, 104, 105, 106, 107, 108, 109, 110, 111, 112, 113, 114, 115, 116, 117, 118, 119, 120, 121, 122, 123, 124, 125, 126, 127, 128, 129, 130, 131, 132, 133, 134, 135, 136, 137, 138, 139, 140, 141, 142, 143, 144, 145, 146, 147, 148, 149, 150, 151, 152, 153, 154, 155, 156, 157, 158, 159, 160, 161, 162, 163, 164, 165, 166, 167, 168, 169, 170, 171, 172, 173, 174, 175, 176, 177, 178, 179, 180, 181, 182, 183, 184, 185, 186, 187, 188, 189, 190, 191, 192, 193, 194, 195, 196, 197, 198, 199, 200, 201, 202, 203, 204, 205, 206, 207, 208, 209, 210, 211, 212, 213, 214, 215, 216, 217, 218, 219, 220, 221, 222, 223, 224, 225, 226, 227, 228, 229, 230, 231, 232, 233, 234, 235, 236, 237, 238, 239, 240, 241, 242, 243, 244, 245, 246, 247, 248, 249, 250, 251, 252, 253, 254, 255, 256, 257, 258, 259, 260, 261, 262, 263, 264, 265, 266, 267, 268, 269, 270, 271, 272, 273, 274, 275, 276, 277, 278, 279, 280, 281, 282, 283, 284, 285, 286, 287, 288, 289, 290, 291, 292, 293, 294, 295, 296, 297, 298, 299, 300, 301, 302, 303, 304, 305, 306, 307, 308, 309, 310, 311, 312, 313, 314, 315, 316, 317, 318, 319, 320, 321, 322, 323, 324, 325, 326, 327, 328, 329, 330, 331, 332, 333, 334, 335, 336, 337, 338, 339, 340, 341, 342, 343, 344, 345, 346, 347, 348, 349, 350, 351, 352, 353, 354, 355, 356],
      "LargestImagePixelValue": [11685, 11317, 11067, 10811, 10719, 10959, 10970, 10907, 10793, 11113, 11019, 10924, 10813, 10729, 11212, 10904, 10836, 10797, 10945, 10949, 10746, 10673, 10870, 10841, 10704, 10619, 10866, 10838, 10674, 10673, 11043, 10762, 10801, 10608, 11024, 10797, 10803, 10693, 10834, 10487, 10556, 10773, 10727, 10630, 10658, 10809, 10594, 10623, 10492, 10501, 10698, 10718, 10397, 10633, 10443, 10444, 10486, 10494, 10497, 10467, 10499, 10347, 10541, 10369, 10329, 10491, 10398, 10422, 10453, 10492, 10542, 10383, 10643, 10824, 10595, 10379, 10454, 10683, 10458, 10506, 10551, 10584, 10413, 10378, 10525, 10438, 10478, 10499, 10511, 10457, 10531, 10465, 10514, 10533, 10487, 10337, 10398, 10533, 10582, 10506, 10626, 10573, 10459, 10499, 10624, 10447, 10432, 10348, 10453, 10460, 10501, 10476, 10544, 10421, 10490, 10522, 10472, 10397, 10561, 10515, 10561, 10374, 10441, 10568, 10454, 10439, 10585, 10484, 10385, 10396, 10472, 10401, 10421, 10473, 10491, 10365, 10354, 10368, 10634, 10588, 10440, 10336, 10846, 10484, 10543, 10462, 10418, 10487, 10529, 10433, 10567, 10385, 10512, 10549, 10547, 10405, 10549, 10500, 10538, 10395, 10419, 10573, 10590, 10437, 10579, 10270, 10517, 10443, 10448, 10435, 10437, 10673, 10566, 10351, 10453, 10607, 10498, 10412, 10696, 10545, 10591, 10539, 10361, 10613, 10578, 10441, 10395, 10779, 10542, 10566, 10559, 10636, 10575, 10670, 10476, 10761, 10585, 10594, 10629, 10648, 10903, 10923, 10830, 10550, 10667, 10918, 10770, 10795, 10932, 11030, 10993, 10932, 10714, 10775, 10780, 10398, 10737, 10661, 10782, 10628, 10619, 10706, 10766, 10623, 10776, 10824, 10436, 10628, 10624, 10563, 10625, 10545, 10579, 10646, 10611, 10540, 10636, 10677, 10632, 10442, 10565, 10613, 10577, 10549, 10625, 10653, 10542, 10721, 10652, 10609, 10636, 10649, 10472, 10654, 10624, 10604, 10706, 10625, 10671, 10619, 10664, 10535, 10645, 10495, 10455, 10622, 10491, 10514, 10572, 10530, 10584, 10494, 10531, 10605, 10549, 10524, 10579, 10644, 10564, 10580, 10581, 10576, 10656, 10504, 10580, 10792, 10680, 10548, 10535, 10731, 10477, 10496, 10545, 10595, 10491, 10566, 10555, 10507, 10601, 10642, 10379, 10470, 10483, 10603, 10581, 10359, 10645, 10518, 10442, 10489, 10572, 10606, 10570, 10530, 10648, 10592, 10599, 10411, 10548, 10687, 10531, 10515, 10494, 10619, 10405, 10518, 10509, 10497, 10488, 10650, 10632, 10836, 10506, 10535, 10634, 10552, 10543, 10528, 10613, 10554, 10617, 10521, 10602, 10524, 10634, 10564, 10668, 10445, 10609, 10521, 10755, 10613, 10469, 10500, 10557, 10797],
