{
  "AcquisitionMatrixPE": 106,
  "AcquisitionNumber": 1,
  "AcquisitionTime": "12:27:58.312500",
  "BandwidthPerPixelPhaseEncode": 13.477,
  "BaseResolution": 106,
  "BodyPartExamined": "BRAIN",
  "CoilCombinationMethod": "Sum of Squares",
  "ConsistencyInfo": "N4_VE11C_LATEST_20160120",
  "ConversionSoftware": "dcm2niix",
  "ConversionSoftwareVersion": "v1.0.20220720",
  "DerivedVendorReportedEchoSpacing": 0.000700005,
  "DeviceSerialNumber": "166108",
  "DwellTime": 2.6e-06,
  "EchoTime": 0.03,
  "EchoTrainLength": 80,
  "EffectiveEchoSpacing": 0.000700005,
  "FlipAngle": 62,
  "HeudiconvVersion": "1.3.0",
  "ImageComments": "Unaliased MB4/PE3/LB",
  "ImageOrientationPatientDICOM": [1, 0, 0, 0, 0.926529, -0.376224],
  "ImageOrientationText": "Tra>Cor(-22.1)",
  "ImageType": [
    "ORIGINAL",
    "PRIMARY",
    "M",
    "MB",
    "ND",
    "MOSAIC"
],
  "ImagingFrequency": 123.244,
  "InPlanePhaseEncodingDirectionDICOM": "COL",
  "InstitutionAddress": "Bedford Way 26,London,London,GB,WC1H 0AP",
  "InstitutionName": "University College",
  "InstitutionalDepartmentName": "Department",
  "MRAcquisitionType": "2D",
  "MagneticFieldStrength": 3,
  "Manufacturer": "Siemens",
  "ManufacturersModelName": "Prisma",
  "MatrixCoilMode": "SENSE",
  "Modality": "MR",
  "MultibandAccelerationFactor": 4,
  "NonlinearGradientCorrection": false,
  "PartialFourier": 0.75,
  "PatientPosition": "HFS",
  "PercentPhaseFOV": 100,
  "PercentSampling": 100,
  "PhaseEncodingDirection": "j-",
  "PhaseEncodingSteps": 80,
  "PhaseResolution": 1,
  "PixelBandwidth": 1815,
  "ProcedureStepDescription": "Egor^MovieProject2",
  "ProtocolName": "func-bold_task-tono_run-01",
  "PulseSequenceDetails": "%CustomerSeq%\\cmrr_mbep2d_bold",
  "ReceiveCoilActiveElements": "HEA;HEP",
  "ReceiveCoilName": "Head_32",
  "ReconMatrixPE": 106,
  "RepetitionTime": 1,
  "SAR": 0.0381063,
  "ScanOptions": "PFP\\FS",
  "ScanningSequence": "EP",
  "SequenceName": "epfid2d1_106",
  "SequenceVariant": "SK\\SS",
  "SeriesDescription": "func-bold_task-tono_run-01",
  "SeriesNumber": 20,
  "ShimSetting": [-1615, 620, 7421, 619, -139, 185, 39, 26],
  "SliceThickness": 2,
  "SliceTiming": [0, 0.5325, 0.0875, 0.6225, 0.1775, 0.7125, 0.265, 0.8, 0.355, 0.89, 0.445, 0, 0.5325, 0.0875, 0.6225, 0.1775, 0.7125, 0.265, 0.8, 0.355, 0.89, 0.445, 0, 0.5325, 0.0875, 0.6225, 0.1775, 0.7125, 0.265, 0.8, 0.355, 0.89, 0.445, 0, 0.5325, 0.0875, 0.6225, 0.1775, 0.7125, 0.265, 0.8, 0.355, 0.89, 0.445],
  "SoftwareVersions": "syngo MR E11",
  "SpacingBetweenSlices": 2,
  "StationName": "AWP166108",
  "TaskName": "tonotopy",
  "TotalReadoutTime": 0.0735005,
  "TxRefAmp": 218.641,
  "WipMemBlock": "fb08366c-c1a8-4ca4-862e-3dd130917b09||Sequence: R016 ve11c/master r/e634e98; Dec 19 2017 11:00:25 by eja",
  "dcmmeta_affine": [
    [-2.0, 0.0, 0.0, 106.0],
    [0.0, 1.8530572652816772, -0.752448558807373, -72.22491455078125],
    [0.0, 0.752448558807373, 1.8530572652816772, -63.219242095947266],
    [0.0, 0.0, 0.0, 1.0]
],
  "dcmmeta_reorient_transform": [
    [0.0, -1.0, 0.0, 105.0],
    [1.0, 0.0, 0.0, 0.0],
    [0.0, 0.0, 1.0, 0.0],
    [0.0, 0.0, 0.0, 1.0]
],
  "dcmmeta_shape": [106, 106, 44, 264],
  "dcmmeta_slice_dim": 2,
  "dcmmeta_version": 0.6,
  "global": {
    "const": {
      "AcquisitionMatrix": [106, 0, 0, 106],
      "AngioFlag": "N",
      "BitsAllocated": 16,
      "BitsStored": 16,
      "BodyPartExamined": "BRAIN",
      "Columns": 742,
      "EchoNumbers": 1,
      "EchoTime": 30.0,
      "EchoTrainLength": 80,
      "FlipAngle": 62.0,
      "HighBit": 15,
      "ImageOrientationPatient": [1.0, 0.0, 0.0, 0.0, 0.92652862505392, -0.3762242774672],
      "ImagePositionPatient": [-742.0, -711.61829969601, 255.06649684268],
      "ImageType": [
        "ORIGINAL",
        "PRIMARY",
        "M",
        "MB",
        "ND",
        "MOSAIC"
],
      "ImagedNucleus": "1H",
      "ImagingFrequency": 123.243689,
      "InPlanePhaseEncodingDirection": "COL",
      "MRAcquisitionType": "2D",
      "MagneticFieldStrength": 3.0,
      "Manufacturer": "SIEMENS",
      "ManufacturerModelName": "Prisma",
      "Modality": "MR",
      "NumberOfAverages": 1.0,
      "NumberOfPhaseEncodingSteps": 80,
      "PercentPhaseFieldOfView": 100.0,
      "PercentSampling": 100.0,
      "PerformedProcedureStepStartTime": "105026.890000",
      "PhotometricInterpretation": "MONOCHROME2",
      "PixelBandwidth": 1815.0,
      "PixelRepresentation": 0,
      "PixelSpacing": [2.0, 2.0],
      "ProtocolName": "func-bold_task-tono_run-01",
      "RepetitionTime": 1000.0,
      "Rows": 742,
      "SAR": 0.03810626548985,
      "SamplesPerPixel": 1,
      "ScanOptions": [
        "PFP",
        "FS"
],
      "ScanningSequence": "EP",
      "SequenceName": "epfid2d1_106",
      "SequenceVariant": [
        "SK",
        "SS"
],
      "SeriesDescription": "func-bold_task-tono_run-01",
      "SeriesNumber": 20,
      "SeriesTime": "122824.551000",
      "SliceLocation": -31.401670018584,
      "SliceThickness": 2.0,
      "SmallestImagePixelValue": 0,
      "SoftwareVersions": "syngo MR E11",
      "SpacingBetweenSlices": 2.0000000209804,
      "SpecificCharacterSet": "ISO_IR 100",
      "StudyID": "1",
      "StudyTime": "105026.835000",
      "TransmitCoilName": "Body",
      "VariableFlipAngleFlag": "N",
      "WindowCenterWidthExplanation": "Algo1",
      "dBdt": 0.0},
    "slices": {}
  },
  "time": {
    "samples": {
      "AcquisitionNumber": [1, 2, 3, 4, 5, 6, 7, 8, 9, 10, 11, 12, 13, 14, 15, 16, 17, 18, 19, 20, 21, 22, 23, 24, 25, 26, 27, 28, 29, 30, 31, 32, 33, 34, 35, 36, 37, 38, 39, 40, 41, 42, 43, 44, 45, 46, 47, 48, 49, 50, 51, 52, 53, 54, 55, 56, 57, 58, 59, 60, 61, 62, 63, 64, 65, 66, 67, 68, 69, 70, 71, 72, 73, 74, 75, 76, 77, 78, 79, 80, 81, 82, 83, 84, 85, 86, 87, 88, 89, 90, 91, 92, 93, 94, 95, 96, 97, 98, 99, 100, 101, 102, 103, 104, 105, 106, 107, 108, 109, 110, 111, 112, 113, 114, 115, 116, 117, 118, 119, 120, 121, 122, 123, 124, 125, 126, 127, 128, 129, 130, 131, 132, 133, 134, 135, 136, 137, 138, 139, 140, 141, 142, 143, 144, 145, 146, 147, 148, 149, 150, 151, 152, 153, 154, 155, 156, 157, 158, 159, 160, 161, 162, 163, 164, 165, 166, 167, 168, 169, 170, 171, 172, 173, 174, 175, 176, 177, 178, 179, 180, 181, 182, 183, 184, 185, 186, 187, 188, 189, 190, 191, 192, 193, 194, 195, 196, 197, 198, 199, 200, 201, 202, 203, 204, 205, 206, 207, 208, 209, 210, 211, 212, 213, 214, 215, 216, 217, 218, 219, 220, 221, 222, 223, 224, 225, 226, 227, 228, 229, 230, 231, 232, 233, 234, 235, 236, 237, 238, 239, 240, 241, 242, 243, 244, 245, 246, 247, 248, 249, 250, 251, 252, 253, 254, 255, 256, 257, 258, 259, 260, 261, 262, 263, 264],
      "AcquisitionTime": ["122758.312500", "122759.312500", "122800.312500", "122801.312500", "122802.312500", "122803.312500", "122804.312500", "122805.312500", "122806.312500", "122807.312500", "122808.312500", "122809.312500", "122810.312500", "122811.312500", "122812.312500", "122813.312500", "122814.312500", "122815.312500", "122816.312500", "122817.312500", "122818.312500", "122819.312500", "122820.312500", "122821.312500", "122822.312500", "122823.312500", "122824.312500", "122825.312500", "122826.312500", "122827.312500", "122828.312500", "122829.312500", "122830.312500", "122831.312500", "122832.312500", "122833.312500", "122834.312500", "122835.312500", "122836.312500", "122837.312500", "122838.312500", "122839.312500", "122840.312500", "122841.312500", "122842.312500", "122843.312500", "122844.312500", "122845.312500", "122846.312500", "122847.312500", "122848.312500", "122849.312500", "122850.312500", "122851.312500", "122852.312500", "122853.312500", "122854.312500", "122855.312500", "122856.312500", "122857.312500", "122858.312500", "122859.312500", "122900.312500", "122901.312500", "122902.312500", "122903.312500", "122904.312500", "122905.312500", "122906.312500", "122907.312500", "122908.312500", "122909.312500", "122910.312500", "122911.312500", "122912.312500", "122913.312500", "122914.312500", "122915.312500", "122916.312500", "122917.312500", "122918.312500", "122919.312500", "122920.312500", "122921.312500", "122922.312500", "122923.312500", "122924.312500", "122925.312500", "122926.312500", "122927.312500", "122928.312500", "122929.312500", "122930.312500", "122931.312500", "122932.312500", "122933.312500", "122934.312500", "122935.312500", "122936.312500", "122937.312500", "122938.312500", "122939.312500", "122940.312500", "122941.312500", "122942.312500", "122943.312500", "122944.312500", "122945.312500", "122946.312500", "122947.312500", "122948.312500", "122949.312500", "122950.312500", "122951.312500", "122952.312500", "122953.312500", "122954.312500", "122955.312500", "122956.312500", "122957.312500", "122958.312500", "122959.312500", "123000.312500", "123001.312500", "123002.312500", "123003.312500", "123004.312500", "123005.312500", "123006.312500", "123007.312500", "123008.312500", "123009.312500", "123010.312500", "123011.312500", "123012.312500", "123013.312500", "123014.312500", "123015.312500", "123016.312500", "123017.312500", "123018.312500", "123019.312500", "123020.312500", "123021.312500", "123022.312500", "123023.312500", "123024.312500", "123025.312500", "123026.312500", "123027.312500", "123028.312500", "123029.312500", "123030.312500", "123031.312500", "123032.312500", "123033.312500", "123034.312500", "123035.312500", "123036.312500", "123037.312500", "123038.312500", "123039.312500", "123040.312500", "123041.312500", "123042.312500", "123043.312500", "123044.312500", "123045.312500", "123046.312500", "123047.312500", "123048.312500", "123049.312500", "123050.312500", "123051.312500", "123052.312500", "123053.312500", "123054.312500", "123055.312500", "123056.312500", "123057.312500", "123058.312500", "123059.312500", "123100.312500", "123101.312500", "123102.312500", "123103.312500", "123104.312500", "123105.312500", "123106.312500", "123107.312500", "123108.312500", "123109.312500", "123110.312500", "123111.312500", "123112.312500", "123113.312500", "123114.312500", "123115.312500", "123116.312500", "123117.312500", "123118.312500", "123119.312500", "123120.312500", "123121.312500", "123122.312500", "123123.312500", "123124.312500", "123125.312500", "123126.312500", "123127.312500", "123128.312500", "123129.312500", "123130.312500", "123131.312500", "123132.312500", "123133.312500", "123134.312500", "123135.312500", "123136.312500", "123137.312500", "123138.312500", "123139.312500", "123140.312500", "123141.312500", "123142.312500", "123143.312500", "123144.312500", "123145.312500", "123146.312500", "123147.312500", "123148.312500", "123149.312500", "123150.312500", "123151.312500", "123152.312500", "123153.312500", "123154.312500", "123155.312500", "123156.312500", "123157.312500", "123158.312500", "123159.312500", "123200.312500", "123201.312500", "123202.312500", "123203.312500", "123204.312500", "123205.312500", "123206.312500", "123207.312500", "123208.312500", "123209.312500", "123210.312500", "123211.312500", "123212.312500", "123213.312500", "123214.312500", "123215.312500", "123216.312500", "123217.312500", "123218.312500", "123219.312500", "123220.312500", "123221.312500"],
      "ContentTime": ["122824.554000", "122824.559000", "122824.562000", "122824.564000", "122824.575000", "122824.578000", "122824.580000", "122824.583000", "122824.586000", "122824.588000", "122824.590000", "122824.593000", "122824.595000", "122824.598000", "122824.600000", "122824.603000", "122824.606000", "122824.608000", "122824.610000", "122824.613000", "122824.615000", "122824.618000", "122824.620000", "122824.623000", "122824.625000", "122844.489000", "122844.492000", "122844.494000", "122844.497000", "122844.499000", "122844.502000", "122844.504000", "122844.507000", "122844.510000", "122844.512000", "122844.515000", "122844.517000", "122844.520000", "122844.522000", "122844.525000", "122844.527000", "122844.530000", "122844.532000", "122844.543000", "122844.545000", "122904.489000", "122904.492000", "122904.494000", "122904.497000", "122904.499000", "122904.502000", "122904.504000", "122904.507000", "122904.510000", "122904.512000", "122904.526000", "122904.529000", "122904.531000", "122904.534000", "122904.536000", "122904.538000", "122904.541000", "122904.543000", "122904.546000", "122904.548000", "122924.489000", "122924.492000", "122924.494000", "122924.497000", "122924.499000", "122924.502000", "122924.504000", "122924.507000", "122924.510000", "122924.512000", "122924.515000", "122924.517000", "122924.520000", "122924.523000", "122924.525000", "122924.527000", "122924.530000", "122924.532000", "122924.535000", "122924.537000", "122944.489000", "122944.492000", "122944.495000", "122944.497000", "122944.500000", "122944.502000", "122944.504000", "122944.507000", "122944.510000", "122944.513000", "122944.515000", "122944.517000", "122944.520000", "122944.522000", "122944.525000", "122944.527000", "122944.530000", "122944.532000", "122944.535000", "122944.537000", "123004.489000", "123004.492000", "123004.494000", "123004.497000", "123004.499000", "123004.502000", "123004.504000", "123004.507000", "123004.510000", "123004.512000", "123004.515000", "123004.517000", "123004.520000", "123004.522000", "123004.525000", "123004.527000", "123004.530000", "123004.532000", "123004.534000", "123004.537000", "123024.490000", "123024.493000", "123024.496000", "123024.498000", "123024.501000", "123024.512000", "123024.515000", "123024.517000", "123024.520000", "123024.522000", "123024.525000", "123024.527000", "123024.530000", "123024.532000", "123024.535000", "123024.537000", "123024.540000", "123024.542000", "123024.545000", "123024.547000", "123044.490000", "123044.493000", "123044.496000", "123044.498000", "123044.501000", "123044.503000", "123044.506000", "123044.508000", "123044.511000", "123044.514000", "123044.517000", "123044.519000", "123044.522000", "123044.524000", "123044.526000", "123044.529000", "123044.532000", "123044.534000", "123044.536000", "123044.539000", "123104.489000", "123104.492000", "123104.494000", "123104.497000", "123104.500000", "123104.502000", "123104.505000", "123104.507000", "123104.518000", "123104.521000", "123104.523000", "123104.526000", "123104.528000", "123104.531000", "123104.533000", "123104.536000", "123104.538000", "123104.541000", "123104.543000", "123104.546000", "123124.489000", "123124.492000", "123124.495000", "123124.497000", "123124.500000", "123124.502000", "123124.505000", "123124.507000", "123124.510000", "123124.513000", "123124.515000", "123124.518000", "123124.520000", "123124.523000", "123124.525000", "123124.528000", "123124.530000", "123124.533000", "123124.535000", "123124.537000", "123144.489000", "123144.492000", "123144.494000", "123144.497000", "123144.500000", "123144.502000", "123144.504000", "123144.507000", "123144.510000", "123144.513000", "123144.515000", "123144.518000", "123144.520000", "123144.523000", "123144.525000", "123144.527000", "123144.530000", "123144.532000", "123144.535000", "123144.537000", "123204.489000", "123204.492000", "123204.495000", "123204.497000", "123204.500000", "123204.502000", "123204.505000", "123204.507000", "123204.510000", "123204.512000", "123204.515000", "123204.517000", "123204.520000", "123204.523000", "123204.525000", "123204.528000", "123204.530000", "123204.533000", "123204.535000", "123204.537000", "123222.614000", "123222.616000", "123222.619000", "123222.622000", "123222.624000", "123222.626000", "123222.629000", "123222.632000", "123222.634000", "123222.644000", "123222.646000", "123222.649000", "123222.651000", "123222.654000", "123222.656000", "123222.659000", "123222.661000", "123222.664000", "123222.667000"],
      "InstanceCreationTime": ["122824.554000", "122824.559000", "122824.562000", "122824.564000", "122824.575000", "122824.578000", "122824.580000", "122824.583000", "122824.586000", "122824.588000", "122824.590000", "122824.593000", "122824.595000", "122824.598000", "122824.600000", "122824.603000", "122824.606000", "122824.608000", "122824.610000", "122824.613000", "122824.615000", "122824.618000", "122824.620000", "122824.623000", "122824.625000", "122844.489000", "122844.492000", "122844.494000", "122844.497000", "122844.499000", "122844.502000", "122844.504000", "122844.507000", "122844.510000", "122844.512000", "122844.515000", "122844.517000", "122844.520000", "122844.522000", "122844.525000", "122844.527000", "122844.530000", "122844.532000", "122844.543000", "122844.545000", "122904.489000", "122904.492000", "122904.494000", "122904.497000", "122904.499000", "122904.502000", "122904.504000", "122904.507000", "122904.510000", "122904.512000", "122904.526000", "122904.529000", "122904.531000", "122904.534000", "122904.536000", "122904.538000", "122904.541000", "122904.543000", "122904.546000", "122904.548000", "122924.489000", "122924.492000", "122924.494000", "122924.497000", "122924.499000", "122924.502000", "122924.504000", "122924.507000", "122924.510000", "122924.512000", "122924.515000", "122924.517000", "122924.520000", "122924.523000", "122924.525000", "122924.527000", "122924.530000", "122924.532000", "122924.535000", "122924.537000", "122944.489000", "122944.492000", "122944.495000", "122944.497000", "122944.500000", "122944.502000", "122944.504000", "122944.507000", "122944.510000", "122944.513000", "122944.515000", "122944.517000", "122944.520000", "122944.522000", "122944.525000", "122944.527000", "122944.530000", "122944.532000", "122944.535000", "122944.537000", "123004.489000", "123004.492000", "123004.494000", "123004.497000", "123004.499000", "123004.502000", "123004.504000", "123004.507000", "123004.510000", "123004.512000", "123004.515000", "123004.517000", "123004.520000", "123004.522000", "123004.525000", "123004.527000", "123004.530000", "123004.532000", "123004.534000", "123004.537000", "123024.490000", "123024.493000", "123024.496000", "123024.498000", "123024.501000", "123024.512000", "123024.515000", "123024.517000", "123024.520000", "123024.522000", "123024.525000", "123024.527000", "123024.530000", "123024.532000", "123024.535000", "123024.537000", "123024.540000", "123024.542000", "123024.545000", "123024.547000", "123044.490000", "123044.493000", "123044.496000", "123044.498000", "123044.501000", "123044.503000", "123044.506000", "123044.508000", "123044.511000", "123044.514000", "123044.517000", "123044.519000", "123044.522000", "123044.524000", "123044.526000", "123044.529000", "123044.532000", "123044.534000", "123044.536000", "123044.539000", "123104.489000", "123104.492000", "123104.494000", "123104.497000", "123104.500000", "123104.502000", "123104.505000", "123104.507000", "123104.518000", "123104.521000", "123104.523000", "123104.526000", "123104.528000", "123104.531000", "123104.533000", "123104.536000", "123104.538000", "123104.541000", "123104.543000", "123104.546000", "123124.489000", "123124.492000", "123124.495000", "123124.497000", "123124.500000", "123124.502000", "123124.505000", "123124.507000", "123124.510000", "123124.513000", "123124.515000", "123124.518000", "123124.520000", "123124.523000", "123124.525000", "123124.528000", "123124.530000", "123124.533000", "123124.535000", "123124.537000", "123144.489000", "123144.492000", "123144.494000", "123144.497000", "123144.500000", "123144.502000", "123144.504000", "123144.507000", "123144.510000", "123144.513000", "123144.515000", "123144.518000", "123144.520000", "123144.523000", "123144.525000", "123144.527000", "123144.530000", "123144.532000", "123144.535000", "123144.537000", "123204.489000", "123204.492000", "123204.495000", "123204.497000", "123204.500000", "123204.502000", "123204.505000", "123204.507000", "123204.510000", "123204.512000", "123204.515000", "123204.517000", "123204.520000", "123204.523000", "123204.525000", "123204.528000", "123204.530000", "123204.533000", "123204.535000", "123204.537000", "123222.614000", "123222.616000", "123222.619000", "123222.622000", "123222.624000", "123222.626000", "123222.629000", "123222.632000", "123222.634000", "123222.644000", "123222.646000", "123222.649000", "123222.651000", "123222.654000", "123222.656000", "123222.659000", "123222.661000", "123222.664000", "123222.667000"],
      "InstanceNumber": [1, 2, 3, 4, 5, 6, 7, 8, 9, 10, 11, 12, 13, 14, 15, 16, 17, 18, 19, 20, 21, 22, 23, 24, 25, 26, 27, 28, 29, 30, 31, 32, 33, 34, 35, 36, 37, 38, 39, 40, 41, 42, 43, 44, 45, 46, 47, 48, 49, 50, 51, 52, 53, 54, 55, 56, 57, 58, 59, 60, 61, 62, 63, 64, 65, 66, 67, 68, 69, 70, 71, 72, 73, 74, 75, 76, 77, 78, 79, 80, 81, 82, 83, 84, 85, 86, 87, 88, 89, 90, 91, 92, 93, 94, 95, 96, 97, 98, 99, 100, 101, 102, 103, 104, 105, 106, 107, 108, 109, 110, 111, 112, 113, 114, 115, 116, 117, 118, 119, 120, 121, 122, 123, 124, 125, 126, 127, 128, 129, 130, 131, 132, 133, 134, 135, 136, 137, 138, 139, 140, 141, 142, 143, 144, 145, 146, 147, 148, 149, 150, 151, 152, 153, 154, 155, 156, 157, 158, 159, 160, 161, 162, 163, 164, 165, 166, 167, 168, 169, 170, 171, 172, 173, 174, 175, 176, 177, 178, 179, 180, 181, 182, 183, 184, 185, 186, 187, 188, 189, 190, 191, 192, 193, 194, 195, 196, 197, 198, 199, 200, 201, 202, 203, 204, 205, 206, 207, 208, 209, 210, 211, 212, 213, 214, 215, 216, 217, 218, 219, 220, 221, 222, 223, 224, 225, 226, 227, 228, 229, 230, 231, 232, 233, 234, 235, 236, 237, 238, 239, 240, 241, 242, 243, 244, 245, 246, 247, 248, 249, 250, 251, 252, 253, 254, 255, 256, 257, 258, 259, 260, 261, 262, 263, 264],
      "LargestImagePixelValue": [12436, 12479, 12208, 11702, 11845, 12024, 11635, 11615, 12258, 11833, 11659, 12355, 11997, 11737, 12104, 11559, 11604, 12006, 11851, 11893, 12077, 11899, 11802, 11978, 11649, 11624, 11970, 11836, 11538, 11967, 11888, 11776, 12129, 11859, 11720, 12078, 11800, 11607, 11779, 11873, 11870, 11966, 11890, 11763, 11899, 11788, 11887, 11718, 12276, 11861, 11845, 12205, 11977, 12115, 12152, 11794, 11810, 11934, 11749, 12308, 12191, 11904, 12304, 12269, 11977, 12483, 12307, 12253, 12819, 12553, 12304, 12544, 12323, 12021, 12266, 12370, 12243, 12591, 12742, 12022, 12331, 12180, 11936, 12280, 12377, 12321, 12606, 12355, 12591, 12723, 12428, 12371, 12637, 12887, 12888, 12839, 12492, 12256, 12581, 12607, 12574, 12612, 12378, 12653, 12667, 12597, 12323, 12283, 12314, 12178, 12097, 12249, 12124, 12010, 12102, 12201, 11972, 11901, 11903, 11940, 11860, 11912, 11903, 11866, 11871, 11763, 11911, 11983, 12116, 12209, 12230, 12097, 11890, 12135, 12006, 11827, 11970, 11843, 11833, 11828, 11886, 11916, 11855, 11758, 11781, 12084, 11905, 11827, 12028, 11938, 12000, 12107, 11764, 11823, 11850, 11982, 11842, 11915, 12104, 11720, 11766, 11911, 11873, 11866, 11883, 11806, 11787, 11715, 11711, 11625, 11627, 11612, 11551, 11693, 11636, 11648, 11778, 11613, 11752, 11623, 11641, 11743, 11610, 11719, 11780, 11732, 11624, 11815, 11639, 11643, 11547, 11468, 11545, 11715, 11512, 11623, 11372, 11382, 11520, 11517, 11243, 11339, 11440, 11522, 11307, 11448, 11477, 11376, 11382, 11415, 11346, 11279, 11425, 11314, 11223, 11288, 11289, 11222, 11305, 11355, 11313, 11167, 11284, 11339, 11218, 11324, 11268, 11236, 11309, 11461, 11319, 11363, 11448, 11265, 11313, 11478, 11372, 11278, 11366, 11360, 11279, 11491, 11545, 11488, 11344, 11473, 11332, 11350, 11263, 11265, 11244, 11181, 11260, 11301, 11389, 11478, 11470, 11616, 11606, 11571, 11642, 11621, 11410, 11568],
      "WindowCenter": [4627.0, 4614.0, 4605.0, 4600.0, 4604.0, 4601.0, 4590.0, 4593.0, 4604.0, 4590.0, 4589.0, 4611.0, 4606.0, 4612.0, 4631.0, 4619.0, 4614.0, 4625.0, 4618.0, 4612.0, 4614.0, 4613.0, 4602.0, 4613.0, 4602.0, 4602.0, 4604.0, 4605.0, 4603.0, 4603.0, 4603.0, 4605.0, 4615.0, 4603.0, 4617.0, 4617.0, 4610.0, 4607.0, 4617.0, 4606.0, 4605.0, 4607.0, 4610.0, 4613.0, 4620.0, 4618.0, 4616.0, 4618.0, 4618.0, 4618.0, 4616.0, 4618.0, 4605.0, 4615.0, 4617.0, 4612.0, 4617.0, 4608.0, 4609.0, 4618.0, 4613.0, 4606.0, 4614.0, 4605.0, 4604.0, 4612.0, 4601.0, 4590.0, 4606.0, 4602.0, 4598.0, 4601.0, 4602.0, 4602.0, 4606.0, 4601.0, 4603.0, 4613.0, 4614.0, 4601.0, 4614.0, 4602.0, 4609.0, 4617.0, 4616.0, 4616.0, 4613.0, 4615.0, 4605.0, 4616.0, 4599.0, 4618.0, 4606.0, 4614.0, 4619.0, 4615.0, 4604.0, 4604.0, 4616.0, 4616.0, 4603.0, 4616.0, 4617.0, 4615.0, 4609.0, 4601.0, 4603.0, 4589.0, 4591.0, 4579.0, 4592.0, 4580.0, 4585.0, 4592.0, 4590.0, 4579.0, 4579.0, 4578.0, 4593.0, 4579.0, 4594.0, 4592.0, 4594.0, 4591.0, 4590.0, 4590.0, 4586.0, 4590.0, 4594.0, 4594.0, 4592.0, 4593.0, 4582.0, 4593.0, 4589.0, 4577.0, 4580.0, 4579.0, 4578.0, 4581.0, 4580.0, 4582.0, 4590.0, 4596.0, 4592.0, 4597.0, 4584.0, 4583.0, 4593.0, 4581.0, 4588.0, 4589.0, 4576.0, 4589.0, 4591.0, 4592.0, 4593.0, 4592.0, 4596.0, 4587.0, 4580.0, 4595.0, 4580.0, 4580.0, 4592.0, 4595.0, 4593.0, 4595.0, 4590.0, 4580.0, 4583.0, 4581.0, 4579.0, 4592.0, 4581.0, 4578.0, 4605.0, 4595.0, 4595.0, 4578.0, 4580.0, 4580.0, 4583.0, 4583.0, 4581.0, 4592.0, 4597.0, 4597.0, 4584.0, 4593.0, 4581.0, 4580.0, 4579.0, 4590.0, 4579.0, 4578.0, 4578.0, 4580.0, 4578.0, 4583.0, 4573.0, 4583.0, 4582.0, 4585.0, 4571.0, 4578.0, 4584.0, 4565.0, 4565.0, 4565.0, 4568.0, 4560.0, 4571.0, 4569.0, 4560.0, 4569.0, 4573.0, 4570.0, 4573.0, 4570.0, 4571.0, 4569.0, 4567.0, 4567.0, 4566.0, 4568.0, 4571.0, 4567.0, 4569.0, 4579.0, 4567.0, 4582.0, 4576.0, 4571.0, 4567.0, 4582.0, 4582.0, 4582.0, 4584.0, 4584.0, 4585.0, 4583.0, 4581.0, 4579.0, 4571.0, 4584.0, 4575.0, 4572.0, 4584.0, 4586.0, 4588.0, 4582.0, 4586.0, 4581.0, 4586.0, 4584.0, 4578.0, 4582.0, 4580.0, 4578.0, 4580.0, 4578.0, 4580.0, 4578.0],
      "WindowWidth": [10294.0, 10269.0, 10255.0, 10244.0, 10252.0, 10244.0, 10229.0, 10235.0, 10250.0, 10229.0, 10227.0, 10262.0, 10257.0, 10265.0, 10297.0, 10280.0, 10269.0, 10283.0, 10273.0, 10261.0, 10266.0, 10262.0, 10246.0, 10263.0, 10245.0, 10245.0, 10251.0, 10252.0, 10246.0, 10248.0, 10246.0, 10252.0, 10268.0, 10249.0, 10271.0, 10274.0, 10264.0, 10258.0, 10273.0, 10256.0, 10254.0, 10257.0, 10256.0, 10265.0, 10282.0, 10276.0, 10272.0, 10276.0, 10275.0, 10273.0, 10271.0, 10274.0, 10255.0, 10268.0, 10270.0, 10261.0, 10274.0, 10260.0, 10263.0, 10276.0, 10262.0, 10254.0, 10263.0, 10252.0, 10246.0, 10254.0, 10237.0, 10221.0, 10241.0, 10236.0, 10229.0, 10237.0, 10239.0, 10239.0, 10248.0, 10236.0, 10243.0, 10259.0, 10261.0, 10242.0, 10263.0, 10244.0, 10260.0, 10270.0, 10267.0, 10268.0, 10263.0, 10262.0, 10250.0, 10264.0, 10234.0, 10268.0, 10252.0, 10260.0, 10272.0, 10263.0, 10247.0, 10249.0, 10266.0, 10266.0, 10247.0, 10267.0, 10266.0, 10265.0, 10250.0, 10238.0, 10240.0, 10215.0, 10218.0, 10199.0, 10220.0, 10203.0, 10204.0, 10220.0, 10217.0, 10200.0, 10201.0, 10198.0, 10224.0, 10204.0, 10229.0, 10226.0, 10229.0, 10222.0, 10221.0, 10220.0, 10211.0, 10221.0, 10229.0, 10231.0, 10227.0, 10226.0, 10210.0, 10226.0, 10216.0, 10197.0, 10204.0, 10200.0, 10200.0, 10207.0, 10205.0, 10210.0, 10221.0, 10231.0, 10225.0, 10236.0, 10213.0, 10210.0, 10223.0, 10204.0, 10212.0, 10215.0, 10196.0, 10218.0, 10224.0, 10225.0, 10230.0, 10228.0, 10235.0, 10214.0, 10207.0, 10229.0, 10204.0, 10205.0, 10224.0, 10232.0, 10230.0, 10234.0, 10223.0, 10208.0, 10215.0, 10209.0, 10204.0, 10225.0, 10209.0, 10204.0, 10251.0, 10236.0, 10234.0, 10203.0, 10206.0, 10205.0, 10209.0, 10210.0, 10208.0, 10226.0, 10239.0, 10238.0, 10218.0, 10229.0, 10210.0, 10204.0, 10204.0, 10220.0, 10200.0, 10198.0, 10200.0, 10202.0, 10200.0, 10212.0, 10196.0, 10212.0, 10211.0, 10215.0, 10192.0, 10198.0, 10213.0, 10178.0, 10178.0, 10175.0, 10181.0, 10173.0, 10188.0, 10184.0, 10172.0, 10185.0, 10195.0, 10190.0, 10197.0, 10188.0, 10191.0, 10186.0, 10181.0, 10181.0, 10179.0, 10185.0, 10192.0, 10183.0, 10188.0, 10203.0, 10182.0, 10207.0, 10194.0, 10192.0, 10183.0, 10209.0, 10212.0, 10210.0, 10214.0, 10214.0, 10216.0, 10211.0, 10208.0, 10202.0, 10194.0, 10212.0, 10202.0, 10195.0, 10216.0, 10219.0, 10226.0, 10214.0, 10223.0, 10211.0, 10221.0, 10215.0, 10201.0, 10209.0, 10205.0, 10198.0, 10204.0, 10200.0, 10201.0, 10197.0]
    },
    "slices": {}
  }
}