{
  "AcquisitionMatrixPE": 106,
  "AcquisitionNumber": 1,
  "AcquisitionTime": "12:09:5.320000",
  "BandwidthPerPixelPhaseEncode": 16.846,
  "BaseResolution": 106,
  "BodyPartExamined": "BRAIN",
  "CoilCombinationMethod": "Sum of Squares",
  "ConsistencyInfo": "N4_VE11C_LATEST_20160120",
  "ConversionSoftware": "dcm2niix",
  "ConversionSoftwareVersion": "v1.0.20220720",
  "DerivedVendorReportedEchoSpacing": 0.000560012,
  "DeviceSerialNumber": "166108",
  "DwellTime": 1.8e-06,
  "EchoTime": 0.0352,
  "EchoTrainLength": 106,
  "EffectiveEchoSpacing": 0.000560012,
  "FlipAngle": 60,
  "HeudiconvVersion": "1.3.0",
  "ImageComments": "Unaliased MB4/PE3/LB",
  "ImageOrientationPatientDICOM": [1, 0, 0, 0, 0.942057, -0.335452],
  "ImageOrientationText": "Tra>Cor(-19.6)",
  "ImageType": [
    "ORIGINAL",
    "PRIMARY",
    "M",
    "MB",
    "ND",
    "MOSAIC"
],
  "ImagingFrequency": 123.244,
  "InPlanePhaseEncodingDirectionDICOM": "COL",
  "InstitutionAddress": "Bedford Way 26,London,London,GB,WC1H 0AP",
  "InstitutionName": "University College",
  "InstitutionalDepartmentName": "Department",
  "MRAcquisitionType": "2D",
  "MagneticFieldStrength": 3,
  "Manufacturer": "Siemens",
  "ManufacturersModelName": "Prisma",
  "MatrixCoilMode": "SENSE",
  "Modality": "MR",
  "MultibandAccelerationFactor": 4,
  "NonlinearGradientCorrection": false,
  "PartialFourier": 1,
  "PatientPosition": "HFS",
  "PercentPhaseFOV": 100,
  "PercentSampling": 100,
  "PhaseEncodingDirection": "j-",
  "PhaseEncodingSteps": 106,
  "PhaseResolution": 1,
  "PixelBandwidth": 2620,
  "ProcedureStepDescription": "Egor^MovieProject2",
  "ProtocolName": "func-bold_task-pRF_run-03",
  "PulseSequenceDetails": "%CustomerSeq%\\cmrr_mbep2d_bold",
  "ReceiveCoilActiveElements": "HEA;HEP",
  "ReceiveCoilName": "Head_32",
  "ReconMatrixPE": 106,
  "RepetitionTime": 1,
  "SAR": 0.0684883,
  "ScanOptions": "FS",
  "ScanningSequence": "EP",
  "SequenceName": "epfid2d1_106",
  "SequenceVariant": "SK\\SS",
  "SeriesDescription": "func-bold_task-pRF_run-03",
  "SeriesNumber": 14,
  "ShimSetting": [-1587, 602, 7458, 599, -54, 146, 58, 5],
  "SliceThickness": 2,
  "SliceTiming": [0, 0.4075, 0.815, 0.245, 0.6525, 0.08, 0.49, 0.8975, 0.325, 0.735, 0.1625, 0.57, 0, 0.4075, 0.815, 0.245, 0.6525, 0.08, 0.49, 0.8975, 0.325, 0.735, 0.1625, 0.57, 0, 0.4075, 0.815, 0.245, 0.6525, 0.08, 0.49, 0.8975, 0.325, 0.735, 0.1625, 0.57, 0, 0.4075, 0.815, 0.245, 0.6525, 0.08, 0.49, 0.8975, 0.325, 0.735, 0.1625, 0.57],
  "SoftwareVersions": "syngo MR E11",
  "SpacingBetweenSlices": 2,
  "StationName": "AWP166108",
  "TaskName": "retinotopy",
  "TotalReadoutTime": 0.0588013,
  "TxRefAmp": 218.641,
  "WipMemBlock": "86318a33-11e0-4522-816d-50bc7e6afc42||Sequence: R016 ve11c/master r/e634e98; Dec 19 2017 11:00:25 by eja",
  "dcmmeta_affine": [
    [-2.0, 0.0, 0.0, 106.0],
    [0.0, 1.8841148614883423, -0.6709031462669373, -75.58124542236328],
    [0.0, 0.6709031462669373, 1.8841149806976318, -48.440773010253906],
    [0.0, 0.0, 0.0, 1.0]
],
  "dcmmeta_reorient_transform": [
    [0.0, -1.0, 0.0, 105.0],
    [1.0, 0.0, 0.0, 0.0],
    [0.0, 0.0, 1.0, 0.0],
    [0.0, 0.0, 0.0, 1.0]
],
  "dcmmeta_shape": [106, 106, 48, 356],
  "dcmmeta_slice_dim": 2,
  "dcmmeta_version": 0.6,
  "global": {
    "const": {
      "AcquisitionMatrix": [106, 0, 0, 106],
      "AngioFlag": "N",
      "BitsAllocated": 16,
      "BitsStored": 16,
      "BodyPartExamined": "BRAIN",
      "Columns": 742,
      "EchoNumbers": 1,
      "EchoTime": 35.2,
      "EchoTrainLength": 106,
      "FlipAngle": 60.0,
      "HighBit": 15,
      "ImageOrientationPatient": [1.0, 0.0, 0.0, 0.0, 0.94205745265343, -0.3354515701262],
      "ImagePositionPatient": [-742.0, -721.39936058174, 235.35125586769],
      "ImageType": [
        "ORIGINAL",
        "PRIMARY",
        "M",
        "MB",
        "ND",
        "MOSAIC"
],
      "ImagedNucleus": "1H",
      "ImagingFrequency": 123.243682,
      "InPlanePhaseEncodingDirection": "COL",
      "MRAcquisitionType": "2D",
      "MagneticFieldStrength": 3.0,
      "Manufacturer": "SIEMENS",
      "ManufacturerModelName": "Prisma",
      "Modality": "MR",
      "NumberOfAverages": 1.0,
      "NumberOfPhaseEncodingSteps": 106,
      "PercentPhaseFieldOfView": 100.0,
      "PercentSampling": 100.0,
      "PerformedProcedureStepStartTime": "105026.890000",
      "PhotometricInterpretation": "MONOCHROME2",
      "PixelBandwidth": 2620.0,
      "PixelRepresentation": 0,
      "PixelSpacing": [2.0, 2.0],
      "ProtocolName": "func-bold_task-pRF_run-03",
      "RepetitionTime": 1000.0,
      "Rows": 742,
      "SAR": 0.06848828773621,
      "SamplesPerPixel": 1,
      "ScanOptions": "FS",
      "ScanningSequence": "EP",
      "SequenceName": "epfid2d1_106",
      "SequenceVariant": [
        "SK",
        "SS"
],
      "SeriesDescription": "func-bold_task-pRF_run-03",
      "SeriesNumber": 14,
      "SeriesTime": "120944.519000",
      "SliceLocation": -20.280143613682,
      "SliceThickness": 2.0,
      "SmallestImagePixelValue": 0,
      "SoftwareVersions": "syngo MR E11",
      "SpacingBetweenSlices": 2.0000000937577,
      "SpecificCharacterSet": "ISO_IR 100",
      "StudyID": "1",
      "StudyTime": "105026.835000",
      "TransmitCoilName": "Body",
      "VariableFlipAngleFlag": "N",
      "WindowCenterWidthExplanation": "Algo1",
      "dBdt": 0.0},
    "slices": {}
  },
  "time": {
    "samples": {
      "AcquisitionNumber": [1, 2, 3, 4, 5, 6, 7, 8, 9, 10, 11, 12, 13, 14, 15, 16, 17, 18, 19, 20, 21, 22, 23, 24, 25, 26, 27, 28, 29, 30, 31, 32, 33, 34, 35, 36, 37, 38, 39, 40, 41, 42, 43, 44, 45, 46, 47, 48, 49, 50, 51, 52, 53, 54, 55, 56, 57, 58, 59, 60, 61, 62, 63, 64, 65, 66, 67, 68, 69, 70, 71, 72, 73, 74, 75, 76, 77, 78, 79, 80, 81, 82, 83, 84, 85, 86, 87, 88, 89, 90, 91, 92, 93, 94, 95, 96, 97, 98, 99, 100, 101, 102, 103, 104, 105, 106, 107, 108, 109, 110, 111, 112, 113, 114, 115, 116, 117, 118, 119, 120, 121, 122, 123, 124, 125, 126, 127, 128, 129, 130, 131, 132, 133, 134, 135, 136, 137, 138, 139, 140, 141, 142, 143, 144, 145, 146, 147, 148, 149, 150, 151, 152, 153, 154, 155, 156, 157, 158, 159, 160, 161, 162, 163, 164, 165, 166, 167, 168, 169, 170, 171, 172, 173, 174, 175, 176, 177, 178, 179, 180, 181, 182, 183, 184, 185, 186, 187, 188, 189, 190, 191, 192, 193, 194, 195, 196, 197, 198, 199, 200, 201, 202, 203, 204, 205, 206, 207, 208, 209, 210, 211, 212, 213, 214, 215, 216, 217, 218, 219, 220, 221, 222, 223, 224, 225, 226, 227, 228, 229, 230, 231, 232, 233, 234, 235, 236, 237, 238, 239, 240, 241, 242, 243, 244, 245, 246, 247, 248, 249, 250, 251, 252, 253, 254, 255, 256, 257, 258, 259, 260, 261, 262, 263, 264, 265, 266, 267, 268, 269, 270, 271, 272, 273, 274, 275, 276, 277, 278, 279, 280, 281, 282, 283, 284, 285, 286, 287, 288, 289, 290, 291, 292, 293, 294, 295, 296, 297, 298, 299, 300, 301, 302, 303, 304, 305, 306, 307, 308, 309, 310, 311, 312, 313, 314, 315, 316, 317, 318, 319, 320, 321, 322, 323, 324, 325, 326, 327, 328, 329, 330, 331, 332, 333, 334, 335, 336, 337, 338, 339, 340, 341, 342, 343, 344, 345, 346, 347, 348, 349, 350, 351, 352, 353, 354, 355, 356],
      "AcquisitionTime": ["120905.320000", "120906.320000", "120907.320000", "120908.320000", "120909.320000", "120910.320000", "120911.320000", "120912.320000", "120913.320000", "120914.320000", "120915.320000", "120916.320000", "120917.320000", "120918.320000", "120919.320000", "120920.320000", "120921.320000", "120922.320000", "120923.320000", "120924.320000", "120925.320000", "120926.320000", "120927.320000", "120928.320000", "120929.320000", "120930.320000", "120931.320000", "120932.320000", "120933.320000", "120934.320000", "120935.320000", "120936.320000", "120937.320000", "120938.320000", "120939.320000", "120940.320000", "120941.320000", "120942.320000", "120943.320000", "120944.320000", "120945.320000", "120946.320000", "120947.320000", "120948.320000", "120949.320000", "120950.320000", "120951.320000", "120952.320000", "120953.320000", "120954.320000", "120955.320000", "120956.320000", "120957.320000", "120958.320000", "120959.320000", "121000.320000", "121001.320000", "121002.320000", "121003.320000", "121004.320000", "121005.320000", "121006.320000", "121007.320000", "121008.320000", "121009.320000", "121010.320000", "121011.320000", "121012.320000", "121013.320000", "121014.320000", "121015.320000", "121016.320000", "121017.320000", "121018.320000", "121019.320000", "121020.320000", "121021.320000", "121022.320000", "121023.320000", "121024.320000", "121025.320000", "121026.320000", "121027.320000", "121028.320000", "121029.320000", "121030.320000", "121031.320000", "121032.320000", "121033.320000", "121034.320000", "121035.320000", "121036.320000", "121037.320000", "121038.320000", "121039.320000", "121040.320000", "121041.320000", "121042.320000", "121043.320000", "121044.320000", "121045.320000", "121046.320000", "121047.320000", "121048.320000", "121049.320000", "121050.320000", "121051.320000", "121052.320000", "121053.320000", "121054.320000", "121055.320000", "121056.320000", "121057.320000", "121058.320000", "121059.320000", "121100.320000", "121101.320000", "121102.320000", "121103.320000", "121104.320000", "121105.320000", "121106.320000", "121107.320000", "121108.320000", "121109.320000", "121110.320000", "121111.320000", "121112.320000", "121113.320000", "121114.320000", "121115.320000", "121116.320000", "121117.320000", "121118.320000", "121119.320000", "121120.320000", "121121.320000", "121122.320000", "121123.320000", "121124.320000", "121125.320000", "121126.320000", "121127.320000", "121128.320000", "121129.320000", "121130.320000", "121131.320000", "121132.320000", "121133.320000", "121134.320000", "121135.320000", "121136.320000", "121137.320000", "121138.320000", "121139.320000", "121140.320000", "121141.320000", "121142.320000", "121143.320000", "121144.320000", "121145.320000", "121146.320000", "121147.320000", "121148.320000", "121149.320000", "121150.320000", "121151.320000", "121152.320000", "121153.320000", "121154.320000", "121155.320000", "121156.320000", "121157.320000", "121158.320000", "121159.320000", "121200.320000", "121201.320000", "121202.320000", "121203.320000", "121204.320000", "121205.320000", "121206.320000", "121207.320000", "121208.320000", "121209.320000", "121210.320000", "121211.320000", "121212.320000", "121213.320000", "121214.320000", "121215.320000", "121216.320000", "121217.320000", "121218.320000", "121219.320000", "121220.320000", "121221.320000", "121222.320000", "121223.320000", "121224.320000", "121225.320000", "121226.320000", "121227.320000", "121228.320000", "121229.320000", "121230.320000", "121231.320000", "121232.320000", "121233.320000", "121234.320000", "121235.320000", "121236.320000", "121237.320000", "121238.320000", "121239.320000", "121240.320000", "121241.320000", "121242.320000", "121243.320000", "121244.320000", "121245.320000", "121246.320000", "121247.320000", "121248.320000", "121249.320000", "121250.320000", "121251.320000", "121252.320000", "121253.320000", "121254.320000", "121255.320000", "121256.320000", "121257.320000", "121258.320000", "121259.320000", "121300.320000", "121301.320000", "121302.320000", "121303.320000", "121304.320000", "121305.320000", "121306.320000", "121307.320000", "121308.320000", "121309.320000", "121310.320000", "121311.320000", "121312.320000", "121313.320000", "121314.320000", "121315.320000", "121316.320000", "121317.320000", "121318.320000", "121319.320000", "121320.320000", "121321.320000", "121322.320000", "121323.320000", "121324.320000", "121325.320000", "121326.320000", "121327.320000", "121328.320000", "121329.320000", "121330.320000", "121331.320000", "121332.320000", "121333.320000", "121334.320000", "121335.320000", "121336.320000", "121337.320000", "121338.320000", "121339.320000", "121340.320000", "121341.320000", "121342.320000", "121343.320000", "121344.320000", "121345.320000", "121346.320000", "121347.320000", "121348.320000", "121349.320000", "121350.320000", "121351.320000", "121352.320000", "121353.320000", "121354.320000", "121355.320000", "121356.320000", "121357.320000", "121358.320000", "121359.320000", "121400.320000", "121401.320000", "121402.320000", "121403.320000", "121404.320000", "121405.320000", "121406.320000", "121407.320000", "121408.320000", "121409.320000", "121410.320000", "121411.320000", "121412.320000", "121413.320000", "121414.320000", "121415.320000", "121416.320000", "121417.320000", "121418.320000", "121419.320000", "121420.320000", "121421.320000", "121422.320000", "121423.320000", "121424.320000", "121425.320000", "121426.320000", "121427.320000", "121428.320000", "121429.320000", "121430.320000", "121431.320000", "121432.320000", "121433.320000", "121434.320000", "121435.320000", "121436.320000", "121437.320000", "121438.320000", "121439.320000", "121440.320000", "121441.320000", "121442.320000", "121443.320000", "121444.320000", "121445.320000", "121446.320000", "121447.320000", "121448.320000", "121449.320000", "121450.320000", "121451.320000", "121452.320000", "121453.320000", "121454.320000", "121455.320000", "121456.320000", "121457.320000", "121458.320000", "121459.320000", "121500.320000"],
      "ContentTime": ["120944.522000", "120944.525000", "120944.528000", "120944.531000", "120944.533000", "120944.536000", "120944.538000", "120944.541000", "120944.543000", "120944.546000", "120944.548000", "120944.551000", "120944.553000", "120944.556000", "120944.558000", "120944.561000", "120944.563000", "120944.566000", "120944.576000", "120944.578000", "120944.581000", "120944.583000", "120944.586000", "120944.589000", "120944.603000", "120944.606000", "120944.608000", "120944.611000", "120944.613000", "120944.616000", "120944.619000", "120944.621000", "120944.623000", "120944.626000", "120944.628000", "120944.631000", "120944.633000", "120944.636000", "121004.490000", "121004.493000", "121004.496000", "121004.499000", "121004.501000", "121004.504000", "121004.506000", "121004.509000", "121004.511000", "121004.514000", "121004.516000", "121004.519000", "121004.521000", "121004.524000", "121004.526000", "121004.529000", "121004.531000", "121004.534000", "121004.536000", "121004.539000", "121024.489000", "121024.492000", "121024.495000", "121024.497000", "121024.500000", "121024.502000", "121024.505000", "121024.507000", "121024.510000", "121024.512000", "121024.515000", "121024.517000", "121024.520000", "121024.522000", "121024.524000", "121024.527000", "121024.530000", "121024.532000", "121024.534000", "121024.537000", "121044.489000", "121044.492000", "121044.494000", "121044.498000", "121044.500000", "121044.503000", "121044.505000", "121044.508000", "121044.510000", "121044.513000", "121044.515000", "121044.518000", "121044.520000", "121044.536000", "121044.539000", "121044.541000", "121044.544000", "121044.546000", "121044.548000", "121044.551000", "121104.489000", "121104.492000", "121104.494000", "121104.498000", "121104.500000", "121104.503000", "121104.505000", "121104.508000", "121104.510000", "121104.513000", "121104.515000", "121104.518000", "121104.529000", "121104.532000", "121104.534000", "121104.537000", "121104.539000", "121104.542000", "121104.544000", "121104.547000", "121124.489000", "121124.492000", "121124.494000", "121124.498000", "121124.500000", "121124.503000", "121124.505000", "121124.508000", "121124.510000", "121124.513000", "121124.515000", "121124.518000", "121124.520000", "121124.523000", "121124.525000", "121124.528000", "121124.530000", "121124.532000", "121124.535000", "121124.537000", "121144.490000", "121144.493000", "121144.495000", "121144.499000", "121144.501000", "121144.504000", "121144.506000", "121144.509000", "121144.511000", "121144.514000", "121144.516000", "121144.519000", "121144.521000", "121144.524000", "121144.526000", "121144.529000", "121144.531000", "121144.534000", "121144.536000", "121144.539000", "121204.490000", "121204.493000", "121204.495000", "121204.499000", "121204.501000", "121204.504000", "121204.506000", "121204.509000", "121204.511000", "121204.514000", "121204.516000", "121204.519000", "121204.521000", "121204.524000", "121204.526000", "121204.529000", "121204.532000", "121204.534000", "121204.537000", "121204.539000", "121224.490000", "121224.493000", "121224.496000", "121224.499000", "121224.501000", "121224.504000", "121224.506000", "121224.509000", "121224.511000", "121224.514000", "121224.516000", "121224.519000", "121224.521000", "121224.524000", "121224.526000", "121224.529000", "121224.531000", "121224.534000", "121224.536000", "121224.539000", "121244.490000", "121244.492000", "121244.495000", "121244.498000", "121244.500000", "121244.503000", "121244.505000", "121244.508000", "121244.511000", "121244.513000", "121244.516000", "121244.519000", "121244.521000", "121244.524000", "121244.526000", "121244.528000", "121244.531000", "121244.533000", "121244.536000", "121244.539000", "121304.489000", "121304.492000", "121304.495000", "121304.498000", "121304.500000", "121304.503000", "121304.505000", "121304.508000", "121304.510000", "121304.513000", "121304.515000", "121304.518000", "121304.520000", "121304.523000", "121304.525000", "121304.528000", "121304.530000", "121304.533000", "121304.535000", "121304.538000", "121324.490000", "121324.492000", "121324.495000", "121324.498000", "121324.500000", "121324.503000", "121324.505000", "121324.508000", "121324.511000", "121324.513000", "121324.516000", "121324.518000", "121324.521000", "121324.523000", "121324.526000", "121324.528000", "121324.531000", "121324.533000", "121324.536000", "121324.538000", "121344.489000", "121344.492000", "121344.495000", "121344.498000", "121344.500000", "121344.503000", "121344.505000", "121344.508000", "121344.510000", "121344.513000", "121344.515000", "121344.518000", "121344.520000", "121344.523000", "121344.526000", "121344.528000", "121344.531000", "121344.533000", "121344.536000", "121344.539000", "121404.491000", "121404.493000", "121404.496000", "121404.499000", "121404.501000", "121404.504000", "121404.506000", "121404.509000", "121404.511000", "121404.514000", "121404.516000", "121404.519000", "121404.521000", "121404.524000", "121404.526000", "121404.529000", "121404.531000", "121404.534000", "121404.536000", "121404.539000", "121424.491000", "121424.494000", "121424.496000", "121424.499000", "121424.502000", "121424.504000", "121424.507000", "121424.510000", "121424.512000", "121424.515000", "121424.530000", "121424.533000", "121424.535000", "121424.538000", "121424.541000", "121424.543000", "121424.546000", "121424.548000", "121424.551000", "121424.553000", "121444.491000", "121444.493000", "121444.496000", "121444.499000", "121444.501000", "121444.504000", "121444.506000", "121444.509000", "121444.512000", "121444.514000", "121444.516000", "121444.519000", "121444.522000", "121444.524000", "121444.527000", "121444.529000", "121444.532000", "121444.534000", "121444.537000", "121444.539000", "121502.354000", "121502.357000", "121502.360000", "121502.362000", "121502.365000", "121502.368000", "121502.370000", "121502.373000", "121502.375000", "121502.378000", "121502.380000", "121502.383000", "121502.385000", "121502.388000", "121502.391000", "121502.393000", "121502.396000", "121502.399000"],
      "InstanceCreationTime": ["120944.522000", "120944.525000", "120944.528000", "120944.531000", "120944.533000", "120944.536000", "120944.538000", "120944.541000", "120944.543000", "120944.546000", "120944.548000", "120944.551000", "120944.553000", "120944.556000", "120944.558000", "120944.561000", "120944.563000", "120944.566000", "120944.576000", "120944.578000", "120944.581000", "120944.583000", "120944.586000", "120944.589000", "120944.603000", "120944.606000", "120944.608000", "120944.611000", "120944.613000", "120944.616000", "120944.619000", "120944.621000", "120944.623000", "120944.626000", "120944.628000", "120944.631000", "120944.633000", "120944.636000", "121004.490000", "121004.493000", "121004.496000", "121004.499000", "121004.501000", "121004.504000", "121004.506000", "121004.509000", "121004.511000", "121004.514000", "121004.516000", "121004.519000", "121004.521000", "121004.524000", "121004.526000", "121004.529000", "121004.531000", "121004.534000", "121004.536000", "121004.539000", "121024.489000", "121024.492000", "121024.495000", "121024.497000", "121024.500000", "121024.502000", "121024.505000", "121024.507000", "121024.510000", "121024.512000", "121024.515000", "121024.517000", "121024.520000", "121024.522000", "121024.524000", "121024.527000", "121024.530000", "121024.532000", "121024.534000", "121024.537000", "121044.489000", "121044.492000", "121044.494000", "121044.498000", "121044.500000", "121044.503000", "121044.505000", "121044.508000", "121044.510000", "121044.513000", "121044.515000", "121044.518000", "121044.520000", "121044.536000", "121044.539000", "121044.541000", "121044.544000", "121044.546000", "121044.548000", "121044.551000", "121104.489000", "121104.492000", "121104.494000", "121104.498000", "121104.500000", "121104.503000", "121104.505000", "121104.508000", "121104.510000", "121104.513000", "121104.515000", "121104.518000", "121104.529000", "121104.532000", "121104.534000", "121104.537000", "121104.539000", "121104.542000", "121104.544000", "121104.547000", "121124.489000", "121124.492000", "121124.494000", "121124.498000", "121124.500000", "121124.503000", "121124.505000", "121124.508000", "121124.510000", "121124.513000", "121124.515000", "121124.518000", "121124.520000", "121124.523000", "121124.525000", "121124.528000", "121124.530000", "121124.532000", "121124.535000", "121124.537000", "121144.490000", "121144.493000", "121144.495000", "121144.499000", "121144.501000", "121144.504000", "121144.506000", "121144.509000", "121144.511000", "121144.514000", "121144.516000", "121144.519000", "121144.521000", "121144.524000", "121144.526000", "121144.529000", "121144.531000", "121144.534000", "121144.536000", "121144.539000", "121204.490000", "121204.493000", "121204.495000", "121204.499000", "121204.501000", "121204.504000", "121204.506000", "121204.509000", "121204.511000", "121204.514000", "121204.516000", "121204.519000", "121204.521000", "121204.524000", "121204.526000", "121204.529000", "121204.532000", "121204.534000", "121204.537000", "121204.539000", "121224.490000", "121224.493000", "121224.496000", "121224.499000", "121224.501000", "121224.504000", "121224.506000", "121224.509000", "121224.511000", "121224.514000", "121224.516000", "121224.519000", "121224.521000", "121224.524000", "121224.526000", "121224.529000", "121224.531000", "121224.534000", "121224.536000", "121224.539000", "121244.490000", "121244.492000", "121244.495000", "121244.498000", "121244.500000", "121244.503000", "121244.505000", "121244.508000", "121244.511000", "121244.513000", "121244.516000", "121244.519000", "121244.521000", "121244.524000", "121244.526000", "121244.528000", "121244.531000", "121244.533000", "121244.536000", "121244.539000", "121304.489000", "121304.492000", "121304.495000", "121304.498000", "121304.500000", "121304.503000", "121304.505000", "121304.508000", "121304.510000", "121304.513000", "121304.515000", "121304.518000", "121304.520000", "121304.523000", "121304.525000", "121304.528000", "121304.530000", "121304.533000", "121304.535000", "121304.538000", "121324.490000", "121324.492000", "121324.495000", "121324.498000", "121324.500000", "121324.503000", "121324.505000", "121324.508000", "121324.511000", "121324.513000", "121324.516000", "121324.518000", "121324.521000", "121324.523000", "121324.526000", "121324.528000", "121324.531000", "121324.533000", "121324.536000", "121324.538000", "121344.489000", "121344.492000", "121344.495000", "121344.498000", "121344.500000", "121344.503000", "121344.505000", "121344.508000", "121344.510000", "121344.513000", "121344.515000", "121344.518000", "121344.520000", "121344.523000", "121344.526000", "121344.528000", "121344.531000", "121344.533000", "121344.536000", "121344.539000", "121404.491000", "121404.493000", "121404.496000", "121404.499000", "121404.501000", "121404.504000", "121404.506000", "121404.509000", "121404.511000", "121404.514000", "121404.516000", "121404.519000", "121404.521000", "121404.524000", "121404.526000", "121404.529000", "121404.531000", "121404.534000", "121404.536000", "121404.539000", "121424.491000", "121424.494000", "121424.496000", "121424.499000", "121424.502000", "121424.504000", "121424.507000", "121424.510000", "121424.512000", "121424.515000", "121424.530000", "121424.533000", "121424.535000", "121424.538000", "121424.541000", "121424.543000", "121424.546000", "121424.548000", "121424.551000", "121424.553000", "121444.491000", "121444.493000", "121444.496000", "121444.499000", "121444.501000", "121444.504000", "121444.506000", "121444.509000", "121444.512000", "121444.514000", "121444.516000", "121444.519000", "121444.522000", "121444.524000", "121444.527000", "121444.529000", "121444.532000", "121444.534000", "121444.537000", "121444.539000", "121502.354000", "121502.357000", "121502.360000", "121502.362000", "121502.365000", "121502.368000", "121502.370000", "121502.373000", "121502.375000", "121502.378000", "121502.380000", "121502.383000", "121502.385000", "121502.388000", "121502.391000", "121502.393000", "121502.396000", "121502.399000"],
      "InstanceNumber": [1, 2, 3, 4, 5, 6, 7, 8, 9, 10, 11, 12, 13, 14, 15, 16, 17, 18, 19, 20, 21, 22, 23, 24, 25, 26, 27, 28, 29, 30, 31, 32, 33, 34, 35, 36, 37, 38, 39, 40, 41, 42, 43, 44, 45, 46, 47, 48, 49, 50, 51, 52, 53, 54, 55, 56, 57, 58, 59, 60, 61, 62, 63, 64, 65, 66, 67, 68, 69, 70, 71, 72, 73, 74, 75, 76, 77, 78, 79, 80, 81, 82, 83, 84, 85, 86, 87, 88, 89, 90, 91, 92, 93, 94, 95, 96, 97, 98, 99, 100, 101, 102, 103, 104, 105, 106, 107, 108, 109, 110, 111, 112, 113, 114, 115, 116, 117, 118, 119, 120, 121, 122, 123, 124, 125, 126, 127, 128, 129, 130, 131, 132, 133, 134, 135, 136, 137, 138, 139, 140, 141, 142, 143, 144, 145, 146, 147, 148, 149, 150, 151, 152, 153, 154, 155, 156, 157, 158, 159, 160, 161, 162, 163, 164, 165, 166, 167, 168, 169, 170, 171, 172, 173, 174, 175, 176, 177, 178, 179, 180, 181, 182, 183, 184, 185, 186, 187, 188, 189, 190, 191, 192, 193, 194, 195, 196, 197, 198, 199, 200, 201, 202, 203, 204, 205, 206, 207, 208, 209, 210, 211, 212, 213, 214, 215, 216, 217, 218, 219, 220, 221, 222, 223, 224, 225, 226, 227, 228, 229, 230, 231, 232, 233, 234, 235, 236, 237, 238, 239, 240, 241, 242, 243, 244, 245, 246, 247, 248, 249, 250, 251, 252, 253, 254, 255, 256, 257, 258, 259, 260, 261, 262, 263, 264, 265, 266, 267, 268, 269, 270, 271, 272, 273, 274, 275, 276, 277, 278, 279, 280, 281, 282, 283, 284, 285, 286, 287, 288, 289, 290, 291, 292, 293, 294, 295, 296, 297, 298, 299, 300, 301, 302, 303, 304, 305, 306, 307, 308, 309, 310, 311, 312, 313, 314, 315, 316, 317, 318, 319, 320, 321, 322, 323, 324, 325, 326, 327, 328, 329, 330, 331, 332, 333, 334, 335, 336, 337, 338, 339, 340, 341, 342, 343, 344, 345, 346, 347, 348, 349, 350, 351, 352, 353, 354, 355, 356],
      "LargestImagePixelValue": [11973, 11599, 11265, 11213, 11185, 11077, 11286, 11411, 11436, 11147, 11120, 10917, 11089, 11316, 11339, 11277, 11337, 11150, 11255, 11357, 11156, 11170, 11376, 11253, 11160, 11087, 11329, 11224, 10994, 11197, 11119, 11114, 11236, 11226, 11070, 11132, 11172, 10928, 10951, 10968, 10911, 10948, 10980, 10895, 10892, 10929, 10863, 10898, 10879, 10893, 10744, 10865, 10706, 10671, 10738, 10806, 10735, 10795, 10675, 10844, 10802, 10779, 10792, 10582, 10766, 10280, 10358, 10403, 10516, 10154, 10237, 10489, 10332, 10322, 10418, 10385, 10207, 10369, 10403, 10226, 10189, 10261, 10155, 10271, 10122, 10343, 10202, 10150, 10197, 10152, 10034, 10096, 10283, 10068, 10021, 10272, 10231, 10107, 10826, 10901, 10716, 10690, 10677, 10479, 10388, 10423, 10208, 10213, 10366, 10237, 10284, 10487, 10257, 10046, 10283, 10341, 10183, 10179, 10463, 10145, 10292, 10285, 10390, 10737, 10650, 10148, 10064, 10155, 10142, 10111, 10340, 10384, 10561, 10525, 10685, 10684, 10478, 10444, 10467, 10640, 10557, 10563, 10524, 10710, 10521, 10599, 10679, 10761, 10394, 10634, 10636, 10634, 10537, 10676, 10662, 10643, 10693, 10902, 11171, 10840, 10908, 11175, 11185, 11237, 11201, 11198, 11077, 11246, 11415, 11347, 11327, 11467, 11403, 11265, 11341, 11429, 11574, 11191, 11314, 11225, 11264, 11204, 11077, 11195, 11197, 11381, 11172, 11303, 11250, 11233, 11290, 11246, 11347, 11341, 11370, 11277, 11275, 11083, 11104, 11044, 11175, 11209, 11263, 11085, 11110, 11099, 11160, 11238, 11186, 11046, 11283, 11170, 11107, 11101, 11297, 11249, 11155, 11179, 11257, 11160, 11100, 11214, 11167, 11272, 11092, 11208, 11153, 11187, 11189, 11125, 10953, 10821, 11123, 10942, 10888, 10854, 10988, 11084, 11118, 11150, 11296, 11331, 11261, 11079, 11212, 11226, 11278, 11257, 11243, 11197, 11244, 11162, 11388, 11249, 11148, 11222, 11168, 11249, 11231, 11213, 11176, 11103, 11316, 11292, 11153, 11082, 11078, 11152, 11069, 11078, 11162, 11302, 11136, 11320, 11352, 11230, 11290, 11436, 11432, 11307, 11439, 11420, 11311, 11465, 11430, 11371, 11056, 11490, 11314, 11193, 11580, 11481, 11300, 11192, 11122, 11288, 11269, 11391, 11327, 11310, 11284, 11397, 11283, 11352, 11383, 11281, 11341, 11329, 11351, 11191, 11327, 11360, 11407, 11470, 11446, 11388, 11407, 11310, 11514, 11417, 11502, 11408, 11400, 11517, 11470, 11554, 11384, 11442, 11494, 11375, 11414, 11445, 11375, 11411, 11397, 11364, 11312, 11260, 11337, 11305, 11288, 11396, 11255, 11248, 11251, 11199, 11393, 11292, 11298, 11329, 11206, 11253, 11236, 11360, 11207, 11152],
