{
  "AcquisitionMatrixPE": 106,
  "AcquisitionNumber": 1,
  "AcquisitionTime": "11:34:21.352500",
  "BandwidthPerPixelPhaseEncode": 13.477,
  "BaseResolution": 106,
  "BodyPartExamined": "BRAIN",
  "CoilCombinationMethod": "Sum of Squares",
  "ConsistencyInfo": "N4_VE11C_LATEST_20160120",
  "ConversionSoftware": "dcm2niix",
  "ConversionSoftwareVersion": "v1.0.20220720",
  "DerivedVendorReportedEchoSpacing": 0.000700005,
  "DeviceSerialNumber": "166108",
  "DwellTime": 2.6e-06,
  "EchoTime": 0.03,
  "EchoTrainLength": 80,
  "EffectiveEchoSpacing": 0.000700005,
  "FlipAngle": 62,
  "HeudiconvVersion": "1.3.0",
  "ImageComments": "Unaliased MB4/PE3/LB",
  "ImageOrientationPatientDICOM": [1, 0, 0, 0, 0.91496, -0.403545],
  "ImageOrientationText": "Tra>Cor(-23.8)",
  "ImageType": [
    "ORIGINAL",
    "PRIMARY",
    "M",
    "MB",
    "ND",
    "MOSAIC"
],
  "ImagingFrequency": 123.244,
  "InPlanePhaseEncodingDirectionDICOM": "COL",
  "InstitutionAddress": "Bedford Way 26,London,London,GB,WC1H 0AP",
  "InstitutionName": "University College",
  "InstitutionalDepartmentName": "Department",
  "MRAcquisitionType": "2D",
  "MagneticFieldStrength": 3,
  "Manufacturer": "Siemens",
  "ManufacturersModelName": "Prisma",
  "MatrixCoilMode": "SENSE",
  "Modality": "MR",
  "MultibandAccelerationFactor": 4,
  "NonlinearGradientCorrection": false,
  "PartialFourier": 0.75,
  "PatientPosition": "HFS",
  "PercentPhaseFOV": 100,
  "PercentSampling": 100,
  "PhaseEncodingDirection": "j-",
  "PhaseEncodingSteps": 80,
  "PhaseResolution": 1,
  "PixelBandwidth": 1815,
  "ProcedureStepDescription": "Egor^MovieProject2",
  "ProtocolName": "func-bold_task-motor_run-02",
  "PulseSequenceDetails": "%CustomerSeq%\\cmrr_mbep2d_bold",
  "ReceiveCoilActiveElements": "HEA;HEP",
  "ReceiveCoilName": "Head_32",
  "ReconMatrixPE": 106,
  "RepetitionTime": 1,
  "SAR": 0.0382347,
  "ScanOptions": "PFP\\FS",
  "ScanningSequence": "EP",
  "SequenceName": "epfid2d1_106",
  "SequenceVariant": "SK\\SS",
  "SeriesDescription": "func-bold_task-motor_run-02",
  "SeriesNumber": 6,
  "ShimSetting": [-1622, 608, 7397, 439, -125, 118, 35, 16],
  "SliceThickness": 2,
  "SliceTiming": [0, 0.5325, 0.0875, 0.6225, 0.1775, 0.7125, 0.265, 0.8, 0.355, 0.89, 0.445, 0, 0.5325, 0.0875, 0.6225, 0.1775, 0.7125, 0.265, 0.8, 0.355, 0.89, 0.445, 0, 0.5325, 0.0875, 0.6225, 0.1775, 0.7125, 0.265, 0.8, 0.355, 0.89, 0.445, 0, 0.5325, 0.0875, 0.6225, 0.1775, 0.7125, 0.265, 0.8, 0.355, 0.89, 0.445],
  "SoftwareVersions": "syngo MR E11",
  "SpacingBetweenSlices": 2,
  "StationName": "AWP166108",
  "TaskName": "somatotopy",
  "TotalReadoutTime": 0.0735005,
  "TxRefAmp": 218.641,
  "WipMemBlock": "84a66c2e-6cb1-449b-a584-fe6c58fb6849||Sequence: R016 ve11c/master r/e634e98; Dec 19 2017 11:00:25 by eja",
  "dcmmeta_affine": [
    [-2.0, 0.0, 0.0, 106.0],
    [0.0, 1.8299193382263184, -0.8070906400680542, -79.4854965209961],
    [0.0, 0.8070906400680542, 1.8299193382263184, -34.46918869018555],
    [0.0, 0.0, 0.0, 1.0]
],
  "dcmmeta_reorient_transform": [
    [0.0, -1.0, 0.0, 105.0],
    [1.0, 0.0, 0.0, 0.0],
    [0.0, 0.0, 1.0, 0.0],
    [0.0, 0.0, 0.0, 1.0]
],
  "dcmmeta_shape": [106, 106, 44, 469],
  "dcmmeta_slice_dim": 2,
  "dcmmeta_version": 0.6,
  "global": {
    "const": {
      "AcquisitionMatrix": [106, 0, 0, 106],
      "AngioFlag": "N",
      "BitsAllocated": 16,
      "BitsStored": 16,
      "BodyPartExamined": "BRAIN",
      "Columns": 742,
      "EchoNumbers": 1,
      "EchoTime": 30.0,
      "EchoTrainLength": 80,
      "FlipAngle": 62.0,
      "HighBit": 15,
      "ImageOrientationPatient": [1.0, 0.0, 0.0, 0.0, 0.91495965822336, -0.4035453181785],
      "ImagePositionPatient": [-742.0, -694.57037642218, 306.93015020498],
      "ImageType": [
        "ORIGINAL",
        "PRIMARY",
        "M",
        "MB",
        "ND",
        "MOSAIC"
],
      "ImagedNucleus": "1H",
      "ImagingFrequency": 123.243685,
      "InPlanePhaseEncodingDirection": "COL",
      "MRAcquisitionType": "2D",
      "MagneticFieldStrength": 3.0,
      "Manufacturer": "SIEMENS",
      "ManufacturerModelName": "Prisma",
      "Modality": "MR",
      "NumberOfAverages": 1.0,
      "NumberOfPhaseEncodingSteps": 80,
      "PercentPhaseFieldOfView": 100.0,
      "PercentSampling": 100.0,
      "PerformedProcedureStepStartTime": "105026.890000",
      "PhotometricInterpretation": "MONOCHROME2",
      "PixelBandwidth": 1815.0,
      "PixelRepresentation": 0,
      "PixelSpacing": [2.0, 2.0],
      "ProtocolName": "func-bold_task-motor_run-02",
      "RepetitionTime": 1000.0,
      "Rows": 742,
      "SAR": 0.03823468420073,
      "SamplesPerPixel": 1,
      "ScanOptions": [
        "PFP",
        "FS"
],
      "ScanningSequence": "EP",
      "SequenceName": "epfid2d1_106",
      "SequenceVariant": [
        "SK",
        "SS"
],
      "SeriesDescription": "func-bold_task-motor_run-02",
      "SeriesNumber": 6,
      "SeriesTime": "113444.458000",
      "SliceLocation": 0.53808177932822,
      "SliceThickness": 2.0,
      "SmallestImagePixelValue": 0,
      "SoftwareVersions": "syngo MR E11",
      "SpacingBetweenSlices": 2.0000000576123,
      "SpecificCharacterSet": "ISO_IR 100",
      "StudyID": "1",
      "StudyTime": "105026.835000",
      "TransmitCoilName": "Body",
      "VariableFlipAngleFlag": "N",
      "WindowCenterWidthExplanation": "Algo1",
      "dBdt": 0.0},
    "slices": {}
  },
  "time": {
    "samples": {
      "AcquisitionNumber": [1, 2, 3, 4, 5, 6, 7, 8, 9, 10, 11, 12, 13, 14, 15, 16, 17, 18, 19, 20, 21, 22, 23, 24, 25, 26, 27, 28, 29, 30, 31, 32, 33, 34, 35, 36, 37, 38, 39, 40, 41, 42, 43, 44, 45, 46, 47, 48, 49, 50, 51, 52, 53, 54, 55, 56, 57, 58, 59, 60, 61, 62, 63, 64, 65, 66, 67, 68, 69, 70, 71, 72, 73, 74, 75, 76, 77, 78, 79, 80, 81, 82, 83, 84, 85, 86, 87, 88, 89, 90, 91, 92, 93, 94, 95, 96, 97, 98, 99, 100, 101, 102, 103, 104, 105, 106, 107, 108, 109, 110, 111, 112, 113, 114, 115, 116, 117, 118, 119, 120, 121, 122, 123, 124, 125, 126, 127, 128, 129, 130, 131, 132, 133, 134, 135, 136, 137, 138, 139, 140, 141, 142, 143, 144, 145, 146, 147, 148, 149, 150, 151, 152, 153, 154, 155, 156, 157, 158, 159, 160, 161, 162, 163, 164, 165, 166, 167, 168, 169, 170, 171, 172, 173, 174, 175, 176, 177, 178, 179, 180, 181, 182, 183, 184, 185, 186, 187, 188, 189, 190, 191, 192, 193, 194, 195, 196, 197, 198, 199, 200, 201, 202, 203, 204, 205, 206, 207, 208, 209, 210, 211, 212, 213, 214, 215, 216, 217, 218, 219, 220, 221, 222, 223, 224, 225, 226, 227, 228, 229, 230, 231, 232, 233, 234, 235, 236, 237, 238, 239, 240, 241, 242, 243, 244, 245, 246, 247, 248, 249, 250, 251, 252, 253, 254, 255, 256, 257, 258, 259, 260, 261, 262, 263, 264, 265, 266, 267, 268, 269, 270, 271, 272, 273, 274, 275, 276, 277, 278, 279, 280, 281, 282, 283, 284, 285, 286, 287, 288, 289, 290, 291, 292, 293, 294, 295, 296, 297, 298, 299, 300, 301, 302, 303, 304, 305, 306, 307, 308, 309, 310, 311, 312, 313, 314, 315, 316, 317, 318, 319, 320, 321, 322, 323, 324, 325, 326, 327, 328, 329, 330, 331, 332, 333, 334, 335, 336, 337, 338, 339, 340, 341, 342, 343, 344, 345, 346, 347, 348, 349, 350, 351, 352, 353, 354, 355, 356, 357, 358, 359, 360, 361, 362, 363, 364, 365, 366, 367, 368, 369, 370, 371, 372, 373, 374, 375, 376, 377, 378, 379, 380, 381, 382, 383, 384, 385, 386, 387, 388, 389, 390, 391, 392, 393, 394, 395, 396, 397, 398, 399, 400, 401, 402, 403, 404, 405, 406, 407, 408, 409, 410, 411, 412, 413, 414, 415, 416, 417, 418, 419, 420, 421, 422, 423, 424, 425, 426, 427, 428, 429, 430, 431, 432, 433, 434, 435, 436, 437, 438, 439, 440, 441, 442, 443, 444, 445, 446, 447, 448, 449, 450, 451, 452, 453, 454, 455, 456, 457, 458, 459, 460, 461, 462, 463, 464, 465, 466, 467, 468, 469],
      "AcquisitionTime": ["113421.352500", "113422.352500", "113423.352500", "113424.352500", "113425.352500", "113426.352500", "113427.352500", "113428.352500", "113429.352500", "113430.352500", "113431.352500", "113432.352500", "113433.352500", "113434.352500", "113435.352500", "113436.352500", "113437.352500", "113438.352500", "113439.352500", "113440.352500", "113441.352500", "113442.352500", "113443.352500", "113444.352500", "113445.352500", "113446.352500", "113447.352500", "113448.352500", "113449.352500", "113450.352500", "113451.352500", "113452.352500", "113453.352500", "113454.352500", "113455.352500", "113456.352500", "113457.352500", "113458.352500", "113459.352500", "113500.352500", "113501.352500", "113502.352500", "113503.352500", "113504.352500", "113505.352500", "113506.352500", "113507.352500", "113508.352500", "113509.352500", "113510.352500", "113511.352500", "113512.352500", "113513.352500", "113514.352500", "113515.352500", "113516.352500", "113517.352500", "113518.352500", "113519.352500", "113520.352500", "113521.352500", "113522.352500", "113523.352500", "113524.352500", "113525.352500", "113526.352500", "113527.352500", "113528.352500", "113529.352500", "113530.352500", "113531.352500", "113532.352500", "113533.352500", "113534.352500", "113535.352500", "113536.352500", "113537.352500", "113538.352500", "113539.352500", "113540.352500", "113541.352500", "113542.352500", "113543.352500", "113544.352500", "113545.352500", "113546.352500", "113547.352500", "113548.352500", "113549.352500", "113550.352500", "113551.352500", "113552.352500", "113553.352500", "113554.352500", "113555.352500", "113556.352500", "113557.352500", "113558.352500", "113559.352500", "113600.352500", "113601.352500", "113602.352500", "113603.352500", "113604.352500", "113605.352500", "113606.352500", "113607.352500", "113608.352500", "113609.352500", "113610.352500", "113611.352500", "113612.352500", "113613.352500", "113614.352500", "113615.352500", "113616.352500", "113617.352500", "113618.352500", "113619.352500", "113620.352500", "113621.352500", "113622.352500", "113623.352500", "113624.352500", "113625.352500", "113626.352500", "113627.352500", "113628.352500", "113629.352500", "113630.352500", "113631.352500", "113632.352500", "113633.352500", "113634.352500", "113635.352500", "113636.352500", "113637.352500", "113638.352500", "113639.352500", "113640.352500", "113641.352500", "113642.352500", "113643.352500", "113644.352500", "113645.352500", "113646.352500", "113647.352500", "113648.352500", "113649.352500", "113650.352500", "113651.352500", "113652.352500", "113653.352500", "113654.352500", "113655.352500", "113656.352500", "113657.352500", "113658.352500", "113659.352500", "113700.352500", "113701.352500", "113702.352500", "113703.352500", "113704.352500", "113705.352500", "113706.352500", "113707.352500", "113708.352500", "113709.352500", "113710.352500", "113711.352500", "113712.352500", "113713.352500", "113714.352500", "113715.352500", "113716.352500", "113717.352500", "113718.352500", "113719.352500", "113720.352500", "113721.352500", "113722.352500", "113723.352500", "113724.352500", "113725.352500", "113726.352500", "113727.352500", "113728.352500", "113729.352500", "113730.352500", "113731.352500", "113732.352500", "113733.352500", "113734.352500", "113735.352500", "113736.352500", "113737.352500", "113738.352500", "113739.352500", "113740.352500", "113741.352500", "113742.352500", "113743.352500", "113744.352500", "113745.352500", "113746.352500", "113747.352500", "113748.352500", "113749.352500", "113750.352500", "113751.352500", "113752.352500", "113753.352500", "113754.352500", "113755.352500", "113756.352500", "113757.352500", "113758.352500", "113759.352500", "113800.352500", "113801.352500", "113802.352500", "113803.352500", "113804.352500", "113805.352500", "113806.352500", "113807.352500", "113808.352500", "113809.352500", "113810.352500", "113811.352500", "113812.352500", "113813.352500", "113814.352500", "113815.352500", "113816.352500", "113817.352500", "113818.352500", "113819.352500", "113820.352500", "113821.352500", "113822.352500", "113823.352500", "113824.352500", "113825.352500", "113826.352500", "113827.352500", "113828.352500", "113829.352500", "113830.352500", "113831.352500", "113832.352500", "113833.352500", "113834.352500", "113835.352500", "113836.352500", "113837.352500", "113838.352500", "113839.352500", "113840.352500", "113841.352500", "113842.352500", "113843.352500", "113844.352500", "113845.352500", "113846.352500", "113847.352500", "113848.352500", "113849.352500", "113850.352500", "113851.352500", "113852.352500", "113853.352500", "113854.352500", "113855.352500", "113856.352500", "113857.352500", "113858.352500", "113859.352500", "113900.352500", "113901.352500", "113902.352500", "113903.352500", "113904.352500", "113905.352500", "113906.352500", "113907.352500", "113908.352500", "113909.352500", "113910.352500", "113911.352500", "113912.352500", "113913.352500", "113914.352500", "113915.352500", "113916.352500", "113917.352500", "113918.352500", "113919.352500", "113920.352500", "113921.352500", "113922.352500", "113923.352500", "113924.352500", "113925.352500", "113926.352500", "113927.352500", "113928.352500", "113929.352500", "113930.352500", "113931.352500", "113932.352500", "113933.352500", "113934.352500", "113935.352500", "113936.352500", "113937.352500", "113938.352500", "113939.352500", "113940.352500", "113941.352500", "113942.352500", "113943.352500", "113944.352500", "113945.352500", "113946.352500", "113947.352500", "113948.352500", "113949.352500", "113950.352500", "113951.352500", "113952.352500", "113953.352500", "113954.352500", "113955.352500", "113956.352500", "113957.352500", "113958.352500", "113959.352500", "114000.352500", "114001.352500", "114002.352500", "114003.352500", "114004.352500", "114005.352500", "114006.352500", "114007.352500", "114008.352500", "114009.352500", "114010.352500", "114011.352500", "114012.352500", "114013.352500", "114014.352500", "114015.352500", "114016.352500", "114017.352500", "114018.352500", "114019.352500", "114020.352500", "114021.352500", "114022.352500", "114023.352500", "114024.352500", "114025.352500", "114026.352500", "114027.352500", "114028.352500", "114029.352500", "114030.352500", "114031.352500", "114032.352500", "114033.352500", "114034.352500", "114035.352500", "114036.352500", "114037.352500", "114038.352500", "114039.352500", "114040.352500", "114041.352500", "114042.352500", "114043.352500", "114044.352500", "114045.352500", "114046.352500", "114047.352500", "114048.352500", "114049.352500", "114050.352500", "114051.352500", "114052.352500", "114053.352500", "114054.352500", "114055.352500", "114056.352500", "114057.352500", "114058.352500", "114059.352500", "114100.352500", "114101.352500", "114102.352500", "114103.352500", "114104.352500", "114105.352500", "114106.352500", "114107.352500", "114108.352500", "114109.352500", "114110.352500", "114111.352500", "114112.352500", "114113.352500", "114114.352500", "114115.352500", "114116.352500", "114117.352500", "114118.352500", "114119.352500", "114120.352500", "114121.352500", "114122.352500", "114123.352500", "114124.352500", "114125.352500", "114126.352500", "114127.352500", "114128.352500", "114129.352500", "114130.352500", "114131.352500", "114132.352500", "114133.352500", "114134.352500", "114135.352500", "114136.352500", "114137.352500", "114138.352500", "114139.352500", "114140.352500", "114141.352500", "114142.352500", "114143.352500", "114144.352500", "114145.352500", "114146.352500", "114147.352500", "114148.352500", "114149.352500", "114150.352500", "114151.352500", "114152.352500", "114153.352500", "114154.352500", "114155.352500", "114156.352500", "114157.352500", "114158.352500", "114159.352500", "114200.352500", "114201.352500", "114202.352500", "114203.352500", "114204.352500", "114205.352500", "114206.352500", "114207.352500", "114208.352500", "114209.352500"],
      "ContentTime": ["113444.461000", "113444.463000", "113444.466000", "113444.469000", "113444.471000", "113444.473000", "113444.476000", "113444.479000", "113444.482000", "113444.484000", "113444.487000", "113444.490000", "113444.492000", "113444.494000", "113444.497000", "113444.500000", "113444.502000", "113444.504000", "113444.514000", "113444.517000", "113444.519000", "113444.522000", "113504.428000", "113504.431000", "113504.433000", "113504.436000", "113504.439000", "113504.441000", "113504.443000", "113504.457000", "113504.460000", "113504.462000", "113504.465000", "113504.468000", "113504.470000", "113504.472000", "113504.475000", "113504.477000", "113504.481000", "113504.484000", "113504.486000", "113504.489000", "113524.428000", "113524.431000", "113524.433000", "113524.436000", "113524.439000", "113524.441000", "113524.444000", "113524.446000", "113524.449000", "113524.451000", "113524.454000", "113524.456000", "113524.459000", "113524.461000", "113524.463000", "113524.466000", "113524.468000", "113524.471000", "113524.473000", "113524.476000", "113544.427000", "113544.430000", "113544.433000", "113544.435000", "113544.438000", "113544.440000", "113544.442000", "113544.445000", "113544.447000", "113544.450000", "113544.452000", "113544.455000", "113544.457000", "113544.460000", "113544.462000", "113544.465000", "113544.467000", "113544.470000", "113544.472000", "113544.493000", "113604.427000", "113604.430000", "113604.432000", "113604.435000", "113604.437000", "113604.440000", "113604.442000", "113604.445000", "113604.447000", "113604.450000", "113604.452000", "113604.455000", "113604.457000", "113604.459000", "113604.462000", "113604.464000", "113604.467000", "113604.469000", "113604.472000", "113604.474000", "113624.427000", "113624.430000", "113624.432000", "113624.435000", "113624.437000", "113624.440000", "113624.442000", "113624.445000", "113624.447000", "113624.450000", "113624.452000", "113624.454000", "113624.457000", "113624.459000", "113624.462000", "113624.464000", "113624.467000", "113624.469000", "113624.471000", "113624.474000", "113644.427000", "113644.430000", "113644.433000", "113644.435000", "113644.438000", "113644.440000", "113644.442000", "113644.445000", "113644.448000", "113644.450000", "113644.452000", "113644.455000", "113644.458000", "113644.460000", "113644.463000", "113644.465000", "113644.468000", "113644.470000", "113644.472000", "113644.475000", "113704.428000", "113704.431000", "113704.434000", "113704.436000", "113704.439000", "113704.441000", "113704.444000", "113704.446000", "113704.449000", "113704.451000", "113704.454000", "113704.456000", "113704.459000", "113704.461000", "113704.463000", "113704.466000", "113704.469000", "113704.471000", "113704.473000", "113704.476000", "113724.428000", "113724.431000", "113724.434000", "113724.436000", "113724.439000", "113724.441000", "113724.443000", "113724.446000", "113724.448000", "113724.451000", "113724.453000", "113724.456000", "113724.458000", "113724.461000", "113724.463000", "113724.466000", "113724.468000", "113724.471000", "113724.473000", "113724.476000", "113744.428000", "113744.431000", "113744.433000", "113744.436000", "113744.439000", "113744.441000", "113744.443000", "113744.446000", "113744.448000", "113744.451000", "113744.453000", "113744.456000", "113744.458000", "113744.461000", "113744.463000", "113744.466000", "113744.468000", "113744.471000", "113744.473000", "113744.476000", "113804.428000", "113804.430000", "113804.433000", "113804.435000", "113804.437000", "113804.440000", "113804.442000", "113804.445000", "113804.447000", "113804.449000", "113804.452000", "113804.454000", "113804.457000", "113804.459000", "113804.462000", "113804.464000", "113804.467000", "113804.469000", "113804.471000", "113804.474000", "113824.427000", "113824.430000", "113824.432000", "113824.435000", "113824.437000", "113824.440000", "113824.442000", "113824.445000", "113824.447000", "113824.450000", "113824.452000", "113824.455000", "113824.457000", "113824.459000", "113824.462000", "113824.464000", "113824.467000", "113824.469000", "113824.471000", "113824.474000", "113844.427000", "113844.430000", "113844.433000", "113844.435000", "113844.437000", "113844.440000", "113844.442000", "113844.445000", "113844.447000", "113844.450000", "113844.452000", "113844.454000", "113844.457000", "113844.459000", "113844.462000", "113844.464000", "113844.466000", "113844.469000", "113844.471000", "113844.474000", "113904.427000", "113904.430000", "113904.432000", "113904.435000", "113904.437000", "113904.440000", "113904.442000", "113904.445000", "113904.447000", "113904.449000", "113904.452000", "113904.454000", "113904.457000", "113904.459000", "113904.462000", "113904.464000", "113904.467000", "113904.469000", "113904.471000", "113904.474000", "113924.428000", "113924.431000", "113924.433000", "113924.436000", "113924.438000", "113924.441000", "113924.443000", "113924.445000", "113924.448000", "113924.450000", "113924.453000", "113924.455000", "113924.457000", "113924.460000", "113924.462000", "113924.465000", "113924.467000", "113924.469000", "113924.472000", "113924.474000", "113944.429000", "113944.431000", "113944.434000", "113944.436000", "113944.438000", "113944.441000", "113944.443000", "113944.446000", "113944.448000", "113944.451000", "113944.453000", "113944.455000", "113944.458000", "113944.460000", "113944.463000", "113944.465000", "113944.468000", "113944.470000", "113944.472000", "113944.475000", "114004.428000", "114004.431000", "114004.434000", "114004.436000", "114004.439000", "114004.441000", "114004.444000", "114004.446000", "114004.448000", "114004.451000", "114004.453000", "114004.456000", "114004.458000", "114004.461000", "114004.463000", "114004.465000", "114004.468000", "114004.470000", "114004.473000", "114004.475000", "114024.427000", "114024.430000", "114024.433000", "114024.435000", "114024.438000", "114024.440000", "114024.442000", "114024.445000", "114024.447000", "114024.450000", "114024.452000", "114024.455000", "114024.457000", "114024.460000", "114024.462000", "114024.465000", "114024.467000", "114024.469000", "114024.472000", "114024.474000", "114044.427000", "114044.430000", "114044.432000", "114044.435000", "114044.437000", "114044.440000", "114044.442000", "114044.444000", "114044.447000", "114044.449000", "114044.452000", "114044.454000", "114044.457000", "114044.459000", "114044.462000", "114044.464000", "114044.467000", "114044.469000", "114044.471000", "114044.474000", "114104.427000", "114104.430000", "114104.432000", "114104.435000", "114104.437000", "114104.440000", "114104.442000", "114104.444000", "114104.447000", "114104.449000", "114104.452000", "114104.455000", "114104.457000", "114104.460000", "114104.462000", "114104.465000", "114104.467000", "114104.470000", "114104.472000", "114104.475000", "114124.427000", "114124.430000", "114124.432000", "114124.435000", "114124.437000", "114124.440000", "114124.442000", "114124.444000", "114124.447000", "114124.449000", "114124.452000", "114124.454000", "114124.457000", "114124.459000", "114124.462000", "114124.464000", "114124.466000", "114124.469000", "114124.471000", "114124.474000", "114144.429000", "114144.431000", "114144.434000", "114144.436000", "114144.439000", "114144.441000", "114144.444000", "114144.446000", "114144.449000", "114144.451000", "114144.454000", "114144.456000", "114144.459000", "114144.461000", "114144.463000", "114144.466000", "114144.468000", "114144.471000", "114144.473000", "114144.476000", "114204.429000", "114204.431000", "114204.434000", "114204.436000", "114204.439000", "114204.441000", "114204.444000", "114204.446000", "114204.449000", "114204.451000", "114204.454000", "114204.456000", "114204.458000", "114204.461000", "114204.463000", "114204.466000", "114204.468000", "114204.471000", "114204.473000", "114204.476000", "114210.580000", "114210.583000", "114210.585000", "114210.588000", "114210.591000", "114210.593000", "114210.596000"],
