{
  "AcquisitionMatrixPE": 106,
  "AcquisitionNumber": 1,
  "AcquisitionTime": "10:43:58.007500",
  "BandwidthPerPixelPhaseEncode": 13.477,
  "BaseResolution": 106,
  "BodyPartExamined": "BRAIN",
  "CoilCombinationMethod": "Sum of Squares",
  "ConsistencyInfo": "N4_VE11C_LATEST_20160120",
  "ConversionSoftware": "dcm2niix",
  "ConversionSoftwareVersion": "v1.0.20220720",
  "DerivedVendorReportedEchoSpacing": 0.000700005,
  "DeviceSerialNumber": "166108",
  "DwellTime": 2.6e-06,
  "EchoTime": 0.03,
  "EchoTrainLength": 80,
  "EffectiveEchoSpacing": 0.000700005,
  "FlipAngle": 62,
  "HeudiconvVersion": "1.3.0",
  "ImageComments": "Unaliased MB4/PE3/LB",
  "ImageOrientationPatientDICOM": [1, 0, 0, 0, 0.997684, -0.0680153],
  "ImageOrientationText": "Tra>Cor(-3.9)",
  "ImageType": [
    "ORIGINAL",
    "PRIMARY",
    "M",
    "MB",
    "ND",
    "MOSAIC"
],
  "ImagingFrequency": 123.244,
  "InPlanePhaseEncodingDirectionDICOM": "COL",
  "InstitutionAddress": "Bedford Way 26,London,London,GB,WC1H 0AP",
  "InstitutionName": "University College",
  "InstitutionalDepartmentName": "Department",
  "MRAcquisitionType": "2D",
  "MagneticFieldStrength": 3,
  "Manufacturer": "Siemens",
  "ManufacturersModelName": "Prisma",
  "MatrixCoilMode": "SENSE",
  "Modality": "MR",
  "MultibandAccelerationFactor": 4,
  "NonlinearGradientCorrection": false,
  "PartialFourier": 0.75,
  "PatientPosition": "HFS",
  "PercentPhaseFOV": 100,
  "PercentSampling": 100,
  "PhaseEncodingDirection": "j-",
  "PhaseEncodingSteps": 80,
  "PhaseResolution": 1,
  "PixelBandwidth": 1815,
  "ProcedureStepDescription": "Egor^MovieProject2",
  "ProtocolName": "func-bold_task-motor_run-02",
  "PulseSequenceDetails": "%CustomerSeq%\\cmrr_mbep2d_bold",
  "ReceiveCoilActiveElements": "HEA;HEP",
  "ReceiveCoilName": "Head_32",
  "ReconMatrixPE": 106,
  "RepetitionTime": 1,
  "SAR": 0.036264,
  "ScanOptions": "PFP\\FS\\EXT",
  "ScanningSequence": "EP",
  "SequenceName": "epfid2d1_106",
  "SequenceVariant": "SK\\SS",
  "SeriesDescription": "func-bold_task-motor_run-02",
  "SeriesNumber": 6,
  "ShimSetting": [-1577, 617, 7422, 390, -32, 244, 113, -34],
  "SliceThickness": 2,
  "SliceTiming": [0, 0.535, 0.09, 0.6225, 0.1775, 0.7125, 0.2675, 0.8025, 0.3575, 0.89, 0.445, 0, 0.535, 0.09, 0.6225, 0.1775, 0.7125, 0.2675, 0.8025, 0.3575, 0.89, 0.445, 0, 0.535, 0.09, 0.6225, 0.1775, 0.7125, 0.2675, 0.8025, 0.3575, 0.89, 0.445, 0, 0.535, 0.09, 0.6225, 0.1775, 0.7125, 0.2675, 0.8025, 0.3575, 0.89, 0.445],
  "SoftwareVersions": "syngo MR E11",
  "SpacingBetweenSlices": 2,
  "StationName": "AWP166108",
  "TaskName": "somatotopy",
  "TotalReadoutTime": 0.0735005,
  "TxRefAmp": 220.585,
  "WipMemBlock": "021a2f98-28f9-4add-8d79-2e10ae254f19||Sequence: R016 ve11c/master r/e634e98; Dec 19 2017 11:00:25 by eja",
  "dcmmeta_affine": [
    [-2.0, 0.0, 0.0, 106.0],
    [0.0, 1.9953685998916626, -0.13603058457374573, -95.3455581665039],
    [0.0, 0.13603058457374573, 1.995368480682373, -18.80351448059082],
    [0.0, 0.0, 0.0, 1.0]
],
  "dcmmeta_reorient_transform": [
    [0.0, -1.0, 0.0, 105.0],
    [1.0, 0.0, 0.0, 0.0],
    [0.0, 0.0, 1.0, 0.0],
    [0.0, 0.0, 0.0, 1.0]
],
  "dcmmeta_shape": [106, 106, 44, 469],
  "dcmmeta_slice_dim": 2,
  "dcmmeta_version": 0.6,
  "global": {
    "const": {
      "AcquisitionMatrix": [106, 0, 0, 106],
      "AngioFlag": "N",
      "BitsAllocated": 16,
      "BitsStored": 16,
      "BodyPartExamined": "BRAIN",
      "CardiacNumberOfImages": 1,
      "Columns": 742,
      "EchoNumbers": 1,
      "EchoTime": 30.0,
      "EchoTrainLength": 80,
      "FlipAngle": 62.0,
      "HighBit": 15,
      "ImageOrientationPatient": [1.0, 0.0, 0.0, 0.0, 0.99768427877948, -0.0680152914885],
      "ImagePositionPatient": [-742.0, -748.69533863703, 38.737423036204],
      "ImageType": [
        "ORIGINAL",
        "PRIMARY",
        "M",
        "MB",
        "ND",
        "MOSAIC"
],
      "ImagedNucleus": "1H",
      "ImagingFrequency": 123.243696,
      "InPlanePhaseEncodingDirection": "COL",
      "MRAcquisitionType": "2D",
      "MagneticFieldStrength": 3.0,
      "Manufacturer": "SIEMENS",
      "ManufacturerModelName": "Prisma",
      "Modality": "MR",
      "NominalInterval": 0,
      "NumberOfAverages": 1.0,
      "NumberOfPhaseEncodingSteps": 80,
      "PercentPhaseFieldOfView": 100.0,
      "PercentSampling": 100.0,
      "PerformedProcedureStepStartTime": "101956.343000",
      "PhotometricInterpretation": "MONOCHROME2",
      "PixelBandwidth": 1815.0,
      "PixelRepresentation": 0,
      "PixelSpacing": [2.0, 2.0],
      "ProtocolName": "func-bold_task-motor_run-02",
      "RepetitionTime": 1000.0,
      "Rows": 742,
      "SAR": 0.03626404239695,
      "SamplesPerPixel": 1,
      "ScanOptions": [
        "PFP",
        "FS",
        "EXT"
],
      "ScanningSequence": "EP",
      "SequenceName": "epfid2d1_106",
      "SequenceVariant": [
        "SK",
        "SS"
],
      "SeriesDescription": "func-bold_task-motor_run-02",
      "SeriesNumber": 6,
      "SeriesTime": "104427.802000",
      "SliceLocation": -12.275013729856,
      "SliceThickness": 2.0,
      "SmallestImagePixelValue": 0,
      "SoftwareVersions": "syngo MR E11",
      "SpacingBetweenSlices": 1.9999999558936,
      "SpecificCharacterSet": "ISO_IR 100",
      "StudyID": "1",
      "StudyTime": "101956.283000",
      "TransmitCoilName": "Body",
      "VariableFlipAngleFlag": "N",
      "WindowCenterWidthExplanation": "Algo1",
      "dBdt": 0.0},
    "slices": {}
  },
  "time": {
    "samples": {
      "AcquisitionNumber": [1, 2, 3, 4, 5, 6, 7, 8, 9, 10, 11, 12, 13, 14, 15, 16, 17, 18, 19, 20, 21, 22, 23, 24, 25, 26, 27, 28, 29, 30, 31, 32, 33, 34, 35, 36, 37, 38, 39, 40, 41, 42, 43, 44, 45, 46, 47, 48, 49, 50, 51, 52, 53, 54, 55, 56, 57, 58, 59, 60, 61, 62, 63, 64, 65, 66, 67, 68, 69, 70, 71, 72, 73, 74, 75, 76, 77, 78, 79, 80, 81, 82, 83, 84, 85, 86, 87, 88, 89, 90, 91, 92, 93, 94, 95, 96, 97, 98, 99, 100, 101, 102, 103, 104, 105, 106, 107, 108, 109, 110, 111, 112, 113, 114, 115, 116, 117, 118, 119, 120, 121, 122, 123, 124, 125, 126, 127, 128, 129, 130, 131, 132, 133, 134, 135, 136, 137, 138, 139, 140, 141, 142, 143, 144, 145, 146, 147, 148, 149, 150, 151, 152, 153, 154, 155, 156, 157, 158, 159, 160, 161, 162, 163, 164, 165, 166, 167, 168, 169, 170, 171, 172, 173, 174, 175, 176, 177, 178, 179, 180, 181, 182, 183, 184, 185, 186, 187, 188, 189, 190, 191, 192, 193, 194, 195, 196, 197, 198, 199, 200, 201, 202, 203, 204, 205, 206, 207, 208, 209, 210, 211, 212, 213, 214, 215, 216, 217, 218, 219, 220, 221, 222, 223, 224, 225, 226, 227, 228, 229, 230, 231, 232, 233, 234, 235, 236, 237, 238, 239, 240, 241, 242, 243, 244, 245, 246, 247, 248, 249, 250, 251, 252, 253, 254, 255, 256, 257, 258, 259, 260, 261, 262, 263, 264, 265, 266, 267, 268, 269, 270, 271, 272, 273, 274, 275, 276, 277, 278, 279, 280, 281, 282, 283, 284, 285, 286, 287, 288, 289, 290, 291, 292, 293, 294, 295, 296, 297, 298, 299, 300, 301, 302, 303, 304, 305, 306, 307, 308, 309, 310, 311, 312, 313, 314, 315, 316, 317, 318, 319, 320, 321, 322, 323, 324, 325, 326, 327, 328, 329, 330, 331, 332, 333, 334, 335, 336, 337, 338, 339, 340, 341, 342, 343, 344, 345, 346, 347, 348, 349, 350, 351, 352, 353, 354, 355, 356, 357, 358, 359, 360, 361, 362, 363, 364, 365, 366, 367, 368, 369, 370, 371, 372, 373, 374, 375, 376, 377, 378, 379, 380, 381, 382, 383, 384, 385, 386, 387, 388, 389, 390, 391, 392, 393, 394, 395, 396, 397, 398, 399, 400, 401, 402, 403, 404, 405, 406, 407, 408, 409, 410, 411, 412, 413, 414, 415, 416, 417, 418, 419, 420, 421, 422, 423, 424, 425, 426, 427, 428, 429, 430, 431, 432, 433, 434, 435, 436, 437, 438, 439, 440, 441, 442, 443, 444, 445, 446, 447, 448, 449, 450, 451, 452, 453, 454, 455, 456, 457, 458, 459, 460, 461, 462, 463, 464, 465, 466, 467, 468, 469],
      "AcquisitionTime": ["104358.007500", "104359.007500", "104400.007500", "104401.007500", "104402.007500", "104403.007500", "104404.007500", "104405.007500", "104406.007500", "104407.007500", "104408.007500", "104409.007500", "104410.007500", "104411.007500", "104412.007500", "104413.007500", "104414.007500", "104415.007500", "104416.007500", "104417.007500", "104418.007500", "104419.007500", "104420.007500", "104421.007500", "104422.007500", "104423.007500", "104424.007500", "104425.007500", "104426.007500", "104427.007500", "104428.007500", "104429.007500", "104430.007500", "104431.007500", "104432.007500", "104433.007500", "104434.007500", "104435.007500", "104436.007500", "104437.007500", "104438.007500", "104439.007500", "104440.007500", "104441.007500", "104442.007500", "104443.007500", "104444.007500", "104445.007500", "104446.007500", "104447.007500", "104448.007500", "104449.007500", "104450.007500", "104451.007500", "104452.007500", "104453.007500", "104454.007500", "104455.007500", "104456.007500", "104457.007500", "104458.007500", "104459.007500", "104500.007500", "104501.007500", "104502.007500", "104503.007500", "104504.007500", "104505.007500", "104506.007500", "104507.007500", "104508.007500", "104509.007500", "104510.007500", "104511.007500", "104512.007500", "104513.007500", "104514.007500", "104515.007500", "104516.007500", "104517.007500", "104518.007500", "104519.007500", "104520.007500", "104521.007500", "104522.007500", "104523.007500", "104524.007500", "104525.007500", "104526.007500", "104527.007500", "104528.007500", "104529.007500", "104530.007500", "104531.007500", "104532.007500", "104533.007500", "104534.007500", "104535.007500", "104536.007500", "104537.007500", "104538.007500", "104539.007500", "104540.007500", "104541.007500", "104542.007500", "104543.007500", "104544.007500", "104545.007500", "104546.007500", "104547.007500", "104548.007500", "104549.007500", "104550.007500", "104551.007500", "104552.007500", "104553.007500", "104554.007500", "104555.007500", "104556.007500", "104557.007500", "104558.007500", "104559.007500", "104600.007500", "104601.007500", "104602.007500", "104603.007500", "104604.007500", "104605.007500", "104606.007500", "104607.007500", "104608.007500", "104609.007500", "104610.007500", "104611.007500", "104612.007500", "104613.007500", "104614.007500", "104615.007500", "104616.007500", "104617.007500", "104618.007500", "104619.007500", "104620.007500", "104621.007500", "104622.007500", "104623.007500", "104624.007500", "104625.007500", "104626.007500", "104627.007500", "104628.007500", "104629.007500", "104630.007500", "104631.007500", "104632.007500", "104633.007500", "104634.007500", "104635.007500", "104636.007500", "104637.007500", "104638.007500", "104639.007500", "104640.007500", "104641.007500", "104642.007500", "104643.007500", "104644.007500", "104645.007500", "104646.007500", "104647.007500", "104648.007500", "104649.007500", "104650.007500", "104651.007500", "104652.007500", "104653.007500", "104654.007500", "104655.007500", "104656.007500", "104657.007500", "104658.007500", "104659.007500", "104700.007500", "104701.007500", "104702.007500", "104703.007500", "104704.007500", "104705.007500", "104706.007500", "104707.007500", "104708.007500", "104709.007500", "104710.007500", "104711.007500", "104712.007500", "104713.007500", "104714.007500", "104715.007500", "104716.007500", "104717.007500", "104718.007500", "104719.007500", "104720.007500", "104721.007500", "104722.007500", "104723.007500", "104724.007500", "104725.007500", "104726.007500", "104727.007500", "104728.007500", "104729.007500", "104730.007500", "104731.007500", "104732.007500", "104733.007500", "104734.007500", "104735.007500", "104736.007500", "104737.007500", "104738.007500", "104739.007500", "104740.007500", "104741.007500", "104742.007500", "104743.007500", "104744.007500", "104745.007500", "104746.007500", "104747.007500", "104748.007500", "104749.007500", "104750.007500", "104751.007500", "104752.007500", "104753.007500", "104754.007500", "104755.007500", "104756.007500", "104757.007500", "104758.007500", "104759.007500", "104800.007500", "104801.007500", "104802.007500", "104803.007500", "104804.007500", "104805.007500", "104806.007500", "104807.007500", "104808.007500", "104809.007500", "104810.007500", "104811.007500", "104812.007500", "104813.007500", "104814.007500", "104815.007500", "104816.007500", "104817.007500", "104818.007500", "104819.007500", "104820.007500", "104821.007500", "104822.007500", "104823.007500", "104824.007500", "104825.007500", "104826.007500", "104827.007500", "104828.007500", "104829.007500", "104830.007500", "104831.007500", "104832.007500", "104833.007500", "104834.007500", "104835.007500", "104836.007500", "104837.007500", "104838.007500", "104839.007500", "104840.007500", "104841.007500", "104842.007500", "104843.007500", "104844.007500", "104845.007500", "104846.007500", "104847.007500", "104848.007500", "104849.007500", "104850.007500", "104851.007500", "104852.007500", "104853.007500", "104854.007500", "104855.007500", "104856.007500", "104857.007500", "104858.007500", "104859.007500", "104900.007500", "104901.007500", "104902.007500", "104903.007500", "104904.007500", "104905.007500", "104906.007500", "104907.007500", "104908.007500", "104909.007500", "104910.007500", "104911.007500", "104912.007500", "104913.007500", "104914.007500", "104915.007500", "104916.007500", "104917.007500", "104918.007500", "104919.007500", "104920.007500", "104921.007500", "104922.007500", "104923.007500", "104924.007500", "104925.007500", "104926.007500", "104927.007500", "104928.007500", "104929.007500", "104930.007500", "104931.007500", "104932.007500", "104933.007500", "104934.007500", "104935.007500", "104936.007500", "104937.007500", "104938.007500", "104939.007500", "104940.007500", "104941.007500", "104942.007500", "104943.007500", "104944.007500", "104945.007500", "104946.007500", "104947.007500", "104948.007500", "104949.007500", "104950.007500", "104951.007500", "104952.007500", "104953.007500", "104954.007500", "104955.007500", "104956.007500", "104957.007500", "104958.007500", "104959.007500", "105000.007500", "105001.007500", "105002.007500", "105003.007500", "105004.007500", "105005.007500", "105006.007500", "105007.007500", "105008.007500", "105009.007500", "105010.007500", "105011.007500", "105012.007500", "105013.007500", "105014.007500", "105015.007500", "105016.007500", "105017.007500", "105018.007500", "105019.007500", "105020.007500", "105021.007500", "105022.007500", "105023.007500", "105024.007500", "105025.007500", "105026.007500", "105027.007500", "105028.007500", "105029.007500", "105030.007500", "105031.007500", "105032.007500", "105033.007500", "105034.007500", "105035.007500", "105036.007500", "105037.007500", "105038.007500", "105039.007500", "105040.007500", "105041.007500", "105042.007500", "105043.007500", "105044.007500", "105045.007500", "105046.007500", "105047.007500", "105048.007500", "105049.007500", "105050.007500", "105051.007500", "105052.007500", "105053.007500", "105054.007500", "105055.007500", "105056.007500", "105057.007500", "105058.007500", "105059.007500", "105100.007500", "105101.007500", "105102.007500", "105103.007500", "105104.007500", "105105.007500", "105106.007500", "105107.007500", "105108.007500", "105109.007500", "105110.007500", "105111.007500", "105112.007500", "105113.007500", "105114.007500", "105115.007500", "105116.007500", "105117.007500", "105118.007500", "105119.007500", "105120.007500", "105121.007500", "105122.007500", "105123.007500", "105124.007500", "105125.007500", "105126.007500", "105127.007500", "105128.007500", "105129.007500", "105130.007500", "105131.007500", "105132.007500", "105133.007500", "105134.007500", "105135.007500", "105136.007500", "105137.007500", "105138.007500", "105139.007500", "105140.007500", "105141.007500", "105142.007500", "105143.007500", "105144.007500", "105145.007500", "105146.007500"],
      "ContentTime": ["104427.805000", "104427.818000", "104427.821000", "104427.823000", "104427.826000", "104427.829000", "104427.831000", "104427.834000", "104427.836000", "104427.839000", "104427.851000", "104427.853000", "104427.856000", "104427.858000", "104427.860000", "104427.863000", "104427.868000", "104427.871000", "104427.873000", "104427.876000", "104427.878000", "104427.881000", "104427.883000", "104427.886000", "104427.888000", "104427.891000", "104427.893000", "104427.896000", "104447.770000", "104447.773000", "104447.776000", "104447.779000", "104447.781000", "104447.784000", "104447.786000", "104447.789000", "104447.791000", "104447.794000", "104447.796000", "104447.799000", "104447.801000", "104447.803000", "104447.806000", "104447.808000", "104447.811000", "104447.813000", "104447.816000", "104447.818000", "104507.770000", "104507.773000", "104507.775000", "104507.778000", "104507.780000", "104507.783000", "104507.785000", "104507.788000", "104507.790000", "104507.793000", "104507.795000", "104507.798000", "104507.872000", "104507.875000", "104507.877000", "104507.880000", "104507.882000", "104507.895000", "104507.898000", "104507.901000", "104527.771000", "104527.774000", "104527.777000", "104527.779000", "104527.784000", "104527.787000", "104527.789000", "104527.792000", "104527.806000", "104527.809000", "104527.811000", "104527.814000", "104527.816000", "104527.819000", "104527.821000", "104527.824000", "104527.826000", "104527.829000", "104527.831000", "104527.834000", "104547.771000", "104547.774000", "104547.777000", "104547.779000", "104547.781000", "104547.784000", "104547.786000", "104547.789000", "104547.791000", "104547.794000", "104547.797000", "104547.800000", "104547.802000", "104547.805000", "104547.807000", "104547.810000", "104547.812000", "104547.815000", "104547.817000", "104547.820000", "104607.772000", "104607.775000", "104607.777000", "104607.780000", "104607.783000", "104607.786000", "104607.788000", "104607.791000", "104607.793000", "104607.796000", "104607.798000", "104607.834000", "104607.837000", "104607.839000", "104607.842000", "104607.844000", "104607.847000", "104607.849000", "104607.851000", "104607.854000", "104627.772000", "104627.774000", "104627.777000", "104627.780000", "104627.782000", "104627.785000", "104627.787000", "104627.790000", "104627.793000", "104627.795000", "104627.797000", "104627.800000", "104627.803000", "104627.805000", "104627.808000", "104627.810000", "104627.813000", "104627.815000", "104627.818000", "104627.820000", "104647.771000", "104647.774000", "104647.777000", "104647.780000", "104647.784000", "104647.787000", "104647.789000", "104647.792000", "104647.794000", "104647.797000", "104647.799000", "104647.802000", "104647.804000", "104647.807000", "104647.809000", "104647.812000", "104647.815000", "104647.817000", "104647.819000", "104647.822000", "104707.770000", "104707.773000", "104707.776000", "104707.778000", "104707.781000", "104707.792000", "104707.795000", "104707.797000", "104707.800000", "104707.802000", "104707.805000", "104707.808000", "104707.810000", "104707.813000", "104707.815000", "104707.818000", "104707.820000", "104707.823000", "104707.825000", "104707.828000", "104727.771000", "104727.774000", "104727.776000", "104727.779000", "104727.781000", "104727.784000", "104727.787000", "104727.791000", "104727.794000", "104727.796000", "104727.799000", "104727.802000", "104727.804000", "104727.807000", "104727.809000", "104727.812000", "104727.814000", "104727.816000", "104727.819000", "104727.821000", "104747.770000", "104747.773000", "104747.776000", "104747.778000", "104747.781000", "104747.784000", "104747.786000", "104747.791000", "104747.794000", "104747.796000", "104747.799000", "104747.802000", "104747.805000", "104747.807000", "104747.809000", "104747.812000", "104747.814000", "104747.817000", "104747.819000", "104747.822000", "104807.771000", "104807.774000", "104807.777000", "104807.780000", "104807.784000", "104807.787000", "104807.789000", "104807.792000", "104807.794000", "104807.797000", "104807.799000", "104807.802000", "104807.804000", "104807.807000", "104807.809000", "104807.812000", "104807.814000", "104807.817000", "104807.819000", "104807.822000", "104827.772000", "104827.775000", "104827.777000", "104827.780000", "104827.783000", "104827.786000", "104827.788000", "104827.791000", "104827.793000", "104827.796000", "104827.798000", "104827.801000", "104827.803000", "104827.806000", "104827.808000", "104827.811000", "104827.813000", "104827.816000", "104827.818000", "104827.821000", "104847.772000", "104847.775000", "104847.777000", "104847.780000", "104847.782000", "104847.785000", "104847.787000", "104847.790000", "104847.792000", "104847.795000", "104847.797000", "104847.840000", "104847.842000", "104847.845000", "104847.847000", "104847.850000", "104847.852000", "104847.855000", "104847.857000", "104847.860000", "104907.771000", "104907.775000", "104907.777000", "104907.780000", "104907.782000", "104907.785000", "104907.788000", "104907.790000", "104907.793000", "104907.795000", "104907.798000", "104907.801000", "104907.816000", "104907.818000", "104907.820000", "104907.823000", "104907.825000", "104907.828000", "104907.830000", "104907.833000", "104927.771000", "104927.774000", "104927.777000", "104927.780000", "104927.784000", "104927.787000", "104927.789000", "104927.792000", "104927.795000", "104927.797000", "104927.989000", "104927.991000", "104927.994000", "104927.996000", "104927.999000", "104928.001000", "104928.004000", "104928.006000", "104928.009000", "104928.011000", "104947.770000", "104947.773000", "104947.776000", "104947.778000", "104947.781000", "104947.783000", "104947.786000", "104947.789000", "104947.793000", "104947.795000", "104947.798000", "104947.800000", "104947.803000", "104947.805000", "104947.807000", "104947.810000", "104947.813000", "104947.815000", "104947.818000", "104947.820000", "105007.771000", "105007.774000", "105007.777000", "105007.779000", "105007.783000", "105007.786000", "105007.788000", "105007.791000", "105007.794000", "105007.796000", "105007.799000", "105007.801000", "105007.804000", "105007.806000", "105007.809000", "105007.811000", "105007.814000", "105007.816000", "105007.819000", "105007.821000", "105027.771000", "105027.774000", "105027.777000", "105027.779000", "105027.782000", "105027.793000", "105027.795000", "105027.798000", "105027.811000", "105027.814000", "105027.816000", "105027.819000", "105027.821000", "105027.824000", "105027.826000", "105027.829000", "105027.831000", "105027.834000", "105027.836000", "105027.839000", "105047.771000", "105047.774000", "105047.777000", "105047.780000", "105047.782000", "105047.785000", "105047.787000", "105047.791000", "105047.794000", "105047.796000", "105047.799000", "105047.821000", "105047.824000", "105047.826000", "105047.828000", "105047.831000", "105047.833000", "105047.836000", "105047.838000", "105047.841000", "105107.771000", "105107.774000", "105107.777000", "105107.779000", "105107.782000", "105107.784000", "105107.787000", "105107.789000", "105107.792000", "105107.795000", "105107.797000", "105107.834000", "105107.837000", "105107.839000", "105107.842000", "105107.844000", "105107.847000", "105107.849000", "105107.852000", "105107.854000", "105127.772000", "105127.775000", "105127.777000", "105127.780000", "105127.783000", "105127.786000", "105127.788000", "105127.791000", "105127.793000", "105127.796000", "105127.798000", "105127.801000", "105127.803000", "105127.806000", "105127.808000", "105127.811000", "105127.813000", "105127.816000", "105127.818000", "105127.821000", "105147.771000", "105147.774000", "105147.777000", "105147.780000", "105147.783000", "105147.786000", "105147.789000", "105147.791000", "105147.794000", "105147.797000", "105147.800000", "105147.804000", "105147.807000", "105147.810000", "105147.813000", "105147.816000", "105147.819000", "105147.822000", "105147.824000", "105147.828000", "105147.874000"],
