{
  "AcquisitionMatrixPE": 106,
  "AcquisitionNumber": 1,
  "AcquisitionTime": "11:22:43.290000",
  "BandwidthPerPixelPhaseEncode": 16.846,
  "BaseResolution": 106,
  "BodyPartExamined": "BRAIN",
  "CoilCombinationMethod": "Sum of Squares",
  "ConsistencyInfo": "N4_VE11C_LATEST_20160120",
  "ConversionSoftware": "dcm2niix",
  "ConversionSoftwareVersion": "v1.0.20220720",
  "DerivedVendorReportedEchoSpacing": 0.000560012,
  "DeviceSerialNumber": "166108",
  "DwellTime": 1.8e-06,
  "EchoTime": 0.0352,
  "EchoTrainLength": 106,
  "EffectiveEchoSpacing": 0.000560012,
  "FlipAngle": 60,
  "HeudiconvVersion": "1.3.0",
  "ImageComments": "Unaliased MB4/PE3/LB",
  "ImageOrientationPatientDICOM": [1, 0, 0, 0, 0.991216, -0.132256],
  "ImageOrientationText": "Tra>Cor(-7.6)",
  "ImageType": [
    "ORIGINAL",
    "PRIMARY",
    "M",
    "MB",
    "ND",
    "MOSAIC"
],
  "ImagingFrequency": 123.244,
  "InPlanePhaseEncodingDirectionDICOM": "COL",
  "InstitutionAddress": "Bedford Way 26,London,London,GB,WC1H 0AP",
  "InstitutionName": "University College",
  "InstitutionalDepartmentName": "Department",
  "MRAcquisitionType": "2D",
  "MagneticFieldStrength": 3,
  "Manufacturer": "Siemens",
  "ManufacturersModelName": "Prisma",
  "MatrixCoilMode": "SENSE",
  "Modality": "MR",
  "MultibandAccelerationFactor": 4,
  "NonlinearGradientCorrection": false,
  "PartialFourier": 1,
  "PatientPosition": "HFS",
  "PercentPhaseFOV": 100,
  "PercentSampling": 100,
  "PhaseEncodingDirection": "j-",
  "PhaseEncodingSteps": 106,
  "PhaseResolution": 1,
  "PixelBandwidth": 2620,
  "ProcedureStepDescription": "Egor^MovieProject2",
  "ProtocolName": "func-bold_task-pRF_run-03",
  "PulseSequenceDetails": "%CustomerSeq%\\cmrr_mbep2d_bold",
  "ReceiveCoilActiveElements": "HEA;HEP",
  "ReceiveCoilName": "Head_32",
  "ReconMatrixPE": 106,
  "RepetitionTime": 1,
  "SAR": 0.0649584,
  "ScanOptions": "FS\\EXT",
  "ScanningSequence": "EP",
  "SequenceName": "epfid2d1_106",
  "SequenceVariant": "SK\\SS",
  "SeriesDescription": "func-bold_task-pRF_run-03",
  "SeriesNumber": 16,
  "ShimSetting": [-1574, 605, 7466, 488, -19, 213, 149, -47],
  "SliceThickness": 2,
  "SliceTiming": [0, 0.4075, 0.8175, 0.245, 0.6525, 0.0825, 0.49, 0.8975, 0.3275, 0.735, 0.1625, 0.5725, 0, 0.4075, 0.8175, 0.245, 0.6525, 0.0825, 0.49, 0.8975, 0.3275, 0.735, 0.1625, 0.5725, 0, 0.4075, 0.8175, 0.245, 0.6525, 0.0825, 0.49, 0.8975, 0.3275, 0.735, 0.1625, 0.5725, 0, 0.4075, 0.8175, 0.245, 0.6525, 0.0825, 0.49, 0.8975, 0.3275, 0.735, 0.1625, 0.5725],
  "SoftwareVersions": "syngo MR E11",
  "SpacingBetweenSlices": 2,
  "StationName": "AWP166108",
  "TaskName": "retinotopy",
  "TotalReadoutTime": 0.0588013,
  "TxRefAmp": 220.585,
  "WipMemBlock": "ed363e34-42fe-4a23-a1e9-9ec9cccc90c1||Sequence: R016 ve11c/master r/e634e98; Dec 19 2017 11:00:25 by eja",
  "dcmmeta_affine": [
    [-2.0, 0.0, 0.0, 106.0],
    [0.0, 1.9824310541152954, -0.2645127773284912, -90.08482360839844],
    [0.0, 0.2645128071308136, 1.9824310541152954, -35.66709518432617],
    [0.0, 0.0, 0.0, 1.0]
],
  "dcmmeta_reorient_transform": [
    [0.0, -1.0, 0.0, 105.0],
    [1.0, 0.0, 0.0, 0.0],
    [0.0, 0.0, 1.0, 0.0],
    [0.0, 0.0, 0.0, 1.0]
],
  "dcmmeta_shape": [106, 106, 48, 356],
  "dcmmeta_slice_dim": 2,
  "dcmmeta_version": 0.6,
  "global": {
    "const": {
      "AcquisitionMatrix": [106, 0, 0, 106],
      "AngioFlag": "N",
      "BitsAllocated": 16,
      "BitsStored": 16,
      "BodyPartExamined": "BRAIN",
      "CardiacNumberOfImages": 1,
      "Columns": 742,
      "EchoNumbers": 1,
      "EchoTime": 35.2,
      "EchoTrainLength": 106,
      "FlipAngle": 60.0,
      "HighBit": 15,
      "ImageOrientationPatient": [1.0, 0.0, 0.0, 0.0, 0.99121553937119, -0.132256396855],
      "ImagePositionPatient": [-742.0, -748.48352284953, 76.221814749506],
      "ImageType": [
        "ORIGINAL",
        "PRIMARY",
        "M",
        "MB",
        "ND",
        "MOSAIC"
],
      "ImagedNucleus": "1H",
      "ImagingFrequency": 123.243689,
      "InPlanePhaseEncodingDirection": "COL",
      "MRAcquisitionType": "2D",
      "MagneticFieldStrength": 3.0,
      "Manufacturer": "SIEMENS",
      "ManufacturerModelName": "Prisma",
      "Modality": "MR",
      "NominalInterval": 0,
      "NumberOfAverages": 1.0,
      "NumberOfPhaseEncodingSteps": 106,
      "PercentPhaseFieldOfView": 100.0,
      "PercentSampling": 100.0,
      "PerformedProcedureStepStartTime": "101956.343000",
      "PhotometricInterpretation": "MONOCHROME2",
      "PixelBandwidth": 2620.0,
      "PixelRepresentation": 0,
      "PixelSpacing": [2.0, 2.0],
      "ProtocolName": "func-bold_task-pRF_run-03",
      "RepetitionTime": 1000.0,
      "Rows": 742,
      "SAR": 0.06495835659978,
      "SamplesPerPixel": 1,
      "ScanOptions": [
        "FS",
        "EXT"
],
      "ScanningSequence": "EP",
      "SequenceName": "epfid2d1_106",
      "SequenceVariant": [
        "SK",
        "SS"
],
      "SeriesDescription": "func-bold_task-pRF_run-03",
      "SeriesNumber": 16,
      "SeriesTime": "112318.209000",
      "SliceLocation": -23.439486618649,
      "SliceThickness": 2.0,
      "SmallestImagePixelValue": 0,
      "SoftwareVersions": "syngo MR E11",
      "SpacingBetweenSlices": 1.9999999264936,
      "SpecificCharacterSet": "ISO_IR 100",
      "StudyID": "1",
      "StudyTime": "101956.283000",
      "TransmitCoilName": "Body",
      "VariableFlipAngleFlag": "N",
      "WindowCenterWidthExplanation": "Algo1",
      "dBdt": 0.0},
    "slices": {}
  },
  "time": {
    "samples": {
      "AcquisitionNumber": [1, 2, 3, 4, 5, 6, 7, 8, 9, 10, 11, 12, 13, 14, 15, 16, 17, 18, 19, 20, 21, 22, 23, 24, 25, 26, 27, 28, 29, 30, 31, 32, 33, 34, 35, 36, 37, 38, 39, 40, 41, 42, 43, 44, 45, 46, 47, 48, 49, 50, 51, 52, 53, 54, 55, 56, 57, 58, 59, 60, 61, 62, 63, 64, 65, 66, 67, 68, 69, 70, 71, 72, 73, 74, 75, 76, 77, 78, 79, 80, 81, 82, 83, 84, 85, 86, 87, 88, 89, 90, 91, 92, 93, 94, 95, 96, 97, 98, 99, 100, 101, 102, 103, 104, 105, 106, 107, 108, 109, 110, 111, 112, 113, 114, 115, 116, 117, 118, 119, 120, 121, 122, 123, 124, 125, 126, 127, 128, 129, 130, 131, 132, 133, 134, 135, 136, 137, 138, 139, 140, 141, 142, 143, 144, 145, 146, 147, 148, 149, 150, 151, 152, 153, 154, 155, 156, 157, 158, 159, 160, 161, 162, 163, 164, 165, 166, 167, 168, 169, 170, 171, 172, 173, 174, 175, 176, 177, 178, 179, 180, 181, 182, 183, 184, 185, 186, 187, 188, 189, 190, 191, 192, 193, 194, 195, 196, 197, 198, 199, 200, 201, 202, 203, 204, 205, 206, 207, 208, 209, 210, 211, 212, 213, 214, 215, 216, 217, 218, 219, 220, 221, 222, 223, 224, 225, 226, 227, 228, 229, 230, 231, 232, 233, 234, 235, 236, 237, 238, 239, 240, 241, 242, 243, 244, 245, 246, 247, 248, 249, 250, 251, 252, 253, 254, 255, 256, 257, 258, 259, 260, 261, 262, 263, 264, 265, 266, 267, 268, 269, 270, 271, 272, 273, 274, 275, 276, 277, 278, 279, 280, 281, 282, 283, 284, 285, 286, 287, 288, 289, 290, 291, 292, 293, 294, 295, 296, 297, 298, 299, 300, 301, 302, 303, 304, 305, 306, 307, 308, 309, 310, 311, 312, 313, 314, 315, 316, 317, 318, 319, 320, 321, 322, 323, 324, 325, 326, 327, 328, 329, 330, 331, 332, 333, 334, 335, 336, 337, 338, 339, 340, 341, 342, 343, 344, 345, 346, 347, 348, 349, 350, 351, 352, 353, 354, 355, 356],
      "AcquisitionTime": ["112243.290000", "112244.290000", "112245.290000", "112246.290000", "112247.290000", "112248.290000", "112249.290000", "112250.290000", "112251.290000", "112252.290000", "112253.290000", "112254.290000", "112255.290000", "112256.290000", "112257.290000", "112258.290000", "112259.290000", "112300.290000", "112301.290000", "112302.290000", "112303.290000", "112304.290000", "112305.290000", "112306.290000", "112307.290000", "112308.290000", "112309.290000", "112310.290000", "112311.290000", "112312.290000", "112313.290000", "112314.290000", "112315.290000", "112316.290000", "112317.290000", "112318.290000", "112319.290000", "112320.290000", "112321.290000", "112322.290000", "112323.290000", "112324.290000", "112325.290000", "112326.290000", "112327.290000", "112328.290000", "112329.290000", "112330.290000", "112331.290000", "112332.290000", "112333.290000", "112334.290000", "112335.290000", "112336.290000", "112337.290000", "112338.290000", "112339.290000", "112340.290000", "112341.290000", "112342.290000", "112343.290000", "112344.290000", "112345.290000", "112346.290000", "112347.290000", "112348.290000", "112349.290000", "112350.290000", "112351.290000", "112352.290000", "112353.290000", "112354.290000", "112355.290000", "112356.290000", "112357.290000", "112358.290000", "112359.290000", "112400.290000", "112401.290000", "112402.290000", "112403.290000", "112404.290000", "112405.290000", "112406.290000", "112407.290000", "112408.290000", "112409.290000", "112410.290000", "112411.290000", "112412.290000", "112413.290000", "112414.290000", "112415.290000", "112416.290000", "112417.290000", "112418.290000", "112419.290000", "112420.290000", "112421.290000", "112422.290000", "112423.290000", "112424.290000", "112425.290000", "112426.290000", "112427.290000", "112428.290000", "112429.290000", "112430.290000", "112431.290000", "112432.290000", "112433.290000", "112434.290000", "112435.290000", "112436.290000", "112437.290000", "112438.290000", "112439.290000", "112440.290000", "112441.290000", "112442.290000", "112443.290000", "112444.290000", "112445.290000", "112446.290000", "112447.290000", "112448.290000", "112449.290000", "112450.290000", "112451.290000", "112452.290000", "112453.290000", "112454.290000", "112455.290000", "112456.290000", "112457.290000", "112458.290000", "112459.290000", "112500.290000", "112501.290000", "112502.290000", "112503.290000", "112504.290000", "112505.290000", "112506.290000", "112507.290000", "112508.290000", "112509.290000", "112510.290000", "112511.290000", "112512.290000", "112513.290000", "112514.290000", "112515.290000", "112516.290000", "112517.290000", "112518.290000", "112519.290000", "112520.290000", "112521.290000", "112522.290000", "112523.290000", "112524.290000", "112525.290000", "112526.290000", "112527.290000", "112528.290000", "112529.290000", "112530.290000", "112531.290000", "112532.290000", "112533.290000", "112534.290000", "112535.290000", "112536.290000", "112537.290000", "112538.290000", "112539.290000", "112540.290000", "112541.290000", "112542.290000", "112543.290000", "112544.290000", "112545.290000", "112546.290000", "112547.290000", "112548.290000", "112549.290000", "112550.290000", "112551.290000", "112552.290000", "112553.290000", "112554.290000", "112555.290000", "112556.290000", "112557.290000", "112558.290000", "112559.290000", "112600.290000", "112601.290000", "112602.290000", "112603.290000", "112604.290000", "112605.290000", "112606.290000", "112607.290000", "112608.290000", "112609.290000", "112610.290000", "112611.290000", "112612.290000", "112613.290000", "112614.290000", "112615.290000", "112616.290000", "112617.290000", "112618.290000", "112619.290000", "112620.290000", "112621.290000", "112622.290000", "112623.290000", "112624.290000", "112625.290000", "112626.290000", "112627.290000", "112628.290000", "112629.290000", "112630.290000", "112631.290000", "112632.290000", "112633.290000", "112634.290000", "112635.290000", "112636.290000", "112637.290000", "112638.290000", "112639.290000", "112640.290000", "112641.290000", "112642.290000", "112643.290000", "112644.290000", "112645.290000", "112646.290000", "112647.290000", "112648.290000", "112649.290000", "112650.290000", "112651.290000", "112652.290000", "112653.290000", "112654.290000", "112655.290000", "112656.290000", "112657.290000", "112658.290000", "112659.290000", "112700.290000", "112701.290000", "112702.290000", "112703.290000", "112704.290000", "112705.290000", "112706.290000", "112707.290000", "112708.290000", "112709.290000", "112710.290000", "112711.290000", "112712.290000", "112713.290000", "112714.290000", "112715.290000", "112716.290000", "112717.290000", "112718.290000", "112719.290000", "112720.290000", "112721.290000", "112722.290000", "112723.290000", "112724.290000", "112725.290000", "112726.290000", "112727.290000", "112728.290000", "112729.290000", "112730.290000", "112731.290000", "112732.290000", "112733.290000", "112734.290000", "112735.290000", "112736.290000", "112737.290000", "112738.290000", "112739.290000", "112740.290000", "112741.290000", "112742.290000", "112743.290000", "112744.290000", "112745.290000", "112746.290000", "112747.290000", "112748.290000", "112749.290000", "112750.290000", "112751.290000", "112752.290000", "112753.290000", "112754.290000", "112755.290000", "112756.290000", "112757.290000", "112758.290000", "112759.290000", "112800.290000", "112801.290000", "112802.290000", "112803.290000", "112804.290000", "112805.290000", "112806.290000", "112807.290000", "112808.290000", "112809.290000", "112810.290000", "112811.290000", "112812.290000", "112813.290000", "112814.290000", "112815.290000", "112816.290000", "112817.290000", "112818.290000", "112819.290000", "112820.290000", "112821.290000", "112822.290000", "112823.290000", "112824.290000", "112825.290000", "112826.290000", "112827.290000", "112828.290000", "112829.290000", "112830.290000", "112831.290000", "112832.290000", "112833.290000", "112834.290000", "112835.290000", "112836.290000", "112837.290000", "112838.290000"],
      "ContentTime": ["112318.212000", "112318.214000", "112318.217000", "112318.219000", "112318.222000", "112318.225000", "112318.227000", "112318.234000", "112318.236000", "112318.239000", "112318.241000", "112318.244000", "112318.246000", "112318.249000", "112318.251000", "112318.254000", "112318.256000", "112318.259000", "112318.262000", "112318.264000", "112318.267000", "112318.269000", "112318.272000", "112318.274000", "112318.277000", "112318.279000", "112318.282000", "112318.284000", "112318.287000", "112318.289000", "112318.292000", "112318.294000", "112318.297000", "112318.299000", "112338.185000", "112338.188000", "112338.191000", "112338.193000", "112338.196000", "112338.198000", "112338.201000", "112338.203000", "112338.206000", "112338.208000", "112338.211000", "112338.231000", "112338.233000", "112338.236000", "112338.239000", "112338.241000", "112338.244000", "112338.246000", "112338.249000", "112338.251000", "112358.186000", "112358.190000", "112358.195000", "112358.198000", "112358.200000", "112358.203000", "112358.205000", "112358.208000", "112358.210000", "112358.213000", "112358.215000", "112358.218000", "112358.220000", "112358.223000", "112358.225000", "112358.228000", "112358.230000", "112358.233000", "112358.235000", "112358.238000", "112418.186000", "112418.190000", "112418.192000", "112418.195000", "112418.197000", "112418.200000", "112418.203000", "112418.205000", "112418.208000", "112418.210000", "112418.213000", "112418.215000", "112418.218000", "112418.220000", "112418.223000", "112418.225000", "112418.228000", "112418.230000", "112418.233000", "112418.235000", "112438.186000", "112438.188000", "112438.191000", "112438.193000", "112438.196000", "112438.198000", "112438.201000", "112438.203000", "112438.206000", "112438.209000", "112438.211000", "112438.213000", "112438.216000", "112438.219000", "112438.221000", "112438.223000", "112438.226000", "112438.229000", "112438.231000", "112438.234000", "112458.185000", "112458.189000", "112458.191000", "112458.194000", "112458.196000", "112458.199000", "112458.207000", "112458.210000", "112458.212000", "112458.215000", "112458.217000", "112458.220000", "112458.222000", "112458.225000", "112458.227000", "112458.230000", "112458.232000", "112458.235000", "112458.237000", "112458.240000", "112518.185000", "112518.188000", "112518.191000", "112518.193000", "112518.196000", "112518.199000", "112518.201000", "112518.204000", "112518.206000", "112518.209000", "112518.211000", "112518.214000", "112518.216000", "112518.219000", "112518.221000", "112518.224000", "112518.226000", "112518.229000", "112518.231000", "112518.234000", "112538.185000", "112538.188000", "112538.191000", "112538.193000", "112538.196000", "112538.198000", "112538.201000", "112538.203000", "112538.206000", "112538.208000", "112538.211000", "112538.213000", "112538.216000", "112538.219000", "112538.221000", "112538.224000", "112538.226000", "112538.229000", "112538.231000", "112538.234000", "112558.185000", "112558.188000", "112558.191000", "112558.193000", "112558.196000", "112558.198000", "112558.201000", "112558.203000", "112558.206000", "112558.209000", "112558.211000", "112558.214000", "112558.216000", "112558.219000", "112558.221000", "112558.224000", "112558.226000", "112558.229000", "112558.231000", "112558.234000", "112618.186000", "112618.189000", "112618.191000", "112618.194000", "112618.197000", "112618.199000", "112618.202000", "112618.204000", "112618.207000", "112618.209000", "112618.212000", "112618.215000", "112618.217000", "112618.220000", "112618.222000", "112618.225000", "112618.227000", "112618.230000", "112618.232000", "112618.235000", "112638.187000", "112638.189000", "112638.201000", "112638.204000", "112638.206000", "112638.209000", "112638.211000", "112638.214000", "112638.216000", "112638.219000", "112638.221000", "112638.224000", "112638.226000", "112638.229000", "112638.231000", "112638.234000", "112638.237000", "112638.239000", "112638.242000", "112638.244000", "112658.185000", "112658.188000", "112658.191000", "112658.193000", "112658.196000", "112658.198000", "112658.201000", "112658.203000", "112658.206000", "112658.208000", "112658.211000", "112658.213000", "112658.216000", "112658.219000", "112658.221000", "112658.224000", "112658.226000", "112658.229000", "112658.231000", "112658.234000", "112718.185000", "112718.188000", "112718.191000", "112718.193000", "112718.196000", "112718.199000", "112718.201000", "112718.219000", "112718.222000", "112718.224000", "112718.227000", "112718.229000", "112718.232000", "112718.234000", "112718.237000", "112718.239000", "112718.242000", "112718.244000", "112718.247000", "112718.249000", "112738.185000", "112738.188000", "112738.191000", "112738.193000", "112738.196000", "112738.199000", "112738.201000", "112738.204000", "112738.206000", "112738.209000", "112738.211000", "112738.214000", "112738.216000", "112738.219000", "112738.221000", "112738.224000", "112738.227000", "112738.229000", "112738.232000", "112738.234000", "112758.185000", "112758.188000", "112758.191000", "112758.193000", "112758.196000", "112758.199000", "112758.201000", "112758.204000", "112758.206000", "112758.209000", "112758.211000", "112758.214000", "112758.216000", "112758.219000", "112758.222000", "112758.224000", "112758.227000", "112758.229000", "112758.232000", "112758.234000", "112818.186000", "112818.188000", "112818.191000", "112818.194000", "112818.196000", "112818.199000", "112818.201000", "112818.204000", "112818.206000", "112818.209000", "112818.211000", "112818.214000", "112818.217000", "112818.219000", "112818.222000", "112818.224000", "112818.227000", "112818.229000", "112818.232000", "112818.234000", "112838.186000", "112838.189000", "112838.192000", "112838.194000", "112838.197000", "112838.199000", "112838.202000", "112838.205000", "112838.207000", "112838.210000", "112838.212000", "112838.215000", "112838.217000", "112838.220000", "112838.222000", "112838.225000", "112838.227000", "112838.230000", "112838.232000", "112838.235000", "112840.009000", "112840.012000"],
      "InstanceCreationTime": ["112318.212000", "112318.214000", "112318.217000", "112318.219000", "112318.222000", "112318.225000", "112318.227000", "112318.234000", "112318.236000", "112318.239000", "112318.241000", "112318.244000", "112318.246000", "112318.249000", "112318.251000", "112318.254000", "112318.256000", "112318.259000", "112318.262000", "112318.264000", "112318.267000", "112318.269000", "112318.272000", "112318.274000", "112318.277000", "112318.279000", "112318.282000", "112318.284000", "112318.287000", "112318.289000", "112318.292000", "112318.294000", "112318.297000", "112318.299000", "112338.185000", "112338.188000", "112338.191000", "112338.193000", "112338.196000", "112338.198000", "112338.201000", "112338.203000", "112338.206000", "112338.208000", "112338.211000", "112338.231000", "112338.233000", "112338.236000", "112338.239000", "112338.241000", "112338.244000", "112338.246000", "112338.249000", "112338.251000", "112358.186000", "112358.190000", "112358.195000", "112358.198000", "112358.200000", "112358.203000", "112358.205000", "112358.208000", "112358.210000", "112358.213000", "112358.215000", "112358.218000", "112358.220000", "112358.223000", "112358.225000", "112358.228000", "112358.230000", "112358.233000", "112358.235000", "112358.238000", "112418.186000", "112418.190000", "112418.192000", "112418.195000", "112418.197000", "112418.200000", "112418.203000", "112418.205000", "112418.208000", "112418.210000", "112418.213000", "112418.215000", "112418.218000", "112418.220000", "112418.223000", "112418.225000", "112418.228000", "112418.230000", "112418.233000", "112418.235000", "112438.186000", "112438.188000", "112438.191000", "112438.193000", "112438.196000", "112438.198000", "112438.201000", "112438.203000", "112438.206000", "112438.209000", "112438.211000", "112438.213000", "112438.216000", "112438.219000", "112438.221000", "112438.223000", "112438.226000", "112438.229000", "112438.231000", "112438.234000", "112458.185000", "112458.189000", "112458.191000", "112458.194000", "112458.196000", "112458.199000", "112458.207000", "112458.210000", "112458.212000", "112458.215000", "112458.217000", "112458.220000", "112458.222000", "112458.225000", "112458.227000", "112458.230000", "112458.232000", "112458.235000", "112458.237000", "112458.240000", "112518.185000", "112518.188000", "112518.191000", "112518.193000", "112518.196000", "112518.199000", "112518.201000", "112518.204000", "112518.206000", "112518.209000", "112518.211000", "112518.214000", "112518.216000", "112518.219000", "112518.221000", "112518.224000", "112518.226000", "112518.229000", "112518.231000", "112518.234000", "112538.185000", "112538.188000", "112538.191000", "112538.193000", "112538.196000", "112538.198000", "112538.201000", "112538.203000", "112538.206000", "112538.208000", "112538.211000", "112538.213000", "112538.216000", "112538.219000", "112538.221000", "112538.224000", "112538.226000", "112538.229000", "112538.231000", "112538.234000", "112558.185000", "112558.188000", "112558.191000", "112558.193000", "112558.196000", "112558.198000", "112558.201000", "112558.203000", "112558.206000", "112558.209000", "112558.211000", "112558.214000", "112558.216000", "112558.219000", "112558.221000", "112558.224000", "112558.226000", "112558.229000", "112558.231000", "112558.234000", "112618.186000", "112618.189000", "112618.191000", "112618.194000", "112618.197000", "112618.199000", "112618.202000", "112618.204000", "112618.207000", "112618.209000", "112618.212000", "112618.215000", "112618.217000", "112618.220000", "112618.222000", "112618.225000", "112618.227000", "112618.230000", "112618.232000", "112618.235000", "112638.187000", "112638.189000", "112638.201000", "112638.204000", "112638.206000", "112638.209000", "112638.211000", "112638.214000", "112638.216000", "112638.219000", "112638.221000", "112638.224000", "112638.226000", "112638.229000", "112638.231000", "112638.234000", "112638.237000", "112638.239000", "112638.242000", "112638.244000", "112658.185000", "112658.188000", "112658.191000", "112658.193000", "112658.196000", "112658.198000", "112658.201000", "112658.203000", "112658.206000", "112658.208000", "112658.211000", "112658.213000", "112658.216000", "112658.219000", "112658.221000", "112658.224000", "112658.226000", "112658.229000", "112658.231000", "112658.234000", "112718.185000", "112718.188000", "112718.191000", "112718.193000", "112718.196000", "112718.199000", "112718.201000", "112718.219000", "112718.222000", "112718.224000", "112718.227000", "112718.229000", "112718.232000", "112718.234000", "112718.237000", "112718.239000", "112718.242000", "112718.244000", "112718.247000", "112718.249000", "112738.185000", "112738.188000", "112738.191000", "112738.193000", "112738.196000", "112738.199000", "112738.201000", "112738.204000", "112738.206000", "112738.209000", "112738.211000", "112738.214000", "112738.216000", "112738.219000", "112738.221000", "112738.224000", "112738.227000", "112738.229000", "112738.232000", "112738.234000", "112758.185000", "112758.188000", "112758.191000", "112758.193000", "112758.196000", "112758.199000", "112758.201000", "112758.204000", "112758.206000", "112758.209000", "112758.211000", "112758.214000", "112758.216000", "112758.219000", "112758.222000", "112758.224000", "112758.227000", "112758.229000", "112758.232000", "112758.234000", "112818.186000", "112818.188000", "112818.191000", "112818.194000", "112818.196000", "112818.199000", "112818.201000", "112818.204000", "112818.206000", "112818.209000", "112818.211000", "112818.214000", "112818.217000", "112818.219000", "112818.222000", "112818.224000", "112818.227000", "112818.229000", "112818.232000", "112818.234000", "112838.186000", "112838.189000", "112838.192000", "112838.194000", "112838.197000", "112838.199000", "112838.202000", "112838.205000", "112838.207000", "112838.210000", "112838.212000", "112838.215000", "112838.217000", "112838.220000", "112838.222000", "112838.225000", "112838.227000", "112838.230000", "112838.232000", "112838.235000", "112840.009000", "112840.012000"],
      "InstanceNumber": [1, 2, 3, 4, 5, 6, 7, 8, 9, 10, 11, 12, 13, 14, 15, 16, 17, 18, 19, 20, 21, 22, 23, 24, 25, 26, 27, 28, 29, 30, 31, 32, 33, 34, 35, 36, 37, 38, 39, 40, 41, 42, 43, 44, 45, 46, 47, 48, 49, 50, 51, 52, 53, 54, 55, 56, 57, 58, 59, 60, 61, 62, 63, 64, 65, 66, 67, 68, 69, 70, 71, 72, 73, 74, 75, 76, 77, 78, 79, 80, 81, 82, 83, 84, 85, 86, 87, 88, 89, 90, 91, 92, 93, 94, 95, 96, 97, 98, 99, 100, 101, 102, 103, 104, 105, 106, 107, 108, 109, 110, 111, 112, 113, 114, 115, 116, 117, 118, 119, 120, 121, 122, 123, 124, 125, 126, 127, 128, 129, 130, 131, 132, 133, 134, 135, 136, 137, 138, 139, 140, 141, 142, 143, 144, 145, 146, 147, 148, 149, 150, 151, 152, 153, 154, 155, 156, 157, 158, 159, 160, 161, 162, 163, 164, 165, 166, 167, 168, 169, 170, 171, 172, 173, 174, 175, 176, 177, 178, 179, 180, 181, 182, 183, 184, 185, 186, 187, 188, 189, 190, 191, 192, 193, 194, 195, 196, 197, 198, 199, 200, 201, 202, 203, 204, 205, 206, 207, 208, 209, 210, 211, 212, 213, 214, 215, 216, 217, 218, 219, 220, 221, 222, 223, 224, 225, 226, 227, 228, 229, 230, 231, 232, 233, 234, 235, 236, 237, 238, 239, 240, 241, 242, 243, 244, 245, 246, 247, 248, 249, 250, 251, 252, 253, 254, 255, 256, 257, 258, 259, 260, 261, 262, 263, 264, 265, 266, 267, 268, 269, 270, 271, 272, 273, 274, 275, 276, 277, 278, 279, 280, 281, 282, 283, 284, 285, 286, 287, 288, 289, 290, 291, 292, 293, 294, 295, 296, 297, 298, 299, 300, 301, 302, 303, 304, 305, 306, 307, 308, 309, 310, 311, 312, 313, 314, 315, 316, 317, 318, 319, 320, 321, 322, 323, 324, 325, 326, 327, 328, 329, 330, 331, 332, 333, 334, 335, 336, 337, 338, 339, 340, 341, 342, 343, 344, 345, 346, 347, 348, 349, 350, 351, 352, 353, 354, 355, 356],
      "LargestImagePixelValue": [10860, 10615, 10463, 10461, 10446, 10467, 10419, 10392, 10275, 10331, 10310, 10345, 10295, 10394, 10430, 10502, 10416, 10456, 10288, 10399, 10388, 10443, 10335, 10259, 10220, 10362, 10341, 10238, 10329, 10332, 10315, 10350, 10275, 10376, 10368, 10557, 10501, 10465, 10589, 10610, 10456, 10489, 10511, 10488, 10343, 10289, 10357, 10314, 10193, 10138, 10259, 10378, 10516, 10336, 10364, 10344, 10421, 10470, 10484, 10479, 10242, 10273, 10330, 10408, 10331, 10347, 10450, 10512, 10479, 10679, 10513, 10470, 10442, 10454, 10474, 10524, 10411, 10451, 10339, 10360, 10387, 10467, 10459, 10456, 10559, 10545, 10328, 10283, 10399, 10212, 10308, 10317, 10348, 10375, 10475, 10218, 10354, 10211, 10277, 10304, 10307, 10242, 10377, 10359, 10365, 10325, 10386, 10469, 10394, 10445, 10437, 10392, 10469, 10436, 10551, 10326, 10315, 10428, 10498, 10281, 10484, 10477, 10596, 10483, 10468, 10396, 10330, 10344, 10408, 10376, 10306, 10520, 10261, 10260, 10229, 10190, 10284, 10307, 10266, 10264, 10243, 10336, 10367, 10362, 10454, 10381, 10516, 10375, 10489, 10333, 10421, 10417, 10280, 10212, 10308, 10252, 10361, 10351, 10290, 10369, 10402, 10412, 10436, 10374, 10350, 10397, 10480, 10420, 10285, 10383, 10436, 10348, 10251, 10206, 10397, 10380, 10429, 10317, 10452, 10307, 10310, 10223, 10293, 10201, 10177, 10260, 10242, 10411, 10394, 10237, 10252, 10214, 10110, 10204, 10267, 10337, 10398, 10260, 10417, 10410, 10269, 10378, 10410, 10387, 10380, 10473, 10321, 10232, 10242, 10623, 10435, 10523, 10486, 10631, 10564, 10405, 10425, 10310, 10275, 10298, 10320, 10321, 10257, 10290, 10418, 10461, 10401, 10473, 10464, 10536, 10428, 10414, 10332, 10402, 10385, 10275, 10334, 10282, 10241, 10309, 10232, 10248, 10276, 10324, 10366, 10463, 10270, 10360, 10443, 10538, 10444, 10575, 10533, 10635, 10666, 10436, 10433, 10242, 10474, 10413, 10364, 10455, 10330, 10500, 10479, 10536, 10558, 10373, 10351, 10365, 10312, 10221, 10289, 10199, 10220, 10173, 10137, 10104, 10208, 10175, 10095, 10185, 10257, 10343, 10278, 10369, 10314, 10248, 10324, 10333, 10265, 10245, 10264, 10393, 10297, 10300, 10432, 10314, 10289, 10458, 10420, 10469, 10401, 10412, 10442, 10392, 10519, 10454, 10372, 10568, 10410, 10378, 10359, 10361, 10258, 10295, 10362, 10347, 10305, 10304, 10223, 10370, 10235, 10311, 10353, 10261, 10350, 10321, 10317, 10264, 10218, 10343, 10323, 10341, 10474, 10459, 10400, 10496, 10679, 10689, 10406, 10580, 10441, 10236, 10281, 10213, 10349, 10398, 10261, 10252, 10256, 10200, 10446, 10227, 10265, 10242],
