{
  "AcquisitionMatrixPE": 106,
  "AcquisitionNumber": 1,
  "AcquisitionTime": "10:52:54.812500",
  "BandwidthPerPixelPhaseEncode": 13.477,
  "BaseResolution": 106,
  "BodyPartExamined": "BRAIN",
  "CoilCombinationMethod": "Sum of Squares",
  "ConsistencyInfo": "N4_VE11C_LATEST_20160120",
  "ConversionSoftware": "dcm2niix",
  "ConversionSoftwareVersion": "v1.0.20220720",
  "DerivedVendorReportedEchoSpacing": 0.000700005,
  "DeviceSerialNumber": "166108",
  "DwellTime": 2.6e-06,
  "EchoTime": 0.03,
  "EchoTrainLength": 80,
  "EffectiveEchoSpacing": 0.000700005,
  "FlipAngle": 62,
  "HeudiconvVersion": "1.3.0",
  "ImageComments": "Unaliased MB4/PE3/LB",
  "ImageOrientationPatientDICOM": [1, 0, 0, 0, 0.997684, -0.0680153],
  "ImageOrientationText": "Tra>Cor(-3.9)",
  "ImageType": [
    "ORIGINAL",
    "PRIMARY",
    "M",
    "MB",
    "ND",
    "MOSAIC"
],
  "ImagingFrequency": 123.244,
  "InPlanePhaseEncodingDirectionDICOM": "COL",
  "InstitutionAddress": "Bedford Way 26,London,London,GB,WC1H 0AP",
  "InstitutionName": "University College",
  "InstitutionalDepartmentName": "Department",
  "MRAcquisitionType": "2D",
  "MagneticFieldStrength": 3,
  "Manufacturer": "Siemens",
  "ManufacturersModelName": "Prisma",
  "MatrixCoilMode": "SENSE",
  "Modality": "MR",
  "MultibandAccelerationFactor": 4,
  "NonlinearGradientCorrection": false,
  "PartialFourier": 0.75,
  "PatientPosition": "HFS",
  "PercentPhaseFOV": 100,
  "PercentSampling": 100,
  "PhaseEncodingDirection": "j-",
  "PhaseEncodingSteps": 80,
  "PhaseResolution": 1,
  "PixelBandwidth": 1815,
  "ProcedureStepDescription": "Egor^MovieProject2",
  "ProtocolName": "func-bold_task-motor_run-01",
  "PulseSequenceDetails": "%CustomerSeq%\\cmrr_mbep2d_bold",
  "ReceiveCoilActiveElements": "HEA;HEP",
  "ReceiveCoilName": "Head_32",
  "ReconMatrixPE": 106,
  "RepetitionTime": 1,
  "SAR": 0.0362634,
  "ScanOptions": "PFP\\FS\\EXT",
  "ScanningSequence": "EP",
  "SequenceName": "epfid2d1_106",
  "SequenceVariant": "SK\\SS",
  "SeriesDescription": "func-bold_task-motor_run-01",
  "SeriesNumber": 8,
  "ShimSetting": [-1577, 617, 7422, 390, -32, 244, 113, -34],
  "SliceThickness": 2,
  "SliceTiming": [0, 0.535, 0.09, 0.625, 0.1775, 0.7125, 0.2675, 0.8025, 0.3575, 0.8925, 0.445, 0, 0.535, 0.09, 0.625, 0.1775, 0.7125, 0.2675, 0.8025, 0.3575, 0.8925, 0.445, 0, 0.535, 0.09, 0.625, 0.1775, 0.7125, 0.2675, 0.8025, 0.3575, 0.8925, 0.445, 0, 0.535, 0.09, 0.625, 0.1775, 0.7125, 0.2675, 0.8025, 0.3575, 0.8925, 0.445],
  "SoftwareVersions": "syngo MR E11",
  "SpacingBetweenSlices": 2,
  "StationName": "AWP166108",
  "TaskName": "somatotopy",
  "TotalReadoutTime": 0.0735005,
  "TxRefAmp": 220.585,
  "WipMemBlock": "2db6307e-8962-4476-afe8-7d7b0bcd5e1f||Sequence: R016 ve11c/master r/e634e98; Dec 19 2017 11:00:25 by eja",
  "dcmmeta_affine": [
    [-2.0, 0.0, 0.0, 106.0],
    [0.0, 1.9953685998916626, -0.13603058457374573, -95.3455581665039],
    [0.0, 0.13603058457374573, 1.995368480682373, -18.80351448059082],
    [0.0, 0.0, 0.0, 1.0]
],
  "dcmmeta_reorient_transform": [
    [0.0, -1.0, 0.0, 105.0],
    [1.0, 0.0, 0.0, 0.0],
    [0.0, 0.0, 1.0, 0.0],
    [0.0, 0.0, 0.0, 1.0]
],
  "dcmmeta_shape": [106, 106, 44, 467],
  "dcmmeta_slice_dim": 2,
  "dcmmeta_version": 0.6,
  "global": {
    "const": {
      "AcquisitionMatrix": [106, 0, 0, 106],
      "AngioFlag": "N",
      "BitsAllocated": 16,
      "BitsStored": 16,
      "BodyPartExamined": "BRAIN",
      "CardiacNumberOfImages": 1,
      "Columns": 742,
      "EchoNumbers": 1,
      "EchoTime": 30.0,
      "EchoTrainLength": 80,
      "FlipAngle": 62.0,
      "HighBit": 15,
      "ImageOrientationPatient": [1.0, 0.0, 0.0, 0.0, 0.99768427877948, -0.0680152914885],
      "ImagePositionPatient": [-742.0, -748.69533863703, 38.737423036204],
      "ImageType": [
        "ORIGINAL",
        "PRIMARY",
        "M",
        "MB",
        "ND",
        "MOSAIC"
],
      "ImagedNucleus": "1H",
      "ImagingFrequency": 123.243694,
      "InPlanePhaseEncodingDirection": "COL",
      "MRAcquisitionType": "2D",
      "MagneticFieldStrength": 3.0,
      "Manufacturer": "SIEMENS",
      "ManufacturerModelName": "Prisma",
      "Modality": "MR",
      "NominalInterval": 0,
      "NumberOfAverages": 1.0,
      "NumberOfPhaseEncodingSteps": 80,
      "PercentPhaseFieldOfView": 100.0,
      "PercentSampling": 100.0,
      "PerformedProcedureStepStartTime": "101956.343000",
      "PhotometricInterpretation": "MONOCHROME2",
      "PixelBandwidth": 1815.0,
      "PixelRepresentation": 0,
      "PixelSpacing": [2.0, 2.0],
      "ProtocolName": "func-bold_task-motor_run-01",
      "RepetitionTime": 1000.0,
      "Rows": 742,
      "SAR": 0.03626336201178,
      "SamplesPerPixel": 1,
      "ScanOptions": [
        "PFP",
        "FS",
        "EXT"
],
      "ScanningSequence": "EP",
      "SequenceName": "epfid2d1_106",
      "SequenceVariant": [
        "SK",
        "SS"
],
      "SeriesDescription": "func-bold_task-motor_run-01",
      "SeriesNumber": 8,
      "SeriesTime": "105327.872000",
      "SliceLocation": -12.275013729856,
      "SliceThickness": 2.0,
      "SmallestImagePixelValue": 0,
      "SoftwareVersions": "syngo MR E11",
      "SpacingBetweenSlices": 1.9999999558936,
      "SpecificCharacterSet": "ISO_IR 100",
      "StudyID": "1",
      "StudyTime": "101956.283000",
      "TransmitCoilName": "Body",
      "VariableFlipAngleFlag": "N",
      "WindowCenterWidthExplanation": "Algo1",
      "dBdt": 0.0},
    "slices": {}
  },
  "time": {
    "samples": {
      "AcquisitionNumber": [1, 2, 3, 4, 5, 6, 7, 8, 9, 10, 11, 12, 13, 14, 15, 16, 17, 18, 19, 20, 21, 22, 23, 24, 25, 26, 27, 28, 29, 30, 31, 32, 33, 34, 35, 36, 37, 38, 39, 40, 41, 42, 43, 44, 45, 46, 47, 48, 49, 50, 51, 52, 53, 54, 55, 56, 57, 58, 59, 60, 61, 62, 63, 64, 65, 66, 67, 68, 69, 70, 71, 72, 73, 74, 75, 76, 77, 78, 79, 80, 81, 82, 83, 84, 85, 86, 87, 88, 89, 90, 91, 92, 93, 94, 95, 96, 97, 98, 99, 100, 101, 102, 103, 104, 105, 106, 107, 108, 109, 110, 111, 112, 113, 114, 115, 116, 117, 118, 119, 120, 121, 122, 123, 124, 125, 126, 127, 128, 129, 130, 131, 132, 133, 134, 135, 136, 137, 138, 139, 140, 141, 142, 143, 144, 145, 146, 147, 148, 149, 150, 151, 152, 153, 154, 155, 156, 157, 158, 159, 160, 161, 162, 163, 164, 165, 166, 167, 168, 169, 170, 171, 172, 173, 174, 175, 176, 177, 178, 179, 180, 181, 182, 183, 184, 185, 186, 187, 188, 189, 190, 191, 192, 193, 194, 195, 196, 197, 198, 199, 200, 201, 202, 203, 204, 205, 206, 207, 208, 209, 210, 211, 212, 213, 214, 215, 216, 217, 218, 219, 220, 221, 222, 223, 224, 225, 226, 227, 228, 229, 230, 231, 232, 233, 234, 235, 236, 237, 238, 239, 240, 241, 242, 243, 244, 245, 246, 247, 248, 249, 250, 251, 252, 253, 254, 255, 256, 257, 258, 259, 260, 261, 262, 263, 264, 265, 266, 267, 268, 269, 270, 271, 272, 273, 274, 275, 276, 277, 278, 279, 280, 281, 282, 283, 284, 285, 286, 287, 288, 289, 290, 291, 292, 293, 294, 295, 296, 297, 298, 299, 300, 301, 302, 303, 304, 305, 306, 307, 308, 309, 310, 311, 312, 313, 314, 315, 316, 317, 318, 319, 320, 321, 322, 323, 324, 325, 326, 327, 328, 329, 330, 331, 332, 333, 334, 335, 336, 337, 338, 339, 340, 341, 342, 343, 344, 345, 346, 347, 348, 349, 350, 351, 352, 353, 354, 355, 356, 357, 358, 359, 360, 361, 362, 363, 364, 365, 366, 367, 368, 369, 370, 371, 372, 373, 374, 375, 376, 377, 378, 379, 380, 381, 382, 383, 384, 385, 386, 387, 388, 389, 390, 391, 392, 393, 394, 395, 396, 397, 398, 399, 400, 401, 402, 403, 404, 405, 406, 407, 408, 409, 410, 411, 412, 413, 414, 415, 416, 417, 418, 419, 420, 421, 422, 423, 424, 425, 426, 427, 428, 429, 430, 431, 432, 433, 434, 435, 436, 437, 438, 439, 440, 441, 442, 443, 444, 445, 446, 447, 448, 449, 450, 451, 452, 453, 454, 455, 456, 457, 458, 459, 460, 461, 462, 463, 464, 465, 466, 467],
      "AcquisitionTime": ["105254.812500", "105255.812500", "105256.812500", "105257.812500", "105258.812500", "105259.812500", "105300.812500", "105301.812500", "105302.812500", "105303.812500", "105304.812500", "105305.812500", "105306.812500", "105307.812500", "105308.812500", "105309.812500", "105310.812500", "105311.812500", "105312.812500", "105313.812500", "105314.812500", "105315.812500", "105316.812500", "105317.812500", "105318.812500", "105319.812500", "105320.812500", "105321.812500", "105322.812500", "105323.812500", "105324.812500", "105325.812500", "105326.812500", "105327.812500", "105328.812500", "105329.812500", "105330.812500", "105331.812500", "105332.812500", "105333.812500", "105334.812500", "105335.812500", "105336.812500", "105337.812500", "105338.812500", "105339.812500", "105340.812500", "105341.812500", "105342.812500", "105343.812500", "105344.812500", "105345.812500", "105346.812500", "105347.812500", "105348.812500", "105349.812500", "105350.812500", "105351.812500", "105352.812500", "105353.812500", "105354.812500", "105355.812500", "105356.812500", "105357.812500", "105358.812500", "105359.812500", "105400.812500", "105401.812500", "105402.812500", "105403.812500", "105404.812500", "105405.812500", "105406.812500", "105407.812500", "105408.812500", "105409.812500", "105410.812500", "105411.812500", "105412.812500", "105413.812500", "105414.812500", "105415.812500", "105416.812500", "105417.812500", "105418.812500", "105419.812500", "105420.812500", "105421.812500", "105422.812500", "105423.812500", "105424.812500", "105425.812500", "105426.812500", "105427.812500", "105428.812500", "105429.812500", "105430.812500", "105431.812500", "105432.812500", "105433.812500", "105434.812500", "105435.812500", "105436.812500", "105437.812500", "105438.812500", "105439.812500", "105440.812500", "105441.812500", "105442.812500", "105443.812500", "105444.812500", "105445.812500", "105446.812500", "105447.812500", "105448.812500", "105449.812500", "105450.812500", "105451.812500", "105452.812500", "105453.812500", "105454.812500", "105455.812500", "105456.812500", "105457.812500", "105458.812500", "105459.812500", "105500.812500", "105501.812500", "105502.812500", "105503.812500", "105504.812500", "105505.812500", "105506.812500", "105507.812500", "105508.812500", "105509.812500", "105510.812500", "105511.812500", "105512.812500", "105513.812500", "105514.812500", "105515.812500", "105516.812500", "105517.812500", "105518.812500", "105519.812500", "105520.812500", "105521.812500", "105522.812500", "105523.812500", "105524.812500", "105525.812500", "105526.812500", "105527.812500", "105528.812500", "105529.812500", "105530.812500", "105531.812500", "105532.812500", "105533.812500", "105534.812500", "105535.812500", "105536.812500", "105537.812500", "105538.812500", "105539.812500", "105540.812500", "105541.812500", "105542.812500", "105543.812500", "105544.812500", "105545.812500", "105546.812500", "105547.812500", "105548.812500", "105549.812500", "105550.812500", "105551.812500", "105552.812500", "105553.812500", "105554.812500", "105555.812500", "105556.812500", "105557.812500", "105558.812500", "105559.812500", "105600.812500", "105601.812500", "105602.812500", "105603.812500", "105604.812500", "105605.812500", "105606.812500", "105607.812500", "105608.812500", "105609.812500", "105610.812500", "105611.812500", "105612.812500", "105613.812500", "105614.812500", "105615.812500", "105616.812500", "105617.812500", "105618.812500", "105619.812500", "105620.812500", "105621.812500", "105622.812500", "105623.812500", "105624.812500", "105625.812500", "105626.812500", "105627.812500", "105628.812500", "105629.812500", "105630.812500", "105631.812500", "105632.812500", "105633.812500", "105634.812500", "105635.812500", "105636.812500", "105637.812500", "105638.812500", "105639.812500", "105640.812500", "105641.812500", "105642.812500", "105643.812500", "105644.812500", "105645.812500", "105646.812500", "105647.812500", "105648.812500", "105649.812500", "105650.812500", "105651.812500", "105652.812500", "105653.812500", "105654.812500", "105655.812500", "105656.812500", "105657.812500", "105658.812500", "105659.812500", "105700.812500", "105701.812500", "105702.812500", "105703.812500", "105704.812500", "105705.812500", "105706.812500", "105707.812500", "105708.812500", "105709.812500", "105710.812500", "105711.812500", "105712.812500", "105713.812500", "105714.812500", "105715.812500", "105716.812500", "105717.812500", "105718.812500", "105719.812500", "105720.812500", "105721.812500", "105722.812500", "105723.812500", "105724.812500", "105725.812500", "105726.812500", "105727.812500", "105728.812500", "105729.812500", "105730.812500", "105731.812500", "105732.812500", "105733.812500", "105734.812500", "105735.812500", "105736.812500", "105737.812500", "105738.812500", "105739.812500", "105740.812500", "105741.812500", "105742.812500", "105743.812500", "105744.812500", "105745.812500", "105746.812500", "105747.812500", "105748.812500", "105749.812500", "105750.812500", "105751.812500", "105752.812500", "105753.812500", "105754.812500", "105755.812500", "105756.812500", "105757.812500", "105758.812500", "105759.812500", "105800.812500", "105801.812500", "105802.812500", "105803.812500", "105804.812500", "105805.812500", "105806.812500", "105807.812500", "105808.812500", "105809.812500", "105810.812500", "105811.812500", "105812.812500", "105813.812500", "105814.812500", "105815.812500", "105816.812500", "105817.812500", "105818.812500", "105819.812500", "105820.812500", "105821.812500", "105822.812500", "105823.812500", "105824.812500", "105825.812500", "105826.812500", "105827.812500", "105828.812500", "105829.812500", "105830.812500", "105831.812500", "105832.812500", "105833.812500", "105834.812500", "105835.812500", "105836.812500", "105837.812500", "105838.812500", "105839.812500", "105840.812500", "105841.812500", "105842.812500", "105843.812500", "105844.812500", "105845.812500", "105846.812500", "105847.812500", "105848.812500", "105849.812500", "105850.812500", "105851.812500", "105852.812500", "105853.812500", "105854.812500", "105855.812500", "105856.812500", "105857.812500", "105858.812500", "105859.812500", "105900.812500", "105901.812500", "105902.812500", "105903.812500", "105904.812500", "105905.812500", "105906.812500", "105907.812500", "105908.812500", "105909.812500", "105910.812500", "105911.812500", "105912.812500", "105913.812500", "105914.812500", "105915.812500", "105916.812500", "105917.812500", "105918.812500", "105919.812500", "105920.812500", "105921.812500", "105922.812500", "105923.812500", "105924.812500", "105925.812500", "105926.812500", "105927.812500", "105928.812500", "105929.812500", "105930.812500", "105931.812500", "105932.812500", "105933.812500", "105934.812500", "105935.812500", "105936.812500", "105937.812500", "105938.812500", "105939.812500", "105940.812500", "105941.812500", "105942.812500", "105943.812500", "105944.812500", "105945.812500", "105946.812500", "105947.812500", "105948.812500", "105949.812500", "105950.812500", "105951.812500", "105952.812500", "105953.812500", "105954.812500", "105955.812500", "105956.812500", "105957.812500", "105958.812500", "105959.812500", "110000.812500", "110001.812500", "110002.812500", "110003.812500", "110004.812500", "110005.812500", "110006.812500", "110007.812500", "110008.812500", "110009.812500", "110010.812500", "110011.812500", "110012.812500", "110013.812500", "110014.812500", "110015.812500", "110016.812500", "110017.812500", "110018.812500", "110019.812500", "110020.812500", "110021.812500", "110022.812500", "110023.812500", "110024.812500", "110025.812500", "110026.812500", "110027.812500", "110028.812500", "110029.812500", "110030.812500", "110031.812500", "110032.812500", "110033.812500", "110034.812500", "110035.812500", "110036.812500", "110037.812500", "110038.812500", "110039.812500", "110040.812500"],
      "ContentTime": ["105327.875000", "105327.878000", "105327.880000", "105327.883000", "105327.885000", "105327.888000", "105327.890000", "105327.894000", "105327.898000", "105327.901000", "105327.904000", "105327.907000", "105327.909000", "105327.911000", "105327.914000", "105327.926000", "105327.929000", "105327.934000", "105327.936000", "105327.939000", "105327.941000", "105327.955000", "105327.958000", "105327.960000", "105327.963000", "105327.966000", "105327.968000", "105327.971000", "105327.973000", "105327.983000", "105327.986000", "105327.989000", "105347.839000", "105347.842000", "105347.845000", "105347.847000", "105347.849000", "105347.852000", "105347.855000", "105347.857000", "105347.860000", "105347.862000", "105347.865000", "105347.867000", "105347.870000", "105347.872000", "105347.875000", "105347.877000", "105347.879000", "105347.882000", "105347.885000", "105347.887000", "105407.838000", "105407.841000", "105407.844000", "105407.846000", "105407.849000", "105407.851000", "105407.854000", "105407.856000", "105407.859000", "105407.861000", "105407.864000", "105407.866000", "105407.868000", "105407.871000", "105407.873000", "105407.876000", "105407.878000", "105407.881000", "105407.883000", "105407.886000", "105427.838000", "105427.841000", "105427.843000", "105427.846000", "105427.848000", "105427.851000", "105427.853000", "105427.856000", "105427.858000", "105427.861000", "105427.863000", "105427.866000", "105427.868000", "105427.870000", "105427.873000", "105427.875000", "105427.878000", "105427.880000", "105427.883000", "105427.886000", "105447.838000", "105447.841000", "105447.844000", "105447.846000", "105447.848000", "105447.851000", "105447.854000", "105447.856000", "105447.859000", "105447.861000", "105447.864000", "105447.867000", "105447.869000", "105447.871000", "105447.874000", "105447.877000", "105447.879000", "105447.881000", "105447.884000", "105447.886000", "105507.839000", "105507.842000", "105507.845000", "105507.847000", "105507.850000", "105507.852000", "105507.855000", "105507.857000", "105507.860000", "105507.862000", "105507.865000", "105507.867000", "105507.869000", "105507.872000", "105507.874000", "105507.877000", "105507.879000", "105507.889000", "105507.891000", "105507.894000", "105527.839000", "105527.842000", "105527.845000", "105527.847000", "105527.849000", "105527.852000", "105527.854000", "105527.857000", "105527.859000", "105527.862000", "105527.864000", "105527.867000", "105527.869000", "105527.872000", "105527.874000", "105527.876000", "105527.879000", "105527.881000", "105527.884000", "105527.886000", "105547.839000", "105547.842000", "105547.845000", "105547.847000", "105547.850000", "105547.852000", "105547.855000", "105547.857000", "105547.860000", "105547.862000", "105547.866000", "105547.868000", "105547.870000", "105547.873000", "105547.875000", "105547.878000", "105547.880000", "105547.883000", "105547.885000", "105547.888000", "105607.839000", "105607.913000", "105607.916000", "105607.918000", "105607.921000", "105607.923000", "105607.926000", "105607.928000", "105607.935000", "105607.938000", "105607.941000", "105607.943000", "105607.946000", "105607.948000", "105607.951000", "105607.953000", "105607.955000", "105607.958000", "105607.960000", "105607.963000", "105627.838000", "105627.841000", "105627.844000", "105627.847000", "105627.849000", "105627.852000", "105627.855000", "105627.857000", "105627.860000", "105627.862000", "105627.865000", "105627.867000", "105627.870000", "105627.872000", "105627.875000", "105627.878000", "105627.880000", "105627.883000", "105627.885000", "105627.888000", "105647.838000", "105647.841000", "105647.844000", "105647.846000", "105647.849000", "105647.851000", "105647.854000", "105647.856000", "105647.859000", "105647.861000", "105647.864000", "105647.866000", "105647.869000", "105647.871000", "105647.874000", "105647.876000", "105647.879000", "105647.881000", "105647.883000", "105647.886000", "105707.839000", "105707.841000", "105707.844000", "105707.846000", "105707.849000", "105707.851000", "105707.854000", "105707.856000", "105707.859000", "105707.861000", "105707.863000", "105707.866000", "105707.868000", "105707.871000", "105707.874000", "105707.876000", "105707.878000", "105707.896000", "105707.899000", "105707.902000", "105727.839000", "105727.842000", "105727.845000", "105727.847000", "105727.850000", "105727.876000", "105727.878000", "105727.881000", "105727.883000", "105727.886000", "105727.889000", "105727.891000", "105727.894000", "105727.896000", "105727.899000", "105727.901000", "105727.903000", "105727.906000", "105727.908000", "105727.911000", "105747.839000", "105747.953000", "105747.955000", "105747.958000", "105747.960000", "105747.963000", "105747.965000", "105747.968000", "105747.970000", "105747.972000", "105747.975000", "105747.977000", "105747.980000", "105747.982000", "105747.985000", "105747.987000", "105747.990000", "105747.992000", "105747.995000", "105747.997000", "105807.840000", "105807.844000", "105807.846000", "105807.849000", "105807.851000", "105807.854000", "105807.856000", "105807.859000", "105807.861000", "105807.864000", "105807.866000", "105807.869000", "105807.871000", "105807.873000", "105807.876000", "105807.878000", "105807.881000", "105807.883000", "105807.886000", "105807.888000", "105827.839000", "105827.842000", "105827.845000", "105827.847000", "105827.850000", "105827.852000", "105827.855000", "105827.857000", "105827.860000", "105827.862000", "105827.865000", "105827.867000", "105827.870000", "105827.872000", "105827.875000", "105827.877000", "105827.880000", "105827.882000", "105827.885000", "105827.887000", "105847.838000", "105847.841000", "105847.844000", "105847.846000", "105847.848000", "105847.851000", "105847.853000", "105847.856000", "105847.858000", "105847.861000", "105847.863000", "105847.866000", "105847.868000", "105847.871000", "105847.873000", "105847.876000", "105847.878000", "105847.881000", "105847.883000", "105847.886000", "105907.839000", "105907.841000", "105907.844000", "105907.846000", "105907.849000", "105907.851000", "105907.854000", "105907.857000", "105907.859000", "105907.862000", "105907.864000", "105907.866000", "105907.869000", "105907.871000", "105907.874000", "105907.876000", "105907.879000", "105907.881000", "105907.884000", "105907.886000", "105927.838000", "105927.841000", "105927.844000", "105927.846000", "105927.849000", "105927.851000", "105927.854000", "105927.856000", "105927.859000", "105927.861000", "105927.864000", "105927.866000", "105927.869000", "105927.871000", "105927.874000", "105927.876000", "105927.879000", "105927.881000", "105927.884000", "105927.886000", "105947.839000", "105947.842000", "105947.845000", "105947.847000", "105947.850000", "105947.852000", "105947.855000", "105947.857000", "105947.860000", "105947.862000", "105947.865000", "105947.868000", "105947.870000", "105947.873000", "105947.875000", "105947.878000", "105947.880000", "105947.882000", "105947.885000", "105947.887000", "110007.840000", "110007.842000", "110007.845000", "110007.847000", "110007.850000", "110007.852000", "110007.855000", "110007.858000", "110007.860000", "110007.863000", "110007.865000", "110007.868000", "110007.871000", "110007.873000", "110007.876000", "110007.878000", "110007.881000", "110007.883000", "110007.886000", "110007.888000", "110027.839000", "110027.842000", "110027.845000", "110027.847000", "110027.850000", "110027.852000", "110027.855000", "110027.857000", "110027.860000", "110027.862000", "110027.865000", "110027.867000", "110027.870000", "110027.872000", "110027.875000", "110027.877000", "110027.879000", "110027.882000", "110027.884000", "110027.887000", "110042.371000", "110042.374000", "110042.376000", "110042.379000", "110042.382000", "110042.384000", "110042.387000", "110042.389000", "110042.392000", "110042.394000", "110042.397000", "110042.399000", "110042.402000", "110042.405000", "110042.408000"],
