{
  "AcquisitionMatrixPE": 106,
  "AcquisitionNumber": 1,
  "AcquisitionTime": "18:03:3.847500",
  "BandwidthPerPixelPhaseEncode": 16.846,
  "BaseResolution": 106,
  "BodyPartExamined": "BRAIN",
  "CoilCombinationMethod": "Sum of Squares",
  "ConsistencyInfo": "N4_VE11C_LATEST_20160120",
  "ConversionSoftware": "dcm2niix",
  "ConversionSoftwareVersion": "v1.0.20220720",
  "DerivedVendorReportedEchoSpacing": 0.000560012,
  "DeviceSerialNumber": "166108",
  "DwellTime": 1.8e-06,
  "EchoTime": 0.0352,
  "EchoTrainLength": 106,
  "EffectiveEchoSpacing": 0.000560012,
  "FlipAngle": 60,
  "HeudiconvVersion": "1.3.0",
  "ImageComments": "Unaliased MB4/PE3/LB",
  "ImageOrientationPatientDICOM": [1, 0, 0, 0, 1, 0],
  "ImageOrientationText": "Tra",
  "ImageType": [
    "ORIGINAL",
    "PRIMARY",
    "M",
    "MB",
    "ND",
    "MOSAIC"
],
  "ImagingFrequency": 123.244,
  "InPlanePhaseEncodingDirectionDICOM": "COL",
  "InstitutionAddress": "Bedford Way 26,London,London,GB,WC1H 0AP",
  "InstitutionName": "University College",
  "InstitutionalDepartmentName": "Department",
  "MRAcquisitionType": "2D",
  "MagneticFieldStrength": 3,
  "Manufacturer": "Siemens",
  "ManufacturersModelName": "Prisma",
  "MatrixCoilMode": "SENSE",
  "Modality": "MR",
  "MultibandAccelerationFactor": 4,
  "NonlinearGradientCorrection": false,
  "PartialFourier": 1,
  "PatientPosition": "HFS",
  "PercentPhaseFOV": 100,
  "PercentSampling": 100,
  "PhaseEncodingDirection": "j-",
  "PhaseEncodingSteps": 106,
  "PhaseResolution": 1,
  "PixelBandwidth": 2620,
  "ProcedureStepDescription": "Egor^MovieProject2",
  "ProtocolName": "task-backtothefuture_run-1",
  "PulseSequenceDetails": "%CustomerSeq%\\cmrr_mbep2d_bold",
  "ReceiveCoilActiveElements": "HEA;HEP",
  "ReceiveCoilName": "Head_32",
  "ReconMatrixPE": 106,
  "RepetitionTime": 1.5,
  "SAR": 0.0699943,
  "ScanOptions": "FS\\EXT",
  "ScanningSequence": "EP",
  "SequenceName": "epfid2d1_106",
  "SequenceVariant": "SK\\SS",
  "SeriesDescription": "task-backtothefuture_run-1",
  "SeriesNumber": 3,
  "ShimSetting": [-1605, 609, 7443, 300, -124, 113, -56, 50],
  "SliceThickness": 2,
  "SliceTiming": [0, 1.07, 0.6575, 0.2475, 1.315, 0.905, 0.4925, 0.0825, 1.1525, 0.74, 0.33, 1.3975, 0.9875, 0.575, 0.165, 1.2325, 0.8225, 0.4125, 0, 1.07, 0.6575, 0.2475, 1.315, 0.905, 0.4925, 0.0825, 1.1525, 0.74, 0.33, 1.3975, 0.9875, 0.575, 0.165, 1.2325, 0.8225, 0.4125, 0, 1.07, 0.6575, 0.2475, 1.315, 0.905, 0.4925, 0.0825, 1.1525, 0.74, 0.33, 1.3975, 0.9875, 0.575, 0.165, 1.2325, 0.8225, 0.4125, 0, 1.07, 0.6575, 0.2475, 1.315, 0.905, 0.4925, 0.0825, 1.1525, 0.74, 0.33, 1.3975, 0.9875, 0.575, 0.165, 1.2325, 0.8225, 0.4125],
  "SoftwareVersions": "syngo MR E11",
  "SpacingBetweenSlices": 2,
  "StationName": "AWP166108",
  "TaskName": "backtothefuture",
  "TotalReadoutTime": 0.0588013,
  "TxRefAmp": 221.419,
  "WipMemBlock": "cc8bbbf4-f020-450c-aa97-3823d826b3b2||Sequence: R016 ve11c/master r/e634e98; Dec 19 2017 11:00:25 by eja",
  "dcmmeta_affine": [
    [-2.0, 0.0, 0.0, 106.0],
    [0.0, 2.0, 0.0, -82.91566467285156],
    [0.0, 0.0, 2.0, -49.9156608581543],
    [0.0, 0.0, 0.0, 1.0]
],
  "dcmmeta_reorient_transform": [
    [0.0, -1.0, 0.0, 105.0],
    [1.0, 0.0, 0.0, 0.0],
    [0.0, 0.0, 1.0, 0.0],
    [0.0, 0.0, 0.0, 1.0]
],
  "dcmmeta_shape": [106, 106, 72, 1360],
  "dcmmeta_slice_dim": 2,
  "dcmmeta_version": 0.6,
  "global": {
    "const": {
      "AcquisitionMatrix": [106, 0, 0, 106],
      "AngioFlag": "N",
      "BitsAllocated": 16,
      "BitsStored": 16,
      "BodyPartExamined": "BRAIN",
      "CardiacNumberOfImages": 1,
      "Columns": 954,
      "EchoNumbers": 1,
      "EchoTime": 35.2,
      "EchoTrainLength": 106,
      "FlipAngle": 60.0,
      "HighBit": 15,
      "ImageOrientationPatient": [1.0, 0.0, 0.0, 0.0, 1.0, 0.0],
      "ImagePositionPatient": [-954.0, -975.0843372345, -49.915660858154],
      "ImageType": [
        "ORIGINAL",
        "PRIMARY",
        "M",
        "MB",
        "ND",
        "MOSAIC"
],
      "ImagedNucleus": "1H",
      "ImagingFrequency": 123.243662,
      "InPlanePhaseEncodingDirection": "COL",
      "MRAcquisitionType": "2D",
      "MagneticFieldStrength": 3.0,
      "Manufacturer": "SIEMENS",
      "ManufacturerModelName": "Prisma",
      "Modality": "MR",
      "NominalInterval": 0,
      "NumberOfAverages": 1.0,
      "NumberOfPhaseEncodingSteps": 106,
      "PercentPhaseFieldOfView": 100.0,
      "PercentSampling": 100.0,
      "PerformedProcedureStepStartTime": "172459.215000",
      "PhotometricInterpretation": "MONOCHROME2",
      "PixelBandwidth": 2620.0,
      "PixelRepresentation": 0,
      "PixelSpacing": [2.0, 2.0],
      "ProtocolName": "task-backtothefuture_run-1",
      "RepetitionTime": 1500.0,
      "Rows": 954,
      "SAR": 0.06999426535171,
      "SamplesPerPixel": 1,
      "ScanOptions": [
        "FS",
        "EXT"
],
      "ScanningSequence": "EP",
      "SequenceName": "epfid2d1_106",
      "SequenceVariant": [
        "SK",
        "SS"
],
      "SeriesDescription": "task-backtothefuture_run-1",
      "SeriesNumber": 3,
      "SeriesTime": "180351.838000",
      "SliceLocation": -49.915660858154,
      "SliceThickness": 2.0,
      "SmallestImagePixelValue": 0,
      "SoftwareVersions": "syngo MR E11",
      "SpacingBetweenSlices": 1.9999999462719,
      "SpecificCharacterSet": "ISO_IR 100",
      "StudyID": "1",
      "StudyTime": "172459.107000",
      "TransmitCoilName": "Body",
      "VariableFlipAngleFlag": "N",
      "WindowCenterWidthExplanation": "Algo1",
      "dBdt": 0.0},
    "slices": {}
  },
  "time": {
    "samples": {
      "AcquisitionNumber": [1, 2, 3, 4, 5, 6, 7, 8, 9, 10, 11, 12, 13, 14, 15, 16, 17, 18, 19, 20, 21, 22, 23, 24, 25, 26, 27, 28, 29, 30, 31, 32, 33, 34, 35, 36, 37, 38, 39, 40, 41, 42, 43, 44, 45, 46, 47, 48, 49, 50, 51, 52, 53, 54, 55, 56, 57, 58, 59, 60, 61, 62, 63, 64, 65, 66, 67, 68, 69, 70, 71, 72, 73, 74, 75, 76, 77, 78, 79, 80, 81, 82, 83, 84, 85, 86, 87, 88, 89, 90, 91, 92, 93, 94, 95, 96, 97, 98, 99, 100, 101, 102, 103, 104, 105, 106, 107, 108, 109, 110, 111, 112, 113, 114, 115, 116, 117, 118, 119, 120, 121, 122, 123, 124, 125, 126, 127, 128, 129, 130, 131, 132, 133, 134, 135, 136, 137, 138, 139, 140, 141, 142, 143, 144, 145, 146, 147, 148, 149, 150, 151, 152, 153, 154, 155, 156, 157, 158, 159, 160, 161, 162, 163, 164, 165, 166, 167, 168, 169, 170, 171, 172, 173, 174, 175, 176, 177, 178, 179, 180, 181, 182, 183, 184, 185, 186, 187, 188, 189, 190, 191, 192, 193, 194, 195, 196, 197, 198, 199, 200, 201, 202, 203, 204, 205, 206, 207, 208, 209, 210, 211, 212, 213, 214, 215, 216, 217, 218, 219, 220, 221, 222, 223, 224, 225, 226, 227, 228, 229, 230, 231, 232, 233, 234, 235, 236, 237, 238, 239, 240, 241, 242, 243, 244, 245, 246, 247, 248, 249, 250, 251, 252, 253, 254, 255, 256, 257, 258, 259, 260, 261, 262, 263, 264, 265, 266, 267, 268, 269, 270, 271, 272, 273, 274, 275, 276, 277, 278, 279, 280, 281, 282, 283, 284, 285, 286, 287, 288, 289, 290, 291, 292, 293, 294, 295, 296, 297, 298, 299, 300, 301, 302, 303, 304, 305, 306, 307, 308, 309, 310, 311, 312, 313, 314, 315, 316, 317, 318, 319, 320, 321, 322, 323, 324, 325, 326, 327, 328, 329, 330, 331, 332, 333, 334, 335, 336, 337, 338, 339, 340, 341, 342, 343, 344, 345, 346, 347, 348, 349, 350, 351, 352, 353, 354, 355, 356, 357, 358, 359, 360, 361, 362, 363, 364, 365, 366, 367, 368, 369, 370, 371, 372, 373, 374, 375, 376, 377, 378, 379, 380, 381, 382, 383, 384, 385, 386, 387, 388, 389, 390, 391, 392, 393, 394, 395, 396, 397, 398, 399, 400, 401, 402, 403, 404, 405, 406, 407, 408, 409, 410, 411, 412, 413, 414, 415, 416, 417, 418, 419, 420, 421, 422, 423, 424, 425, 426, 427, 428, 429, 430, 431, 432, 433, 434, 435, 436, 437, 438, 439, 440, 441, 442, 443, 444, 445, 446, 447, 448, 449, 450, 451, 452, 453, 454, 455, 456, 457, 458, 459, 460, 461, 462, 463, 464, 465, 466, 467, 468, 469, 470, 471, 472, 473, 474, 475, 476, 477, 478, 479, 480, 481, 482, 483, 484, 485, 486, 487, 488, 489, 490, 491, 492, 493, 494, 495, 496, 497, 498, 499, 500, 501, 502, 503, 504, 505, 506, 507, 508, 509, 510, 511, 512, 513, 514, 515, 516, 517, 518, 519, 520, 521, 522, 523, 524, 525, 526, 527, 528, 529, 530, 531, 532, 533, 534, 535, 536, 537, 538, 539, 540, 541, 542, 543, 544, 545, 546, 547, 548, 549, 550, 551, 552, 553, 554, 555, 556, 557, 558, 559, 560, 561, 562, 563, 564, 565, 566, 567, 568, 569, 570, 571, 572, 573, 574, 575, 576, 577, 578, 579, 580, 581, 582, 583, 584, 585, 586, 587, 588, 589, 590, 591, 592, 593, 594, 595, 596, 597, 598, 599, 600, 601, 602, 603, 604, 605, 606, 607, 608, 609, 610, 611, 612, 613, 614, 615, 616, 617, 618, 619, 620, 621, 622, 623, 624, 625, 626, 627, 628, 629, 630, 631, 632, 633, 634, 635, 636, 637, 638, 639, 640, 641, 642, 643, 644, 645, 646, 647, 648, 649, 650, 651, 652, 653, 654, 655, 656, 657, 658, 659, 660, 661, 662, 663, 664, 665, 666, 667, 668, 669, 670, 671, 672, 673, 674, 675, 676, 677, 678, 679, 680, 681, 682, 683, 684, 685, 686, 687, 688, 689, 690, 691, 692, 693, 694, 695, 696, 697, 698, 699, 700, 701, 702, 703, 704, 705, 706, 707, 708, 709, 710, 711, 712, 713, 714, 715, 716, 717, 718, 719, 720, 721, 722, 723, 724, 725, 726, 727, 728, 729, 730, 731, 732, 733, 734, 735, 736, 737, 738, 739, 740, 741, 742, 743, 744, 745, 746, 747, 748, 749, 750, 751, 752, 753, 754, 755, 756, 757, 758, 759, 760, 761, 762, 763, 764, 765, 766, 767, 768, 769, 770, 771, 772, 773, 774, 775, 776, 777, 778, 779, 780, 781, 782, 783, 784, 785, 786, 787, 788, 789, 790, 791, 792, 793, 794, 795, 796, 797, 798, 799, 800, 801, 802, 803, 804, 805, 806, 807, 808, 809, 810, 811, 812, 813, 814, 815, 816, 817, 818, 819, 820, 821, 822, 823, 824, 825, 826, 827, 828, 829, 830, 831, 832, 833, 834, 835, 836, 837, 838, 839, 840, 841, 842, 843, 844, 845, 846, 847, 848, 849, 850, 851, 852, 853, 854, 855, 856, 857, 858, 859, 860, 861, 862, 863, 864, 865, 866, 867, 868, 869, 870, 871, 872, 873, 874, 875, 876, 877, 878, 879, 880, 881, 882, 883, 884, 885, 886, 887, 888, 889, 890, 891, 892, 893, 894, 895, 896, 897, 898, 899, 900, 901, 902, 903, 904, 905, 906, 907, 908, 909, 910, 911, 912, 913, 914, 915, 916, 917, 918, 919, 920, 921, 922, 923, 924, 925, 926, 927, 928, 929, 930, 931, 932, 933, 934, 935, 936, 937, 938, 939, 940, 941, 942, 943, 944, 945, 946, 947, 948, 949, 950, 951, 952, 953, 954, 955, 956, 957, 958, 959, 960, 961, 962, 963, 964, 965, 966, 967, 968, 969, 970, 971, 972, 973, 974, 975, 976, 977, 978, 979, 980, 981, 982, 983, 984, 985, 986, 987, 988, 989, 990, 991, 992, 993, 994, 995, 996, 997, 998, 999, 1000, 1001, 1002, 1003, 1004, 1005, 1006, 1007, 1008, 1009, 1010, 1011, 1012, 1013, 1014, 1015, 1016, 1017, 1018, 1019, 1020, 1021, 1022, 1023, 1024, 1025, 1026, 1027, 1028, 1029, 1030, 1031, 1032, 1033, 1034, 1035, 1036, 1037, 1038, 1039, 1040, 1041, 1042, 1043, 1044, 1045, 1046, 1047, 1048, 1049, 1050, 1051, 1052, 1053, 1054, 1055, 1056, 1057, 1058, 1059, 1060, 1061, 1062, 1063, 1064, 1065, 1066, 1067, 1068, 1069, 1070, 1071, 1072, 1073, 1074, 1075, 1076, 1077, 1078, 1079, 1080, 1081, 1082, 1083, 1084, 1085, 1086, 1087, 1088, 1089, 1090, 1091, 1092, 1093, 1094, 1095, 1096, 1097, 1098, 1099, 1100, 1101, 1102, 1103, 1104, 1105, 1106, 1107, 1108, 1109, 1110, 1111, 1112, 1113, 1114, 1115, 1116, 1117, 1118, 1119, 1120, 1121, 1122, 1123, 1124, 1125, 1126, 1127, 1128, 1129, 1130, 1131, 1132, 1133, 1134, 1135, 1136, 1137, 1138, 1139, 1140, 1141, 1142, 1143, 1144, 1145, 1146, 1147, 1148, 1149, 1150, 1151, 1152, 1153, 1154, 1155, 1156, 1157, 1158, 1159, 1160, 1161, 1162, 1163, 1164, 1165, 1166, 1167, 1168, 1169, 1170, 1171, 1172, 1173, 1174, 1175, 1176, 1177, 1178, 1179, 1180, 1181, 1182, 1183, 1184, 1185, 1186, 1187, 1188, 1189, 1190, 1191, 1192, 1193, 1194, 1195, 1196, 1197, 1198, 1199, 1200, 1201, 1202, 1203, 1204, 1205, 1206, 1207, 1208, 1209, 1210, 1211, 1212, 1213, 1214, 1215, 1216, 1217, 1218, 1219, 1220, 1221, 1222, 1223, 1224, 1225, 1226, 1227, 1228, 1229, 1230, 1231, 1232, 1233, 1234, 1235, 1236, 1237, 1238, 1239, 1240, 1241, 1242, 1243, 1244, 1245, 1246, 1247, 1248, 1249, 1250, 1251, 1252, 1253, 1254, 1255, 1256, 1257, 1258, 1259, 1260, 1261, 1262, 1263, 1264, 1265, 1266, 1267, 1268, 1269, 1270, 1271, 1272, 1273, 1274, 1275, 1276, 1277, 1278, 1279, 1280, 1281, 1282, 1283, 1284, 1285, 1286, 1287, 1288, 1289, 1290, 1291, 1292, 1293, 1294, 1295, 1296, 1297, 1298, 1299, 1300, 1301, 1302, 1303, 1304, 1305, 1306, 1307, 1308, 1309, 1310, 1311, 1312, 1313, 1314, 1315, 1316, 1317, 1318, 1319, 1320, 1321, 1322, 1323, 1324, 1325, 1326, 1327, 1328, 1329, 1330, 1331, 1332, 1333, 1334, 1335, 1336, 1337, 1338, 1339, 1340, 1341, 1342, 1343, 1344, 1345, 1346, 1347, 1348, 1349, 1350, 1351, 1352, 1353, 1354, 1355, 1356, 1357, 1358, 1359, 1360],
      "AcquisitionTime": ["180303.847500", "180305.347500", "180306.847500", "180308.347500", "180309.847500", "180311.347500", "180312.847500", "180314.347500", "180315.847500", "180317.347500", "180318.847500", "180320.347500", "180321.847500", "180323.347500", "180324.847500", "180326.347500", "180327.847500", "180329.347500", "180330.847500", "180332.347500", "180333.847500", "180335.347500", "180336.847500", "180338.347500", "180339.847500", "180341.347500", "180342.847500", "180344.347500", "180345.847500", "180347.347500", "180348.847500", "180350.347500", "180351.847500", "180353.347500", "180354.847500", "180356.347500", "180357.847500", "180359.347500", "180400.847500", "180402.347500", "180403.847500", "180405.347500", "180406.847500", "180408.347500", "180409.847500", "180411.347500", "180412.847500", "180414.347500", "180415.847500", "180417.347500", "180418.847500", "180420.347500", "180421.847500", "180423.347500", "180424.847500", "180426.347500", "180427.847500", "180429.347500", "180430.847500", "180432.347500", "180433.847500", "180435.347500", "180436.847500", "180438.347500", "180439.847500", "180441.347500", "180442.847500", "180444.347500", "180445.847500", "180447.347500", "180448.847500", "180450.347500", "180451.847500", "180453.347500", "180454.847500", "180456.347500", "180457.847500", "180459.347500", "180500.847500", "180502.347500", "180503.847500", "180505.347500", "180506.847500", "180508.347500", "180509.847500", "180511.347500", "180512.847500", "180514.347500", "180515.847500", "180517.347500", "180518.847500", "180520.347500", "180521.847500", "180523.347500", "180524.847500", "180526.347500", "180527.847500", "180529.347500", "180530.847500", "180532.347500", "180533.847500", "180535.347500", "180536.847500", "180538.347500", "180539.847500", "180541.347500", "180542.847500", "180544.347500", "180545.847500", "180547.347500", "180548.847500", "180550.347500", "180551.847500", "180553.347500", "180554.847500", "180556.347500", "180557.847500", "180559.347500", "180600.847500", "180602.347500", "180603.847500", "180605.347500", "180606.847500", "180608.347500", "180609.847500", "180611.347500", "180612.847500", "180614.347500", "180615.847500", "180617.347500", "180618.847500", "180620.347500", "180621.847500", "180623.347500", "180624.847500", "180626.347500", "180627.847500", "180629.347500", "180630.847500", "180632.347500", "180633.847500", "180635.347500", "180636.847500", "180638.347500", "180639.847500", "180641.347500", "180642.847500", "180644.347500", "180645.847500", "180647.347500", "180648.847500", "180650.347500", "180651.847500", "180653.347500", "180654.847500", "180656.347500", "180657.847500", "180659.347500", "180700.847500", "180702.347500", "180703.847500", "180705.347500", "180706.847500", "180708.347500", "180709.847500", "180711.347500", "180712.847500", "180714.347500", "180715.847500", "180717.347500", "180718.847500", "180720.347500", "180721.847500", "180723.347500", "180724.847500", "180726.347500", "180727.847500", "180729.347500", "180730.847500", "180732.347500", "180733.847500", "180735.347500", "180736.847500", "180738.347500", "180739.847500", "180741.347500", "180742.847500", "180744.347500", "180745.847500", "180747.347500", "180748.847500", "180750.347500", "180751.847500", "180753.347500", "180754.847500", "180756.347500", "180757.847500", "180759.347500", "180800.847500", "180802.347500", "180803.847500", "180805.347500", "180806.847500", "180808.347500", "180809.847500", "180811.347500", "180812.847500", "180814.347500", "180815.847500", "180817.347500", "180818.847500", "180820.347500", "180821.847500", "180823.347500", "180824.847500", "180826.347500", "180827.847500", "180829.347500", "180830.847500", "180832.347500", "180833.847500", "180835.347500", "180836.847500", "180838.347500", "180839.847500", "180841.347500", "180842.847500", "180844.347500", "180845.847500", "180847.347500", "180848.847500", "180850.347500", "180851.847500", "180853.347500", "180854.847500", "180856.347500", "180857.847500", "180859.347500", "180900.847500", "180902.347500", "180903.847500", "180905.347500", "180906.847500", "180908.347500", "180909.847500", "180911.347500", "180912.847500", "180914.347500", "180915.847500", "180917.347500", "180918.847500", "180920.347500", "180921.847500", "180923.347500", "180924.847500", "180926.347500", "180927.847500", "180929.347500", "180930.847500", "180932.347500", "180933.847500", "180935.347500", "180936.847500", "180938.347500", "180939.847500", "180941.347500", "180942.847500", "180944.347500", "180945.847500", "180947.347500", "180948.847500", "180950.347500", "180951.847500", "180953.347500", "180954.847500", "180956.347500", "180957.847500", "180959.347500", "181000.847500", "181002.347500", "181003.847500", "181005.347500", "181006.847500", "181008.347500", "181009.847500", "181011.347500", "181012.847500", "181014.347500", "181015.847500", "181017.347500", "181018.847500", "181020.347500", "181021.847500", "181023.347500", "181024.847500", "181026.347500", "181027.847500", "181029.347500", "181030.847500", "181032.347500", "181033.847500", "181035.347500", "181036.847500", "181038.347500", "181039.847500", "181041.347500", "181042.847500", "181044.347500", "181045.847500", "181047.347500", "181048.847500", "181050.347500", "181051.847500", "181053.347500", "181054.847500", "181056.347500", "181057.847500", "181059.347500", "181100.847500", "181102.347500", "181103.847500", "181105.347500", "181106.847500", "181108.347500", "181109.847500", "181111.347500", "181112.847500", "181114.347500", "181115.847500", "181117.347500", "181118.847500", "181120.347500", "181121.847500", "181123.347500", "181124.847500", "181126.347500", "181127.847500", "181129.347500", "181130.847500", "181132.347500", "181133.847500", "181135.347500", "181136.847500", "181138.347500", "181139.847500", "181141.347500", "181142.847500", "181144.347500", "181145.847500", "181147.347500", "181148.847500", "181150.347500", "181151.847500", "181153.347500", "181154.847500", "181156.347500", "181157.847500", "181159.347500", "181200.847500", "181202.347500", "181203.847500", "181205.347500", "181206.847500", "181208.347500", "181209.847500", "181211.347500", "181212.847500", "181214.347500", "181215.847500", "181217.347500", "181218.847500", "181220.347500", "181221.847500", "181223.347500", "181224.847500", "181226.347500", "181227.847500", "181229.347500", "181230.847500", "181232.347500", "181233.847500", "181235.347500", "181236.847500", "181238.347500", "181239.847500", "181241.347500", "181242.847500", "181244.347500", "181245.847500", "181247.347500", "181248.847500", "181250.347500", "181251.847500", "181253.347500", "181254.847500", "181256.347500", "181257.847500", "181259.347500", "181300.847500", "181302.347500", "181303.847500", "181305.347500", "181306.847500", "181308.347500", "181309.847500", "181311.347500", "181312.847500", "181314.347500", "181315.847500", "181317.347500", "181318.847500", "181320.347500", "181321.847500", "181323.347500", "181324.847500", "181326.347500", "181327.847500", "181329.347500", "181330.847500", "181332.347500", "181333.847500", "181335.347500", "181336.847500", "181338.347500", "181339.847500", "181341.347500", "181342.847500", "181344.347500", "181345.847500", "181347.347500", "181348.847500", "181350.347500", "181351.847500", "181353.347500", "181354.847500", "181356.347500", "181357.847500", "181359.347500", "181400.847500", "181402.347500", "181403.847500", "181405.347500", "181406.847500", "181408.347500", "181409.847500", "181411.347500", "181412.847500", "181414.347500", "181415.847500", "181417.347500", "181418.847500", "181420.347500", "181421.847500", "181423.347500", "181424.847500", "181426.347500", "181427.847500", "181429.347500", "181430.847500", "181432.347500", "181433.847500", "181435.347500", "181436.847500", "181438.347500", "181439.847500", "181441.347500", "181442.847500", "181444.347500", "181445.847500", "181447.347500", "181448.847500", "181450.347500", "181451.847500", "181453.347500", "181454.847500", "181456.347500", "181457.847500", "181459.347500", "181500.847500", "181502.347500", "181503.847500", "181505.347500", "181506.847500", "181508.347500", "181509.847500", "181511.347500", "181512.847500", "181514.347500", "181515.847500", "181517.347500", "181518.847500", "181520.347500", "181521.847500", "181523.347500", "181524.847500", "181526.347500", "181527.847500", "181529.347500", "181530.847500", "181532.347500", "181533.847500", "181535.347500", "181536.847500", "181538.347500", "181539.847500", "181541.347500", "181542.847500", "181544.347500", "181545.847500", "181547.347500", "181548.847500", "181550.347500", "181551.847500", "181553.347500", "181554.847500", "181556.347500", "181557.847500", "181559.347500", "181600.847500", "181602.347500", "181603.847500", "181605.347500", "181606.847500", "181608.347500", "181609.847500", "181611.347500", "181612.847500", "181614.347500", "181615.847500", "181617.347500", "181618.847500", "181620.347500", "181621.847500", "181623.347500", "181624.847500", "181626.347500", "181627.847500", "181629.347500", "181630.847500", "181632.347500", "181633.847500", "181635.347500", "181636.847500", "181638.347500", "181639.847500", "181641.347500", "181642.847500", "181644.347500", "181645.847500", "181647.347500", "181648.847500", "181650.347500", "181651.847500", "181653.347500", "181654.847500", "181656.347500", "181657.847500", "181659.347500", "181700.847500", "181702.347500", "181703.847500", "181705.347500", "181706.847500", "181708.347500", "181709.847500", "181711.347500", "181712.847500", "181714.347500", "181715.847500", "181717.347500", "181718.847500", "181720.347500", "181721.847500", "181723.347500", "181724.847500", "181726.347500", "181727.847500", "181729.347500", "181730.847500", "181732.347500", "181733.847500", "181735.347500", "181736.847500", "181738.347500", "181739.847500", "181741.347500", "181742.847500", "181744.347500", "181745.847500", "181747.347500", "181748.847500", "181750.347500", "181751.847500", "181753.347500", "181754.847500", "181756.347500", "181757.847500", "181759.347500", "181800.847500", "181802.347500", "181803.847500", "181805.347500", "181806.847500", "181808.347500", "181809.847500", "181811.347500", "181812.847500", "181814.347500", "181815.847500", "181817.347500", "181818.847500", "181820.347500", "181821.847500", "181823.347500", "181824.847500", "181826.347500", "181827.847500", "181829.347500", "181830.847500", "181832.347500", "181833.847500", "181835.347500", "181836.847500", "181838.347500", "181839.847500", "181841.347500", "181842.847500", "181844.347500", "181845.847500", "181847.347500", "181848.847500", "181850.347500", "181851.847500", "181853.347500", "181854.847500", "181856.347500", "181857.847500", "181859.347500", "181900.847500", "181902.347500", "181903.847500", "181905.347500", "181906.847500", "181908.347500", "181909.847500", "181911.347500", "181912.847500", "181914.347500", "181915.847500", "181917.347500", "181918.847500", "181920.347500", "181921.847500", "181923.347500", "181924.847500", "181926.347500", "181927.847500", "181929.347500", "181930.847500", "181932.347500", "181933.847500", "181935.347500", "181936.847500", "181938.347500", "181939.847500", "181941.347500", "181942.847500", "181944.347500", "181945.847500", "181947.347500", "181948.847500", "181950.347500", "181951.847500", "181953.347500", "181954.847500", "181956.347500", "181957.847500", "181959.347500", "182000.847500", "182002.347500", "182003.847500", "182005.347500", "182006.847500", "182008.347500", "182009.847500", "182011.347500", "182012.847500", "182014.347500", "182015.847500", "182017.347500", "182018.847500", "182020.347500", "182021.847500", "182023.347500", "182024.847500", "182026.347500", "182027.847500", "182029.347500", "182030.847500", "182032.347500", "182033.847500", "182035.347500", "182036.847500", "182038.347500", "182039.847500", "182041.347500", "182042.847500", "182044.347500", "182045.847500", "182047.347500", "182048.847500", "182050.347500", "182051.847500", "182053.347500", "182054.847500", "182056.347500", "182057.847500", "182059.347500", "182100.847500", "182102.347500", "182103.847500", "182105.347500", "182106.847500", "182108.347500", "182109.847500", "182111.347500", "182112.847500", "182114.347500", "182115.847500", "182117.347500", "182118.847500", "182120.347500", "182121.847500", "182123.347500", "182124.847500", "182126.347500", "182127.847500", "182129.347500", "182130.847500", "182132.347500", "182133.847500", "182135.347500", "182136.847500", "182138.347500", "182139.847500", "182141.347500", "182142.847500", "182144.347500", "182145.847500", "182147.347500", "182148.847500", "182150.347500", "182151.847500", "182153.347500", "182154.847500", "182156.347500", "182157.847500", "182159.347500", "182200.847500", "182202.347500", "182203.847500", "182205.347500", "182206.847500", "182208.347500", "182209.847500", "182211.347500", "182212.847500", "182214.347500", "182215.847500", "182217.347500", "182218.847500", "182220.347500", "182221.847500", "182223.347500", "182224.847500", "182226.347500", "182227.847500", "182229.347500", "182230.847500", "182232.347500", "182233.847500", "182235.347500", "182236.847500", "182238.347500", "182239.847500", "182241.347500", "182242.847500", "182244.347500", "182245.847500", "182247.347500", "182248.847500", "182250.347500", "182251.847500", "182253.347500", "182254.847500", "182256.347500", "182257.847500", "182259.347500", "182300.847500", "182302.347500", "182303.847500", "182305.347500", "182306.847500", "182308.347500", "182309.847500", "182311.347500", "182312.847500", "182314.347500", "182315.847500", "182317.347500", "182318.847500", "182320.347500", "182321.847500", "182323.347500", "182324.847500", "182326.347500", "182327.847500", "182329.347500", "182330.847500", "182332.347500", "182333.847500", "182335.347500", "182336.847500", "182338.347500", "182339.847500", "182341.347500", "182342.847500", "182344.347500", "182345.847500", "182347.347500", "182348.847500", "182350.347500", "182351.847500", "182353.347500", "182354.847500", "182356.347500", "182357.847500", "182359.347500", "182400.847500", "182402.347500", "182403.847500", "182405.347500", "182406.847500", "182408.347500", "182409.847500", "182411.347500", "182412.847500", "182414.347500", "182415.847500", "182417.347500", "182418.847500", "182420.347500", "182421.847500", "182423.347500", "182424.847500", "182426.347500", "182427.847500", "182429.347500", "182430.847500", "182432.347500", "182433.847500", "182435.347500", "182436.847500", "182438.347500", "182439.847500", "182441.347500", "182442.847500", "182444.347500", "182445.847500", "182447.347500", "182448.847500", "182450.347500", "182451.847500", "182453.347500", "182454.847500", "182456.347500", "182457.847500", "182459.347500", "182500.847500", "182502.347500", "182503.847500", "182505.347500", "182506.847500", "182508.347500", "182509.847500", "182511.347500", "182512.847500", "182514.347500", "182515.847500", "182517.347500", "182518.847500", "182520.347500", "182521.847500", "182523.347500", "182524.847500", "182526.347500", "182527.847500", "182529.347500", "182530.847500", "182532.347500", "182533.847500", "182535.347500", "182536.847500", "182538.347500", "182539.847500", "182541.347500", "182542.847500", "182544.347500", "182545.847500", "182547.347500", "182548.847500", "182550.347500", "182551.847500", "182553.347500", "182554.847500", "182556.347500", "182557.847500", "182559.347500", "182600.847500", "182602.347500", "182603.847500", "182605.347500", "182606.847500", "182608.347500", "182609.847500", "182611.347500", "182612.847500", "182614.347500", "182615.847500", "182617.347500", "182618.847500", "182620.347500", "182621.847500", "182623.347500", "182624.847500", "182626.347500", "182627.847500", "182629.347500", "182630.847500", "182632.347500", "182633.847500", "182635.347500", "182636.847500", "182638.347500", "182639.847500", "182641.347500", "182642.847500", "182644.347500", "182645.847500", "182647.347500", "182648.847500", "182650.347500", "182651.847500", "182653.347500", "182654.847500", "182656.347500", "182657.847500", "182659.347500", "182700.847500", "182702.347500", "182703.847500", "182705.347500", "182706.847500", "182708.347500", "182709.847500", "182711.347500", "182712.847500", "182714.347500", "182715.847500", "182717.347500", "182718.847500", "182720.347500", "182721.847500", "182723.347500", "182724.847500", "182726.347500", "182727.847500", "182729.347500", "182730.847500", "182732.347500", "182733.847500", "182735.347500", "182736.847500", "182738.347500", "182739.847500", "182741.347500", "182742.847500", "182744.347500", "182745.847500", "182747.347500", "182748.847500", "182750.347500", "182751.847500", "182753.347500", "182754.847500", "182756.347500", "182757.847500", "182759.347500", "182800.847500", "182802.347500", "182803.847500", "182805.347500", "182806.847500", "182808.347500", "182809.847500", "182811.347500", "182812.847500", "182814.347500", "182815.847500", "182817.347500", "182818.847500", "182820.347500", "182821.847500", "182823.347500", "182824.847500", "182826.347500", "182827.847500", "1