{
  "AcquisitionMatrixPE": 106,
  "AcquisitionNumber": 1,
  "AcquisitionTime": "19:19:46.635000",
  "BandwidthPerPixelPhaseEncode": 16.846,
  "BaseResolution": 106,
  "BodyPartExamined": "BRAIN",
  "CoilCombinationMethod": "Sum of Squares",
  "ConsistencyInfo": "N4_VE11C_LATEST_20160120",
  "ConversionSoftware": "dcm2niix",
  "ConversionSoftwareVersion": "v1.0.20220720",
  "DerivedVendorReportedEchoSpacing": 0.000560012,
  "DeviceSerialNumber": "166108",
  "DwellTime": 1.8e-06,
  "EchoTime": 0.0352,
  "EchoTrainLength": 106,
  "EffectiveEchoSpacing": 0.000560012,
  "FlipAngle": 60,
  "HeudiconvVersion": "1.3.0",
  "ImageComments": "Unaliased MB4/PE3/LB",
  "ImageOrientationPatientDICOM": [1, 0, 0, 0, 1, 0],
  "ImageOrientationText": "Tra",
  "ImageType": [
    "ORIGINAL",
    "PRIMARY",
    "M",
    "MB",
    "ND",
    "MOSAIC"
],
  "ImagingFrequency": 123.244,
  "InPlanePhaseEncodingDirectionDICOM": "COL",
  "InstitutionAddress": "Bedford Way 26,London,London,GB,WC1H 0AP",
  "InstitutionName": "University College",
  "InstitutionalDepartmentName": "Department",
  "MRAcquisitionType": "2D",
  "MagneticFieldStrength": 3,
  "Manufacturer": "Siemens",
  "ManufacturersModelName": "Prisma",
  "MatrixCoilMode": "SENSE",
  "Modality": "MR",
  "MultibandAccelerationFactor": 4,
  "NonlinearGradientCorrection": false,
  "PartialFourier": 1,
  "PatientPosition": "HFS",
  "PercentPhaseFOV": 100,
  "PercentSampling": 100,
  "PhaseEncodingDirection": "j-",
  "PhaseEncodingSteps": 106,
  "PhaseResolution": 1,
  "PixelBandwidth": 2620,
  "ProcedureStepDescription": "Egor^MovieProject2",
  "ProtocolName": "task-backtothefuture_run-3",
  "PulseSequenceDetails": "%CustomerSeq%\\cmrr_mbep2d_bold",
  "ReceiveCoilActiveElements": "HEA;HEP",
  "ReceiveCoilName": "Head_32",
  "ReconMatrixPE": 106,
  "RepetitionTime": 1.5,
  "SAR": 0.0700137,
  "ScanOptions": "FS\\EXT",
  "ScanningSequence": "EP",
  "SequenceName": "epfid2d1_106",
  "SequenceVariant": "SK\\SS",
  "SeriesDescription": "task-backtothefuture_run-3",
  "SeriesNumber": 11,
  "ShimSetting": [-1605, 609, 7443, 300, -124, 113, -56, 50],
  "SliceThickness": 2,
  "SliceTiming": [0, 1.0675, 0.6575, 0.245, 1.315, 0.9025, 0.4925, 0.08, 1.15, 0.74, 0.3275, 1.3975, 0.985, 0.575, 0.1625, 1.2325, 0.82, 0.41, 0, 1.0675, 0.6575, 0.245, 1.315, 0.9025, 0.4925, 0.08, 1.15, 0.74, 0.3275, 1.3975, 0.985, 0.575, 0.1625, 1.2325, 0.82, 0.41, 0, 1.0675, 0.6575, 0.245, 1.315, 0.9025, 0.4925, 0.08, 1.15, 0.74, 0.3275, 1.3975, 0.985, 0.575, 0.1625, 1.2325, 0.82, 0.41, 0, 1.0675, 0.6575, 0.245, 1.315, 0.9025, 0.4925, 0.08, 1.15, 0.74, 0.3275, 1.3975, 0.985, 0.575, 0.1625, 1.2325, 0.82, 0.41],
  "SoftwareVersions": "syngo MR E11",
  "SpacingBetweenSlices": 2,
  "StationName": "AWP166108",
  "TaskName": "backtothefuture",
  "TotalReadoutTime": 0.0588013,
  "TxRefAmp": 221.419,
  "WipMemBlock": "10613d9f-4a95-417d-846e-504d9ba393ab||Sequence: R016 ve11c/master r/e634e98; Dec 19 2017 11:00:25 by eja",
  "dcmmeta_affine": [
    [-2.0, 0.0, 0.0, 106.0],
    [0.0, 2.0, 0.0, -82.91566467285156],
    [0.0, 0.0, 2.0, -49.9156608581543],
    [0.0, 0.0, 0.0, 1.0]
],
  "dcmmeta_reorient_transform": [
    [0.0, -1.0, 0.0, 105.0],
    [1.0, 0.0, 0.0, 0.0],
    [0.0, 0.0, 1.0, 0.0],
    [0.0, 0.0, 0.0, 1.0]
],
  "dcmmeta_shape": [106, 106, 72, 1608],
  "dcmmeta_slice_dim": 2,
  "dcmmeta_version": 0.6,
  "global": {
    "const": {
      "AcquisitionMatrix": [106, 0, 0, 106],
      "AngioFlag": "N",
      "BitsAllocated": 16,
      "BitsStored": 16,
      "BodyPartExamined": "BRAIN",
      "CardiacNumberOfImages": 1,
      "Columns": 954,
      "EchoNumbers": 1,
      "EchoTime": 35.2,
      "EchoTrainLength": 106,
      "FlipAngle": 60.0,
      "HighBit": 15,
      "ImageOrientationPatient": [1.0, 0.0, 0.0, 0.0, 1.0, 0.0],
      "ImagePositionPatient": [-954.0, -975.0843372345, -49.915660858154],
      "ImageType": [
        "ORIGINAL",
        "PRIMARY",
        "M",
        "MB",
        "ND",
        "MOSAIC"
],
      "ImagedNucleus": "1H",
      "ImagingFrequency": 123.24371,
      "InPlanePhaseEncodingDirection": "COL",
      "MRAcquisitionType": "2D",
      "MagneticFieldStrength": 3.0,
      "Manufacturer": "SIEMENS",
      "ManufacturerModelName": "Prisma",
      "Modality": "MR",
      "NominalInterval": 0,
      "NumberOfAverages": 1.0,
      "NumberOfPhaseEncodingSteps": 106,
      "PercentPhaseFieldOfView": 100.0,
      "PercentSampling": 100.0,
      "PerformedProcedureStepStartTime": "172459.215000",
      "PhotometricInterpretation": "MONOCHROME2",
      "PixelBandwidth": 2620.0,
      "PixelRepresentation": 0,
      "PixelSpacing": [2.0, 2.0],
      "ProtocolName": "task-backtothefuture_run-3",
      "RepetitionTime": 1500.0,
      "Rows": 954,
      "SAR": 0.07001366915418,
      "SamplesPerPixel": 1,
      "ScanOptions": [
        "FS",
        "EXT"
],
      "ScanningSequence": "EP",
      "SequenceName": "epfid2d1_106",
      "SequenceVariant": [
        "SK",
        "SS"
],
      "SeriesDescription": "task-backtothefuture_run-3",
      "SeriesNumber": 11,
      "SeriesTime": "192042.787000",
      "SliceLocation": -49.915660858154,
      "SliceThickness": 2.0,
      "SmallestImagePixelValue": 0,
      "SoftwareVersions": "syngo MR E11",
      "SpacingBetweenSlices": 1.9999999462719,
      "SpecificCharacterSet": "ISO_IR 100",
      "StudyID": "1",
      "StudyTime": "172459.107000",
      "TransmitCoilName": "Body",
      "VariableFlipAngleFlag": "N",
      "WindowCenterWidthExplanation": "Algo1",
      "dBdt": 0.0},
    "slices": {}
  },
  "time": {
    "samples": {
      "AcquisitionNumber": [1, 2, 3, 4, 5, 6, 7, 8, 9, 10, 11, 12, 13, 14, 15, 16, 17, 18, 19, 20, 21, 22, 23, 24, 25, 26, 27, 28, 29, 30, 31, 32, 33, 34, 35, 36, 37, 38, 39, 40, 41, 42, 43, 44, 45, 46, 47, 48, 49, 50, 51, 52, 53, 54, 55, 56, 57, 58, 59, 60, 61, 62, 63, 64, 65, 66, 67, 68, 69, 70, 71, 72, 73, 74, 75, 76, 77, 78, 79, 80, 81, 82, 83, 84, 85, 86, 87, 88, 89, 90, 91, 92, 93, 94, 95, 96, 97, 98, 99, 100, 101, 102, 103, 104, 105, 106, 107, 108, 109, 110, 111, 112, 113, 114, 115, 116, 117, 118, 119, 120, 121, 122, 123, 124, 125, 126, 127, 128, 129, 130, 131, 132, 133, 134, 135, 136, 137, 138, 139, 140, 141, 142, 143, 144, 145, 146, 147, 148, 149, 150, 151, 152, 153, 154, 155, 156, 157, 158, 159, 160, 161, 162, 163, 164, 165, 166, 167, 168, 169, 170, 171, 172, 173, 174, 175, 176, 177, 178, 179, 180, 181, 182, 183, 184, 185, 186, 187, 188, 189, 190, 191, 192, 193, 194, 195, 196, 197, 198, 199, 200, 201, 202, 203, 204, 205, 206, 207, 208, 209, 210, 211, 212, 213, 214, 215, 216, 217, 218, 219, 220, 221, 222, 223, 224, 225, 226, 227, 228, 229, 230, 231, 232, 233, 234, 235, 236, 237, 238, 239, 240, 241, 242, 243, 244, 245, 246, 247, 248, 249, 250, 251, 252, 253, 254, 255, 256, 257, 258, 259, 260, 261, 262, 263, 264, 265, 266, 267, 268, 269, 270, 271, 272, 273, 274, 275, 276, 277, 278, 279, 280, 281, 282, 283, 284, 285, 286, 287, 288, 289, 290, 291, 292, 293, 294, 295, 296, 297, 298, 299, 300, 301, 302, 303, 304, 305, 306, 307, 308, 309, 310, 311, 312, 313, 314, 315, 316, 317, 318, 319, 320, 321, 322, 323, 324, 325, 326, 327, 328, 329, 330, 331, 332, 333, 334, 335, 336, 337, 338, 339, 340, 341, 342, 343, 344, 345, 346, 347, 348, 349, 350, 351, 352, 353, 354, 355, 356, 357, 358, 359, 360, 361, 362, 363, 364, 365, 366, 367, 368, 369, 370, 371, 372, 373, 374, 375, 376, 377, 378, 379, 380, 381, 382, 383, 384, 385, 386, 387, 388, 389, 390, 391, 392, 393, 394, 395, 396, 397, 398, 399, 400, 401, 402, 403, 404, 405, 406, 407, 408, 409, 410, 411, 412, 413, 414, 415, 416, 417, 418, 419, 420, 421, 422, 423, 424, 425, 426, 427, 428, 429, 430, 431, 432, 433, 434, 435, 436, 437, 438, 439, 440, 441, 442, 443, 444, 445, 446, 447, 448, 449, 450, 451, 452, 453, 454, 455, 456, 457, 458, 459, 460, 461, 462, 463, 464, 465, 466, 467, 468, 469, 470, 471, 472, 473, 474, 475, 476, 477, 478, 479, 480, 481, 482, 483, 484, 485, 486, 487, 488, 489, 490, 491, 492, 493, 494, 495, 496, 497, 498, 499, 500, 501, 502, 503, 504, 505, 506, 507, 508, 509, 510, 511, 512, 513, 514, 515, 516, 517, 518, 519, 520, 521, 522, 523, 524, 525, 526, 527, 528, 529, 530, 531, 532, 533, 534, 535, 536, 537, 538, 539, 540, 541, 542, 543, 544, 545, 546, 547, 548, 549, 550, 551, 552, 553, 554, 555, 556, 557, 558, 559, 560, 561, 562, 563, 564, 565, 566, 567, 568, 569, 570, 571, 572, 573, 574, 575, 576, 577, 578, 579, 580, 581, 582, 583, 584, 585, 586, 587, 588, 589, 590, 591, 592, 593, 594, 595, 596, 597, 598, 599, 600, 601, 602, 603, 604, 605, 606, 607, 608, 609, 610, 611, 612, 613, 614, 615, 616, 617, 618, 619, 620, 621, 622, 623, 624, 625, 626, 627, 628, 629, 630, 631, 632, 633, 634, 635, 636, 637, 638, 639, 640, 641, 642, 643, 644, 645, 646, 647, 648, 649, 650, 651, 652, 653, 654, 655, 656, 657, 658, 659, 660, 661, 662, 663, 664, 665, 666, 667, 668, 669, 670, 671, 672, 673, 674, 675, 676, 677, 678, 679, 680, 681, 682, 683, 684, 685, 686, 687, 688, 689, 690, 691, 692, 693, 694, 695, 696, 697, 698, 699, 700, 701, 702, 703, 704, 705, 706, 707, 708, 709, 710, 711, 712, 713, 714, 715, 716, 717, 718, 719, 720, 721, 722, 723, 724, 725, 726, 727, 728, 729, 730, 731, 732, 733, 734, 735, 736, 737, 738, 739, 740, 741, 742, 743, 744, 745, 746, 747, 748, 749, 750, 751, 752, 753, 754, 755, 756, 757, 758, 759, 760, 761, 762, 763, 764, 765, 766, 767, 768, 769, 770, 771, 772, 773, 774, 775, 776, 777, 778, 779, 780, 781, 782, 783, 784, 785, 786, 787, 788, 789, 790, 791, 792, 793, 794, 795, 796, 797, 798, 799, 800, 801, 802, 803, 804, 805, 806, 807, 808, 809, 810, 811, 812, 813, 814, 815, 816, 817, 818, 819, 820, 821, 822, 823, 824, 825, 826, 827, 828, 829, 830, 831, 832, 833, 834, 835, 836, 837, 838, 839, 840, 841, 842, 843, 844, 845, 846, 847, 848, 849, 850, 851, 852, 853, 854, 855, 856, 857, 858, 859, 860, 861, 862, 863, 864, 865, 866, 867, 868, 869, 870, 871, 872, 873, 874, 875, 876, 877, 878, 879, 880, 881, 882, 883, 884, 885, 886, 887, 888, 889, 890, 891, 892, 893, 894, 895, 896, 897, 898, 899, 900, 901, 902, 903, 904, 905, 906, 907, 908, 909, 910, 911, 912, 913, 914, 915, 916, 917, 918, 919, 920, 921, 922, 923, 924, 925, 926, 927, 928, 929, 930, 931, 932, 933, 934, 935, 936, 937, 938, 939, 940, 941, 942, 943, 944, 945, 946, 947, 948, 949, 950, 951, 952, 953, 954, 955, 956, 957, 958, 959, 960, 961, 962, 963, 964, 965, 966, 967, 968, 969, 970, 971, 972, 973, 974, 975, 976, 977, 978, 979, 980, 981, 982, 983, 984, 985, 986, 987, 988, 989, 990, 991, 992, 993, 994, 995, 996, 997, 998, 999, 1000, 1001, 1002, 1003, 1004, 1005, 1006, 1007, 1008, 1009, 1010, 1011, 1012, 1013, 1014, 1015, 1016, 1017, 1018, 1019, 1020, 1021, 1022, 1023, 1024, 1025, 1026, 1027, 1028, 1029, 1030, 1031, 1032, 1033, 1034, 1035, 1036, 1037, 1038, 1039, 1040, 1041, 1042, 1043, 1044, 1045, 1046, 1047, 1048, 1049, 1050, 1051, 1052, 1053, 1054, 1055, 1056, 1057, 1058, 1059, 1060, 1061, 1062, 1063, 1064, 1065, 1066, 1067, 1068, 1069, 1070, 1071, 1072, 1073, 1074, 1075, 1076, 1077, 1078, 1079, 1080, 1081, 1082, 1083, 1084, 1085, 1086, 1087, 1088, 1089, 1090, 1091, 1092, 1093, 1094, 1095, 1096, 1097, 1098, 1099, 1100, 1101, 1102, 1103, 1104, 1105, 1106, 1107, 1108, 1109, 1110, 1111, 1112, 1113, 1114, 1115, 1116, 1117, 1118, 1119, 1120, 1121, 1122, 1123, 1124, 1125, 1126, 1127, 1128, 1129, 1130, 1131, 1132, 1133, 1134, 1135, 1136, 1137, 1138, 1139, 1140, 1141, 1142, 1143, 1144, 1145, 1146, 1147, 1148, 1149, 1150, 1151, 1152, 1153, 1154, 1155, 1156, 1157, 1158, 1159, 1160, 1161, 1162, 1163, 1164, 1165, 1166, 1167, 1168, 1169, 1170, 1171, 1172, 1173, 1174, 1175, 1176, 1177, 1178, 1179, 1180, 1181, 1182, 1183, 1184, 1185, 1186, 1187, 1188, 1189, 1190, 1191, 1192, 1193, 1194, 1195, 1196, 1197, 1198, 1199, 1200, 1201, 1202, 1203, 1204, 1205, 1206, 1207, 1208, 1209, 1210, 1211, 1212, 1213, 1214, 1215, 1216, 1217, 1218, 1219, 1220, 1221, 1222, 1223, 1224, 1225, 1226, 1227, 1228, 1229, 1230, 1231, 1232, 1233, 1234, 1235, 1236, 1237, 1238, 1239, 1240, 1241, 1242, 1243, 1244, 1245, 1246, 1247, 1248, 1249, 1250, 1251, 1252, 1253, 1254, 1255, 1256, 1257, 1258, 1259, 1260, 1261, 1262, 1263, 1264, 1265, 1266, 1267, 1268, 1269, 1270, 1271, 1272, 1273, 1274, 1275, 1276, 1277, 1278, 1279, 1280, 1281, 1282, 1283, 1284, 1285, 1286, 1287, 1288, 1289, 1290, 1291, 1292, 1293, 1294, 1295, 1296, 1297, 1298, 1299, 1300, 1301, 1302, 1303, 1304, 1305, 1306, 1307, 1308, 1309, 1310, 1311, 1312, 1313, 1314, 1315, 1316, 1317, 1318, 1319, 1320, 1321, 1322, 1323, 1324, 1325, 1326, 1327, 1328, 1329, 1330, 1331, 1332, 1333, 1334, 1335, 1336, 1337, 1338, 1339, 1340, 1341, 1342, 1343, 1344, 1345, 1346, 1347, 1348, 1349, 1350, 1351, 1352, 1353, 1354, 1355, 1356, 1357, 1358, 1359, 1360, 1361, 1362, 1363, 1364, 1365, 1366, 1367, 1368, 1369, 1370, 1371, 1372, 1373, 1374, 1375, 1376, 1377, 1378, 1379, 1380, 1381, 1382, 1383, 1384, 1385, 1386, 1387, 1388, 1389, 1390, 1391, 1392, 1393, 1394, 1395, 1396, 1397, 1398, 1399, 1400, 1401, 1402, 1403, 1404, 1405, 1406, 1407, 1408, 1409, 1410, 1411, 1412, 1413, 1414, 1415, 1416, 1417, 1418, 1419, 1420, 1421, 1422, 1423, 1424, 1425, 1426, 1427, 1428, 1429, 1430, 1431, 1432, 1433, 1434, 1435, 1436, 1437, 1438, 1439, 1440, 1441, 1442, 1443, 1444, 1445, 1446, 1447, 1448, 1449, 1450, 1451, 1452, 1453, 1454, 1455, 1456, 1457, 1458, 1459, 1460, 1461, 1462, 1463, 1464, 1465, 1466, 1467, 1468, 1469, 1470, 1471, 1472, 1473, 1474, 1475, 1476, 1477, 1478, 1479, 1480, 1481, 1482, 1483, 1484, 1485, 1486, 1487, 1488, 1489, 1490, 1491, 1492, 1493, 1494, 1495, 1496, 1497, 1498, 1499, 1500, 1501, 1502, 1503, 1504, 1505, 1506, 1507, 1508, 1509, 1510, 1511, 1512, 1513, 1514, 1515, 1516, 1517, 1518, 1519, 1520, 1521, 1522, 1523, 1524, 1525, 1526, 1527, 1528, 1529, 1530, 1531, 1532, 1533, 1534, 1535, 1536, 1537, 1538, 1539, 1540, 1541, 1542, 1543, 1544, 1545, 1546, 1547, 1548, 1549, 1550, 1551, 1552, 1553, 1554, 1555, 1556, 1557, 1558, 1559, 1560, 1561, 1562, 1563, 1564, 1565, 1566, 1567, 1568, 1569, 1570, 1571, 1572, 1573, 1574, 1575, 1576, 1577, 1578, 1579, 1580, 1581, 1582, 1583, 1584, 1585, 1586, 1587, 1588, 1589, 1590, 1591, 1592, 1593, 1594, 1595, 1596, 1597, 1598, 1599, 1600, 1601, 1602, 1603, 1604, 1605, 1606, 1607, 1608],
      "AcquisitionTime": ["191946.635000", "191948.135000", "191949.635000", "191951.135000", "191952.635000", "191954.135000", "191955.635000", "191957.135000", "191958.635000", "192000.135000", "192001.635000", "192003.135000", "192004.635000", "192006.135000", "192007.635000", "192009.135000", "192010.635000", "192012.135000", "192013.635000", "192015.135000", "192016.635000", "192018.135000", "192019.635000", "192021.135000", "192022.635000", "192024.135000", "192025.635000", "192027.135000", "192028.635000", "192030.135000", "192031.635000", "192033.135000", "192034.635000", "192036.135000", "192037.635000", "192039.135000", "192040.635000", "192042.135000", "192043.635000", "192045.135000", "192046.635000", "192048.135000", "192049.635000", "192051.135000", "192052.635000", "192054.135000", "192055.635000", "192057.135000", "192058.635000", "192100.135000", "192101.635000", "192103.135000", "192104.635000", "192106.135000", "192107.635000", "192109.135000", "192110.635000", "192112.135000", "192113.635000", "192115.135000", "192116.635000", "192118.135000", "192119.635000", "192121.135000", "192122.635000", "192124.135000", "192125.635000", "192127.135000", "192128.635000", "192130.135000", "192131.635000", "192133.135000", "192134.635000", "192136.135000", "192137.635000", "192139.135000", "192140.635000", "192142.135000", "192143.635000", "192145.135000", "192146.635000", "192148.135000", "192149.635000", "192151.135000", "192152.635000", "192154.135000", "192155.635000", "192157.135000", "192158.635000", "192200.135000", "192201.635000", "192203.135000", "192204.635000", "192206.135000", "192207.635000", "192209.135000", "192210.635000", "192212.135000", "192213.635000", "192215.135000", "192216.635000", "192218.135000", "192219.635000", "192221.135000", "192222.635000", "192224.135000", "192225.635000", "192227.135000", "192228.635000", "192230.135000", "192231.635000", "192233.135000", "192234.635000", "192236.135000", "192237.635000", "192239.135000", "192240.635000", "192242.135000", "192243.635000", "192245.135000", "192246.635000", "192248.135000", "192249.635000", "192251.135000", "192252.635000", "192254.135000", "192255.635000", "192257.135000", "192258.635000", "192300.135000", "192301.635000", "192303.135000", "192304.635000", "192306.135000", "192307.635000", "192309.135000", "192310.635000", "192312.135000", "192313.635000", "192315.135000", "192316.635000", "192318.135000", "192319.635000", "192321.135000", "192322.635000", "192324.135000", "192325.635000", "192327.135000", "192328.635000", "192330.135000", "192331.635000", "192333.135000", "192334.635000", "192336.135000", "192337.635000", "192339.135000", "192340.635000", "192342.135000", "192343.635000", "192345.135000", "192346.635000", "192348.135000", "192349.635000", "192351.135000", "192352.635000", "192354.135000", "192355.635000", "192357.135000", "192358.635000", "192400.135000", "192401.635000", "192403.135000", "192404.635000", "192406.135000", "192407.635000", "192409.135000", "192410.635000", "192412.135000", "192413.635000", "192415.135000", "192416.635000", "192418.135000", "192419.635000", "192421.135000", "192422.635000", "192424.135000", "192425.635000", "192427.135000", "192428.635000", "192430.135000", "192431.635000", "192433.135000", "192434.635000", "192436.135000", "192437.635000", "192439.135000", "192440.635000", "192442.135000", "192443.635000", "192445.135000", "192446.635000", "192448.135000", "192449.635000", "192451.135000", "192452.635000", "192454.135000", "192455.635000", "192457.135000", "192458.635000", "192500.135000", "192501.635000", "192503.135000", "192504.635000", "192506.135000", "192507.635000", "192509.135000", "192510.635000", "192512.135000", "192513.635000", "192515.135000", "192516.635000", "192518.135000", "192519.635000", "192521.135000", "192522.635000", "192524.135000", "192525.635000", "192527.135000", "192528.635000", "192530.135000", "192531.635000", "192533.135000", "192534.635000", "192536.135000", "192537.635000", "192539.135000", "192540.635000", "192542.135000", "192543.635000", "192545.135000", "192546.635000", "192548.135000", "192549.635000", "192551.135000", "192552.635000", "192554.135000", "192555.635000", "192557.135000", "192558.635000", "192600.135000", "192601.635000", "192603.135000", "192604.635000", "192606.135000", "192607.635000", "192609.135000", "192610.635000", "192612.135000", "192613.635000", "192615.135000", "192616.635000", "192618.135000", "192619.635000", "192621.135000", "192622.635000", "192624.135000", "192625.635000", "192627.135000", "192628.635000", "192630.135000", "192631.635000", "192633.135000", "192634.635000", "192636.135000", "192637.635000", "192639.135000", "192640.635000", "192642.135000", "192643.635000", "192645.135000", "192646.635000", "192648.135000", "192649.635000", "192651.135000", "192652.635000", "192654.135000", "192655.635000", "192657.135000", "192658.635000", "192700.135000", "192701.635000", "192703.135000", "192704.635000", "192706.135000", "192707.635000", "192709.135000", "192710.635000", "192712.135000", "192713.635000", "192715.135000", "192716.635000", "192718.135000", "192719.635000", "192721.135000", "192722.635000", "192724.135000", "192725.635000", "192727.135000", "192728.635000", "192730.135000", "192731.635000", "192733.135000", "192734.635000", "192736.135000", "192737.635000", "192739.135000", "192740.635000", "192742.135000", "192743.635000", "192745.135000", "192746.635000", "192748.135000", "192749.635000", "192751.135000", "192752.635000", "192754.135000", "192755.635000", "192757.135000", "192758.635000", "192800.135000", "192801.635000", "192803.135000", "192804.635000", "192806.135000", "192807.635000", "192809.135000", "192810.635000", "192812.135000", "192813.635000", "192815.135000", "192816.635000", "192818.135000", "192819.635000", "192821.135000", "192822.635000", "192824.135000", "192825.635000", "192827.135000", "192828.635000", "192830.135000", "192831.635000", "192833.135000", "192834.635000", "192836.135000", "192837.635000", "192839.135000", "192840.635000", "192842.135000", "192843.635000", "192845.135000", "192846.635000", "192848.135000", "192849.635000", "192851.135000", "192852.635000", "192854.135000", "192855.635000", "192857.135000", "192858.635000", "192900.135000", "192901.635000", "192903.135000", "192904.635000", "192906.135000", "192907.635000", "192909.135000", "192910.635000", "192912.135000", "192913.635000", "192915.135000", "192916.635000", "192918.135000", "192919.635000", "192921.135000", "192922.635000", "192924.135000", "192925.635000", "192927.135000", "192928.635000", "192930.135000", "192931.635000", "192933.135000", "192934.635000", "192936.135000", "192937.635000", "192939.135000", "192940.635000", "192942.135000", "192943.635000", "192945.135000", "192946.635000", "192948.135000", "192949.635000", "192951.135000", "192952.635000", "192954.135000", "192955.635000", "192957.135000", "192958.635000", "193000.135000", "193001.635000", "193003.135000", "193004.635000", "193006.135000", "193007.635000", "193009.135000", "193010.635000", "193012.135000", "193013.635000", "193015.135000", "193016.635000", "193018.135000", "193019.635000", "193021.135000", "193022.635000", "193024.135000", "193025.635000", "193027.135000", "193028.635000", "193030.135000", "193031.635000", "193033.135000", "193034.635000", "193036.135000", "193037.635000", "193039.135000", "193040.635000", "193042.135000", "193043.635000", "193045.135000", "193046.635000", "193048.135000", "193049.635000", "193051.135000", "193052.635000", "193054.135000", "193055.635000", "193057.135000", "193058.635000", "193100.135000", "193101.635000", "193103.135000", "193104.635000", "193106.135000", "193107.635000", "193109.135000", "193110.635000", "193112.135000", "193113.635000", "193115.135000", "193116.635000", "193118.135000", "193119.635000", "193121.135000", "193122.635000", "193124.135000", "193125.635000", "193127.135000", "193128.635000", "193130.135000", "193131.635000", "193133.135000", "193134.635000", "193136.135000", "193137.635000", "193139.135000", "193140.635000", "193142.135000", "193143.635000", "193145.135000", "193146.635000", "193148.135000", "193149.635000", "193151.135000", "193152.635000", "193154.135000", "193155.635000", "193157.135000", "193158.635000", "193200.135000", "193201.635000", "193203.135000", "193204.635000", "193206.135000", "193207.635000", "193209.135000", "193210.635000", "193212.135000", "193213.635000", "193215.135000", "193216.635000", "193218.135000", "193219.635000", "193221.135000", "193222.635000", "193224.135000", "193225.635000", "193227.135000", "193228.635000", "193230.135000", "193231.635000", "193233.135000", "193234.635000", "193236.135000", "193237.635000", "193239.135000", "193240.635000", "193242.135000", "193243.635000", "193245.135000", "193246.635000", "193248.135000", "193249.635000", "193251.135000", "193252.635000", "193254.135000", "193255.635000", "193257.135000", "193258.635000", "193300.135000", "193301.635000", "193303.135000", "193304.635000", "193306.135000", "193307.635000", "193309.135000", "193310.635000", "193312.135000", "193313.635000", "193315.135000", "193316.635000", "193318.135000", "193319.635000", "193321.135000", "193322.635000", "193324.135000", "193325.635000", "193327.135000", "193328.635000", "193330.135000", "193331.635000", "193333.135000", "193334.635000", "193336.135000", "193337.635000", "193339.135000", "193340.635000", "193342.135000", "193343.635000", "193345.135000", "193346.635000", "193348.135000", "193349.635000", "193351.135000", "193352.635000", "193354.135000", "193355.635000", "193357.135000", "193358.635000", "193400.135000", "193401.635000", "193403.135000", "193404.635000", "193406.135000", "193407.635000", "193409.135000", "193410.635000", "193412.135000", "193413.635000", "193415.135000", "193416.635000", "193418.135000", "193419.635000", "193421.135000", "193422.635000", "193424.135000", "193425.635000", "193427.135000", "193428.635000", "193430.135000", "193431.635000", "193433.135000", "193434.635000", "193436.135000", "193437.635000", "193439.135000", "193440.635000", "193442.135000", "193443.635000", "193445.135000", "193446.635000", "193448.135000", "193449.635000", "193451.135000", "193452.635000", "193454.135000", "193455.635000", "193457.135000", "193458.635000", "193500.135000", "193501.635000", "193503.135000", "193504.635000", "193506.135000", "193507.635000", "193509.135000", "193510.635000", "193512.135000", "193513.635000", "193515.135000", "193516.635000", "193518.135000", "193519.635000", "193521.135000", "193522.635000", "193524.135000", "193525.635000", "193527.135000", "193528.635000", "193530.135000", "193531.635000", "193533.135000", "193534.635000", "193536.135000", "193537.635000", "193539.135000", "193540.635000", "193542.135000", "193543.635000", "193545.135000", "193546.635000", "193548.135000", "193549.635000", "193551.135000", "193552.635000", "193554.135000", "193555.635000", "193557.135000", "193558.635000", "193600.135000", "193601.635000", "193603.135000", "193604.635000", "193606.135000", "193607.635000", "193609.135000", "193610.635000", "193612.135000", "193613.635000", "193615.135000", "193616.635000", "193618.135000", "193619.635000", "193621.135000", "193622.635000", "193624.135000", "193625.635000", "193627.135000", "193628.635000", "193630.135000", "193631.635000", "193633.135000", "193634.635000", "193636.135000", "193637.635000", "193639.135000", "193640.635000", "193642.135000", "193643.635000", "193645.135000", "193646.635000", "193648.135000", "193649.635000", "193651.135000", "193652.635000", "193654.135000", "193655.635000", "193657.135000", "193658.635000", "193700.135000", "193701.635000", "193703.135000", "193704.635000", "193706.135000", "193707.635000", "193709.135000", "193710.635000", "193712.135000", "193713.635000", "193715.135000", "193716.635000", "193718.135000", "193719.635000", "193721.135000", "193722.635000", "193724.135000", "193725.635000", "193727.135000", "193728.635000", "193730.135000", "193731.635000", "193733.135000", "193734.635000", "193736.135000", "193737.635000", "193739.135000", "193740.635000", "193742.135000", "193743.635000", "193745.135000", "193746.635000", "193748.135000", "193749.635000", "193751.135000", "193752.635000", "193754.135000", "193755.635000", "193757.135000", "193758.635000", "193800.135000", "193801.635000", "193803.135000", "193804.635000", "193806.135000", "193807.635000", "193809.135000", "193810.635000", "193812.135000", "193813.635000", "193815.135000", "193816.635000", "193818.135000", "193819.635000", "193821.135000", "193822.635000", "193824.135000", "193825.635000", "193827.135000", "193828.635000", "193830.135000", "193831.635000", "193833.135000", "193834.635000", "193836.135000", "193837.635000", "193839.135000", "193840.635000", "193842.135000", "193843.635000", "193845.135000", "193846.635000", "193848.135000", "193849.635000", "193851.135000", "193852.635000", "193854.135000", "193855.635000", "193857.135000", "193858.635000", "193900.135000", "193901.635000", "193903.135000", "193904.635000", "193906.135000", "193907.635000", "193909.135000", "193910.635000", "193912.135000", "193913.635000", "193915.135000", "193916.635000", "193918.135000", "193919.635000", "193921.135000", "193922.635000", "193924.135000", "193925.635000", "193927.135000", "193928.635000", "193930.135000", "193931.635000", "193933.135000", "193934.635000", "193936.135000", "193937.635000", "193939.135000", "193940.635000", "193942.135000", "193943.635000", "193945.135000", "193946.635000", "193948.135000", "193949.635000", "193951.135000", "193952.635000", "193954.135000", "193955.635000", "193957.135000", "193958.635000", "194000.135000", "194001.635000", "194003.135000", "194004.635000", "194006.135000", "194007.635000", "194009.135000", "194010.635000", "194012.135000", "194013.635000", "194015.135000", "194016.635000", "194018.135000", "194019.635000", "194021.135000", "194022.635000", "194024.135000", "194025.635000", "194027.135000", "194028.635000", "194030.135000", "194031.635000", "194033.135000", "194034.635000", "194036.135000", "194037.635000", "194039.135000", "194040.635000", "194042.135000", "194043.635000", "194045.135000", "194046.635000", "194048.135000", "194049.635000", "194051.135000", "194052.635000", "194054.135000", "194055.635000", "194057.135000", "194058.635000", "194100.135000", "194101.635000", "194103.135000", "194104.635000", "194106.135000", "194107.635000", "194109.135000", "194110.635000", "194112.135000", "194113.635000", "194115.135000", "194116.635000", "194118.135000", "194119.635000", "194121.135000", "194122.635000", "194124.135000", "194125.635000", "194127.135000", "194128.635000", "194130.135000", "194131.635000", "194133.135000", "194134.635000", "194136.135000", "194137.635000", "194139.135000", "194140.635000", "194142.135000", "194143.635000", "194145.135000", "194146.635000", "194148.135000", "194149.635000", "194151.135000", "194152.635000", "194154.135000", "194155.635000", "194157.135000", "194158.635000", "194200.135000", "194201.635000", "194203.135000", "194204.635000", "194206.135000", "194207.635000", "194209.135000", "194210.635000", "194212.135000", "194213.635000", "194215.135000", "194216.635000", "194218.135000", "194219.635000", "194221.135000", "194222.635000", "194224.135000", "194225.635000", "194227.135000", "194228.635000", "194230.135000", "194231.635000", "194233.135000", "194234.635000", "194236.135000", "194237.635000", "194239.135000", "194240.635000", "194242.135000", "194243.635000", "194245.135000", "194246.635000", "194248.135000", "194249.635000", "194251.135000", "194252.635000", "194254.135000", "194255.635000", "194257.135000", "194258.635000", "194300.135000", "194301