{
  "AcquisitionMatrixPE": 106,
  "AcquisitionNumber": 1,
  "AcquisitionTime": "18:18:42.662500",
  "BandwidthPerPixelPhaseEncode": 13.477,
  "BaseResolution": 106,
  "BodyPartExamined": "BRAIN",
  "CoilCombinationMethod": "Sum of Squares",
  "ConsistencyInfo": "N4_VE11C_LATEST_20160120",
  "ConversionSoftware": "dcm2niix",
  "ConversionSoftwareVersion": "v1.0.20220720",
  "DerivedVendorReportedEchoSpacing": 0.000700005,
  "DeviceSerialNumber": "166108",
  "DwellTime": 2.6e-06,
  "EchoTime": 0.03,
  "EchoTrainLength": 80,
  "EffectiveEchoSpacing": 0.000700005,
  "FlipAngle": 62,
  "HeudiconvVersion": "1.3.0",
  "ImageComments": "Unaliased MB4/PE3/LB",
  "ImageOrientationPatientDICOM": [1, 0, 0, 0, 0.976296, -0.21644],
  "ImageOrientationText": "Tra>Cor(-12.5)",
  "ImageType": [
    "ORIGINAL",
    "PRIMARY",
    "M",
    "MB",
    "ND",
    "MOSAIC"
],
  "ImagingFrequency": 123.244,
  "InPlanePhaseEncodingDirectionDICOM": "COL",
  "InstitutionAddress": "Bedford Way 26,London,London,GB,WC1H 0AP",
  "InstitutionName": "University College",
  "InstitutionalDepartmentName": "Department",
  "MRAcquisitionType": "2D",
  "MagneticFieldStrength": 3,
  "Manufacturer": "Siemens",
  "ManufacturersModelName": "Prisma",
  "MatrixCoilMode": "SENSE",
  "Modality": "MR",
  "MultibandAccelerationFactor": 4,
  "NonlinearGradientCorrection": false,
  "PartialFourier": 0.75,
  "PatientPosition": "HFS",
  "PercentPhaseFOV": 100,
  "PercentSampling": 100,
  "PhaseEncodingDirection": "j-",
  "PhaseEncodingSteps": 80,
  "PhaseResolution": 1,
  "PixelBandwidth": 1815,
  "ProcedureStepDescription": "Egor^MovieProject2",
  "ProtocolName": "func-bold_task-motor_run-01",
  "PulseSequenceDetails": "%CustomerSeq%\\cmrr_mbep2d_bold",
  "ReceiveCoilActiveElements": "HEA;HEP",
  "ReceiveCoilName": "Head_32",
  "ReconMatrixPE": 106,
  "RepetitionTime": 1,
  "SAR": 0.0373227,
  "ScanOptions": "PFP\\FS\\EXT",
  "ScanningSequence": "EP",
  "SequenceName": "epfid2d1_106",
  "SequenceVariant": "SK\\SS",
  "SeriesDescription": "func-bold_task-motor_run-01",
  "SeriesNumber": 6,
  "ShimSetting": [-1617, 669, 7376, 261, -77, 344, -69, 7],
  "SliceThickness": 2,
  "SliceTiming": [0, 0.535, 0.09, 0.625, 0.18, 0.7125, 0.2675, 0.8025, 0.3575, 0.8925, 0.445, 0, 0.535, 0.09, 0.625, 0.18, 0.7125, 0.2675, 0.8025, 0.3575, 0.8925, 0.445, 0, 0.535, 0.09, 0.625, 0.18, 0.7125, 0.2675, 0.8025, 0.3575, 0.8925, 0.445, 0, 0.535, 0.09, 0.625, 0.18, 0.7125, 0.2675, 0.8025, 0.3575, 0.8925, 0.445],
  "SoftwareVersions": "syngo MR E11",
  "SpacingBetweenSlices": 2,
  "StationName": "AWP166108",
  "TaskName": "somatotopy",
  "TotalReadoutTime": 0.0735005,
  "TxRefAmp": 237.551,
  "WipMemBlock": "01906c6e-d2f8-4fbd-b9c7-696c24dd826d||Sequence: R016 ve11c/master r/e634e98; Dec 19 2017 11:00:25 by eja",
  "dcmmeta_affine": [
    [-2.0, 0.0, 0.0, 106.0],
    [0.0, 1.9525920152664185, -0.432879239320755, -91.70278930664062],
    [0.0, 0.432879239320755, 1.9525920152664185, -29.209104537963867],
    [0.0, 0.0, 0.0, 1.0]
],
  "dcmmeta_reorient_transform": [
    [0.0, -1.0, 0.0, 105.0],
    [1.0, 0.0, 0.0, 0.0],
    [0.0, 0.0, 1.0, 0.0],
    [0.0, 0.0, 0.0, 1.0]
],
  "dcmmeta_shape": [106, 106, 44, 467],
  "dcmmeta_slice_dim": 2,
  "dcmmeta_version": 0.6,
  "global": {
    "const": {
      "AcquisitionMatrix": [106, 0, 0, 106],
      "AngioFlag": "N",
      "BitsAllocated": 16,
      "BitsStored": 16,
      "BodyPartExamined": "BRAIN",
      "CardiacNumberOfImages": 1,
      "Columns": 742,
      "EchoNumbers": 1,
      "EchoTime": 30.0,
      "EchoTrainLength": 80,
      "FlipAngle": 62.0,
      "HighBit": 15,
      "ImageOrientationPatient": [1.0, 0.0, 0.0, 0.0, 0.97629600560084, -0.2164396207903],
      "ImagePositionPatient": [-742.0, -734.2436311662, 153.89881441392],
      "ImageType": [
        "ORIGINAL",
        "PRIMARY",
        "M",
        "MB",
        "ND",
        "MOSAIC"
],
      "ImagedNucleus": "1H",
      "ImagingFrequency": 123.243682,
      "InPlanePhaseEncodingDirection": "COL",
      "MRAcquisitionType": "2D",
      "MagneticFieldStrength": 3.0,
      "Manufacturer": "SIEMENS",
      "ManufacturerModelName": "Prisma",
      "Modality": "MR",
      "NominalInterval": 0,
      "NumberOfAverages": 1.0,
      "NumberOfPhaseEncodingSteps": 80,
      "PercentPhaseFieldOfView": 100.0,
      "PercentSampling": 100.0,
      "PerformedProcedureStepStartTime": "174506.183000",
      "PhotometricInterpretation": "MONOCHROME2",
      "PixelBandwidth": 1815.0,
      "PixelRepresentation": 0,
      "PixelSpacing": [2.0, 2.0],
      "ProtocolName": "func-bold_task-motor_run-01",
      "RepetitionTime": 1000.0,
      "Rows": 742,
      "SAR": 0.03732266669257,
      "SamplesPerPixel": 1,
      "ScanOptions": [
        "PFP",
        "FS",
        "EXT"
],
      "ScanningSequence": "EP",
      "SequenceName": "epfid2d1_106",
      "SequenceVariant": [
        "SK",
        "SS"
],
      "SeriesDescription": "func-bold_task-motor_run-01",
      "SeriesNumber": 6,
      "SeriesTime": "181919.739000",
      "SliceLocation": -8.6686153183011,
      "SliceThickness": 2.0,
      "SmallestImagePixelValue": 0,
      "SoftwareVersions": "syngo MR E11",
      "SpacingBetweenSlices": 1.9999999431777,
      "SpecificCharacterSet": "ISO_IR 100",
      "StudyID": "1",
      "StudyTime": "174506.122000",
      "TransmitCoilName": "Body",
      "VariableFlipAngleFlag": "N",
      "WindowCenterWidthExplanation": "Algo1",
      "dBdt": 0.0},
    "slices": {}
  },
  "time": {
    "samples": {
      "AcquisitionNumber": [1, 2, 3, 4, 5, 6, 7, 8, 9, 10, 11, 12, 13, 14, 15, 16, 17, 18, 19, 20, 21, 22, 23, 24, 25, 26, 27, 28, 29, 30, 31, 32, 33, 34, 35, 36, 37, 38, 39, 40, 41, 42, 43, 44, 45, 46, 47, 48, 49, 50, 51, 52, 53, 54, 55, 56, 57, 58, 59, 60, 61, 62, 63, 64, 65, 66, 67, 68, 69, 70, 71, 72, 73, 74, 75, 76, 77, 78, 79, 80, 81, 82, 83, 84, 85, 86, 87, 88, 89, 90, 91, 92, 93, 94, 95, 96, 97, 98, 99, 100, 101, 102, 103, 104, 105, 106, 107, 108, 109, 110, 111, 112, 113, 114, 115, 116, 117, 118, 119, 120, 121, 122, 123, 124, 125, 126, 127, 128, 129, 130, 131, 132, 133, 134, 135, 136, 137, 138, 139, 140, 141, 142, 143, 144, 145, 146, 147, 148, 149, 150, 151, 152, 153, 154, 155, 156, 157, 158, 159, 160, 161, 162, 163, 164, 165, 166, 167, 168, 169, 170, 171, 172, 173, 174, 175, 176, 177, 178, 179, 180, 181, 182, 183, 184, 185, 186, 187, 188, 189, 190, 191, 192, 193, 194, 195, 196, 197, 198, 199, 200, 201, 202, 203, 204, 205, 206, 207, 208, 209, 210, 211, 212, 213, 214, 215, 216, 217, 218, 219, 220, 221, 222, 223, 224, 225, 226, 227, 228, 229, 230, 231, 232, 233, 234, 235, 236, 237, 238, 239, 240, 241, 242, 243, 244, 245, 246, 247, 248, 249, 250, 251, 252, 253, 254, 255, 256, 257, 258, 259, 260, 261, 262, 263, 264, 265, 266, 267, 268, 269, 270, 271, 272, 273, 274, 275, 276, 277, 278, 279, 280, 281, 282, 283, 284, 285, 286, 287, 288, 289, 290, 291, 292, 293, 294, 295, 296, 297, 298, 299, 300, 301, 302, 303, 304, 305, 306, 307, 308, 309, 310, 311, 312, 313, 314, 315, 316, 317, 318, 319, 320, 321, 322, 323, 324, 325, 326, 327, 328, 329, 330, 331, 332, 333, 334, 335, 336, 337, 338, 339, 340, 341, 342, 343, 344, 345, 346, 347, 348, 349, 350, 351, 352, 353, 354, 355, 356, 357, 358, 359, 360, 361, 362, 363, 364, 365, 366, 367, 368, 369, 370, 371, 372, 373, 374, 375, 376, 377, 378, 379, 380, 381, 382, 383, 384, 385, 386, 387, 388, 389, 390, 391, 392, 393, 394, 395, 396, 397, 398, 399, 400, 401, 402, 403, 404, 405, 406, 407, 408, 409, 410, 411, 412, 413, 414, 415, 416, 417, 418, 419, 420, 421, 422, 423, 424, 425, 426, 427, 428, 429, 430, 431, 432, 433, 434, 435, 436, 437, 438, 439, 440, 441, 442, 443, 444, 445, 446, 447, 448, 449, 450, 451, 452, 453, 454, 455, 456, 457, 458, 459, 460, 461, 462, 463, 464, 465, 466, 467],
      "AcquisitionTime": ["181842.662500", "181843.662500", "181844.662500", "181845.662500", "181846.662500", "181847.662500", "181848.662500", "181849.662500", "181850.662500", "181851.662500", "181852.662500", "181853.662500", "181854.662500", "181855.662500", "181856.662500", "181857.662500", "181858.662500", "181859.662500", "181900.662500", "181901.662500", "181902.662500", "181903.662500", "181904.662500", "181905.662500", "181906.662500", "181907.662500", "181908.662500", "181909.662500", "181910.662500", "181911.662500", "181912.662500", "181913.662500", "181914.662500", "181915.662500", "181916.662500", "181917.662500", "181918.662500", "181919.662500", "181920.662500", "181921.662500", "181922.662500", "181923.662500", "181924.662500", "181925.662500", "181926.662500", "181927.662500", "181928.662500", "181929.662500", "181930.662500", "181931.662500", "181932.662500", "181933.662500", "181934.662500", "181935.662500", "181936.662500", "181937.662500", "181938.662500", "181939.662500", "181940.662500", "181941.662500", "181942.662500", "181943.662500", "181944.662500", "181945.662500", "181946.662500", "181947.662500", "181948.662500", "181949.662500", "181950.662500", "181951.662500", "181952.662500", "181953.662500", "181954.662500", "181955.662500", "181956.662500", "181957.662500", "181958.662500", "181959.662500", "182000.662500", "182001.662500", "182002.662500", "182003.662500", "182004.662500", "182005.662500", "182006.662500", "182007.662500", "182008.662500", "182009.662500", "182010.662500", "182011.662500", "182012.662500", "182013.662500", "182014.662500", "182015.662500", "182016.662500", "182017.662500", "182018.662500", "182019.662500", "182020.662500", "182021.662500", "182022.662500", "182023.662500", "182024.662500", "182025.662500", "182026.662500", "182027.662500", "182028.662500", "182029.662500", "182030.662500", "182031.662500", "182032.662500", "182033.662500", "182034.662500", "182035.662500", "182036.662500", "182037.662500", "182038.662500", "182039.662500", "182040.662500", "182041.662500", "182042.662500", "182043.662500", "182044.662500", "182045.662500", "182046.662500", "182047.662500", "182048.662500", "182049.662500", "182050.662500", "182051.662500", "182052.662500", "182053.662500", "182054.662500", "182055.662500", "182056.662500", "182057.662500", "182058.662500", "182059.662500", "182100.662500", "182101.662500", "182102.662500", "182103.662500", "182104.662500", "182105.662500", "182106.662500", "182107.662500", "182108.662500", "182109.662500", "182110.662500", "182111.662500", "182112.662500", "182113.662500", "182114.662500", "182115.662500", "182116.662500", "182117.662500", "182118.662500", "182119.662500", "182120.662500", "182121.662500", "182122.662500", "182123.662500", "182124.662500", "182125.662500", "182126.662500", "182127.662500", "182128.662500", "182129.662500", "182130.662500", "182131.662500", "182132.662500", "182133.662500", "182134.662500", "182135.662500", "182136.662500", "182137.662500", "182138.662500", "182139.662500", "182140.662500", "182141.662500", "182142.662500", "182143.662500", "182144.662500", "182145.662500", "182146.662500", "182147.662500", "182148.662500", "182149.662500", "182150.662500", "182151.662500", "182152.662500", "182153.662500", "182154.662500", "182155.662500", "182156.662500", "182157.662500", "182158.662500", "182159.662500", "182200.662500", "182201.662500", "182202.662500", "182203.662500", "182204.662500", "182205.662500", "182206.662500", "182207.662500", "182208.662500", "182209.662500", "182210.662500", "182211.662500", "182212.662500", "182213.662500", "182214.662500", "182215.662500", "182216.662500", "182217.662500", "182218.662500", "182219.662500", "182220.662500", "182221.662500", "182222.662500", "182223.662500", "182224.662500", "182225.662500", "182226.662500", "182227.662500", "182228.662500", "182229.662500", "182230.662500", "182231.662500", "182232.662500", "182233.662500", "182234.662500", "182235.662500", "182236.662500", "182237.662500", "182238.662500", "182239.662500", "182240.662500", "182241.662500", "182242.662500", "182243.662500", "182244.662500", "182245.662500", "182246.662500", "182247.662500", "182248.662500", "182249.662500", "182250.662500", "182251.662500", "182252.662500", "182253.662500", "182254.662500", "182255.662500", "182256.662500", "182257.662500", "182258.662500", "182259.662500", "182300.662500", "182301.662500", "182302.662500", "182303.662500", "182304.662500", "182305.662500", "182306.662500", "182307.662500", "182308.662500", "182309.662500", "182310.662500", "182311.662500", "182312.662500", "182313.662500", "182314.662500", "182315.662500", "182316.662500", "182317.662500", "182318.662500", "182319.662500", "182320.662500", "182321.662500", "182322.662500", "182323.662500", "182324.662500", "182325.662500", "182326.662500", "182327.662500", "182328.662500", "182329.662500", "182330.662500", "182331.662500", "182332.662500", "182333.662500", "182334.662500", "182335.662500", "182336.662500", "182337.662500", "182338.662500", "182339.662500", "182340.662500", "182341.662500", "182342.662500", "182343.662500", "182344.662500", "182345.662500", "182346.662500", "182347.662500", "182348.662500", "182349.662500", "182350.662500", "182351.662500", "182352.662500", "182353.662500", "182354.662500", "182355.662500", "182356.662500", "182357.662500", "182358.662500", "182359.662500", "182400.662500", "182401.662500", "182402.662500", "182403.662500", "182404.662500", "182405.662500", "182406.662500", "182407.662500", "182408.662500", "182409.662500", "182410.662500", "182411.662500", "182412.662500", "182413.662500", "182414.662500", "182415.662500", "182416.662500", "182417.662500", "182418.662500", "182419.662500", "182420.662500", "182421.662500", "182422.662500", "182423.662500", "182424.662500", "182425.662500", "182426.662500", "182427.662500", "182428.662500", "182429.662500", "182430.662500", "182431.662500", "182432.662500", "182433.662500", "182434.662500", "182435.662500", "182436.662500", "182437.662500", "182438.662500", "182439.662500", "182440.662500", "182441.662500", "182442.662500", "182443.662500", "182444.662500", "182445.662500", "182446.662500", "182447.662500", "182448.662500", "182449.662500", "182450.662500", "182451.662500", "182452.662500", "182453.662500", "182454.662500", "182455.662500", "182456.662500", "182457.662500", "182458.662500", "182459.662500", "182500.662500", "182501.662500", "182502.662500", "182503.662500", "182504.662500", "182505.662500", "182506.662500", "182507.662500", "182508.662500", "182509.662500", "182510.662500", "182511.662500", "182512.662500", "182513.662500", "182514.662500", "182515.662500", "182516.662500", "182517.662500", "182518.662500", "182519.662500", "182520.662500", "182521.662500", "182522.662500", "182523.662500", "182524.662500", "182525.662500", "182526.662500", "182527.662500", "182528.662500", "182529.662500", "182530.662500", "182531.662500", "182532.662500", "182533.662500", "182534.662500", "182535.662500", "182536.662500", "182537.662500", "182538.662500", "182539.662500", "182540.662500", "182541.662500", "182542.662500", "182543.662500", "182544.662500", "182545.662500", "182546.662500", "182547.662500", "182548.662500", "182549.662500", "182550.662500", "182551.662500", "182552.662500", "182553.662500", "182554.662500", "182555.662500", "182556.662500", "182557.662500", "182558.662500", "182559.662500", "182600.662500", "182601.662500", "182602.662500", "182603.662500", "182604.662500", "182605.662500", "182606.662500", "182607.662500", "182608.662500", "182609.662500", "182610.662500", "182611.662500", "182612.662500", "182613.662500", "182614.662500", "182615.662500", "182616.662500", "182617.662500", "182618.662500", "182619.662500", "182620.662500", "182621.662500", "182622.662500", "182623.662500", "182624.662500", "182625.662500", "182626.662500", "182627.662500", "182628.662500"],
      "ContentTime": ["181919.741000", "181919.744000", "181919.746000", "181919.749000", "181919.751000", "181919.754000", "181919.756000", "181919.758000", "181919.761000", "181919.763000", "181919.766000", "181919.768000", "181919.771000", "181919.773000", "181919.775000", "181919.778000", "181919.784000", "181919.787000", "181919.789000", "181919.792000", "181919.794000", "181919.796000", "181919.799000", "181919.801000", "181919.804000", "181919.806000", "181919.809000", "181919.811000", "181919.818000", "181919.821000", "181919.823000", "181919.826000", "181919.828000", "181919.830000", "181919.833000", "181919.835000", "181939.709000", "181939.712000", "181939.714000", "181939.717000", "181939.719000", "181939.722000", "181939.724000", "181939.726000", "181939.729000", "181939.731000", "181939.734000", "181939.736000", "181939.739000", "181939.741000", "181939.743000", "181939.750000", "181939.753000", "181939.755000", "181939.758000", "181939.760000", "181959.708000", "181959.711000", "181959.713000", "181959.716000", "181959.718000", "181959.721000", "181959.723000", "181959.725000", "181959.728000", "181959.730000", "181959.733000", "181959.735000", "181959.737000", "181959.740000", "181959.752000", "181959.755000", "181959.757000", "181959.760000", "181959.762000", "181959.764000", "182019.708000", "182019.711000", "182019.713000", "182019.716000", "182019.718000", "182019.734000", "182019.737000", "182019.739000", "182019.741000", "182019.744000", "182019.746000", "182019.749000", "182019.751000", "182019.754000", "182019.756000", "182019.758000", "182019.761000", "182019.763000", "182019.766000", "182019.768000", "182039.708000", "182039.711000", "182039.714000", "182039.716000", "182039.718000", "182039.721000", "182039.723000", "182039.726000", "182039.728000", "182039.730000", "182039.733000", "182039.735000", "182039.738000", "182039.752000", "182039.754000", "182039.757000", "182039.759000", "182039.762000", "182039.764000", "182039.766000", "182059.708000", "182059.711000", "182059.714000", "182059.716000", "182059.719000", "182059.721000", "182059.724000", "182059.726000", "182059.728000", "182059.731000", "182059.733000", "182059.736000", "182059.738000", "182059.740000", "182059.743000", "182059.745000", "182059.748000", "182059.750000", "182059.762000", "182059.764000", "182119.709000", "182119.712000", "182119.714000", "182119.717000", "182119.719000", "182119.722000", "182119.724000", "182119.726000", "182119.729000", "182119.731000", "182119.734000", "182119.736000", "182119.739000", "182119.741000", "182119.744000", "182119.746000", "182119.748000", "182119.751000", "182119.753000", "182119.756000", "182139.709000", "182139.712000", "182139.714000", "182139.717000", "182139.719000", "182139.722000", "182139.724000", "182139.727000", "182139.729000", "182139.732000", "182139.734000", "182139.736000", "182139.739000", "182139.741000", "182139.744000", "182139.746000", "182139.748000", "182139.751000", "182139.753000", "182139.756000", "182159.709000", "182159.712000", "182159.714000", "182159.717000", "182159.719000", "182159.722000", "182159.724000", "182159.726000", "182159.729000", "182159.731000", "182159.734000", "182159.736000", "182159.747000", "182159.749000", "182159.752000", "182159.754000", "182159.757000", "182159.759000", "182159.761000", "182159.764000", "182219.708000", "182219.711000", "182219.713000", "182219.716000", "182219.718000", "182219.721000", "182219.723000", "182219.726000", "182219.728000", "182219.730000", "182219.733000", "182219.735000", "182219.738000", "182219.740000", "182219.742000", "182219.745000", "182219.747000", "182219.750000", "182219.752000", "182219.755000", "182239.708000", "182239.711000", "182239.714000", "182239.716000", "182239.718000", "182239.721000", "182239.723000", "182239.726000", "182239.728000", "182239.731000", "182239.733000", "182239.735000", "182239.738000", "182239.740000", "182239.743000", "182239.745000", "182239.748000", "182239.750000", "182239.752000", "182239.755000", "182259.708000", "182259.711000", "182259.713000", "182259.716000", "182259.718000", "182259.721000", "182259.723000", "182259.726000", "182259.728000", "182259.731000", "182259.733000", "182259.735000", "182259.738000", "182259.740000", "182259.743000", "182259.745000", "182259.748000", "182259.750000", "182259.752000", "182259.755000", "182319.709000", "182319.712000", "182319.714000", "182319.725000", "182319.728000", "182319.730000", "182319.733000", "182319.735000", "182319.738000", "182319.740000", "182319.742000", "182319.745000", "182319.747000", "182319.750000", "182319.752000", "182319.755000", "182319.757000", "182319.759000", "182319.762000", "182319.764000", "182339.709000", "182339.712000", "182339.715000", "182339.717000", "182339.719000", "182339.722000", "182339.724000", "182339.727000", "182339.729000", "182339.731000", "182339.734000", "182339.736000", "182339.739000", "182339.741000", "182339.744000", "182339.746000", "182339.748000", "182339.751000", "182339.753000", "182339.756000", "182359.709000", "182359.712000", "182359.714000", "182359.717000", "182359.719000", "182359.722000", "182359.724000", "182359.727000", "182359.729000", "182359.731000", "182359.734000", "182359.737000", "182359.739000", "182359.741000", "182359.744000", "182359.755000", "182359.758000", "182359.760000", "182359.762000", "182359.765000", "182419.709000", "182419.712000", "182419.715000", "182419.717000", "182419.719000", "182419.722000", "182419.724000", "182419.727000", "182419.729000", "182419.731000", "182419.734000", "182419.736000", "182419.739000", "182419.741000", "182419.744000", "182419.746000", "182419.749000", "182419.751000", "182419.754000", "182419.756000", "182439.709000", "182439.711000", "182439.714000", "182439.716000", "182439.719000", "182439.721000", "182439.723000", "182439.726000", "182439.728000", "182439.731000", "182439.733000", "182439.736000", "182439.738000", "182439.740000", "182439.743000", "182439.746000", "182439.748000", "182439.750000", "182439.753000", "182439.755000", "182459.708000", "182459.711000", "182459.713000", "182459.716000", "182459.718000", "182459.721000", "182459.723000", "182459.726000", "182459.728000", "182459.730000", "182459.733000", "182459.735000", "182459.738000", "182459.740000", "182459.742000", "182459.745000", "182459.747000", "182459.750000", "182459.752000", "182459.755000", "182519.708000", "182519.711000", "182519.714000", "182519.716000", "182519.719000", "182519.721000", "182519.723000", "182519.726000", "182519.728000", "182519.731000", "182519.733000", "182519.736000", "182519.738000", "182519.740000", "182519.743000", "182519.745000", "182519.748000", "182519.750000", "182519.753000", "182519.755000", "182539.709000", "182539.712000", "182539.714000", "182539.717000", "182539.719000", "182539.722000", "182539.724000", "182539.727000", "182539.729000", "182539.731000", "182539.734000", "182539.736000", "182539.739000", "182539.741000", "182539.744000", "182539.746000", "182539.748000", "182539.751000", "182539.753000", "182539.756000", "182559.709000", "182559.712000", "182559.715000", "182559.717000", "182559.720000", "182559.722000", "182559.725000", "182559.727000", "182559.729000", "182559.732000", "182559.734000", "182559.737000", "182559.739000", "182559.742000", "182559.744000", "182559.747000", "182559.749000", "182559.752000", "182559.754000", "182559.756000", "182619.709000", "182619.712000", "182619.715000", "182619.717000", "182619.720000", "182619.722000", "182619.724000", "182619.727000", "182619.729000", "182619.732000", "182619.734000", "182619.737000", "182619.739000", "182619.741000", "182619.744000", "182619.746000", "182619.749000", "182619.766000", "182619.768000", "182619.770000", "182630.147000", "182630.149000", "182630.153000", "182630.156000", "182630.158000", "182630.161000", "182630.163000", "182630.166000", "182630.168000", "182630.171000", "182630.173000"],
