{
  "AcquisitionMatrixPE": 106,
  "AcquisitionNumber": 1,
  "AcquisitionTime": "19:20:59.867500",
  "BandwidthPerPixelPhaseEncode": 16.846,
  "BaseResolution": 106,
  "BodyPartExamined": "BRAIN",
  "CoilCombinationMethod": "Sum of Squares",
  "ConsistencyInfo": "N4_VE11C_LATEST_20160120",
  "ConversionSoftware": "dcm2niix",
  "ConversionSoftwareVersion": "v1.0.20220720",
  "DerivedVendorReportedEchoSpacing": 0.000560012,
  "DeviceSerialNumber": "166108",
  "DwellTime": 1.8e-06,
  "EchoTime": 0.0352,
  "EchoTrainLength": 106,
  "EffectiveEchoSpacing": 0.000560012,
  "FlipAngle": 60,
  "HeudiconvVersion": "1.3.0",
  "ImageComments": "Unaliased MB4/PE3/LB",
  "ImageOrientationPatientDICOM": [1, 0, 0, 0, 1, 0],
  "ImageOrientationText": "Tra",
  "ImageType": [
    "ORIGINAL",
    "PRIMARY",
    "M",
    "MB",
    "ND",
    "MOSAIC"
],
  "ImagingFrequency": 123.244,
  "InPlanePhaseEncodingDirectionDICOM": "COL",
  "InstitutionAddress": "Bedford Way 26,London,London,GB,WC1H 0AP",
  "InstitutionName": "University College",
  "InstitutionalDepartmentName": "Department",
  "MRAcquisitionType": "2D",
  "MagneticFieldStrength": 3,
  "Manufacturer": "Siemens",
  "ManufacturersModelName": "Prisma",
  "MatrixCoilMode": "SENSE",
  "Modality": "MR",
  "MultibandAccelerationFactor": 4,
  "NonlinearGradientCorrection": false,
  "PartialFourier": 1,
  "PatientPosition": "HFS",
  "PercentPhaseFOV": 100,
  "PercentSampling": 100,
  "PhaseEncodingDirection": "j-",
  "PhaseEncodingSteps": 106,
  "PhaseResolution": 1,
  "PixelBandwidth": 2620,
  "ProcedureStepDescription": "Egor^MovieProject2",
  "ProtocolName": "task-backtothefuture_run-2",
  "PulseSequenceDetails": "%CustomerSeq%\\cmrr_mbep2d_bold",
  "ReceiveCoilActiveElements": "HEA;HEP",
  "ReceiveCoilName": "Head_32",
  "ReconMatrixPE": 106,
  "RepetitionTime": 1.5,
  "SAR": 0.0703855,
  "ScanOptions": "FS\\EXT",
  "ScanningSequence": "EP",
  "SequenceName": "epfid2d1_106",
  "SequenceVariant": "SK\\SS",
  "SeriesDescription": "task-backtothefuture_run-2",
  "SeriesNumber": 7,
  "ShimSetting": [-1582, 643, 7391, 243, -36, 180, 1, 3],
  "SliceThickness": 2,
  "SliceTiming": [0, 1.0675, 0.6575, 0.2475, 1.315, 0.905, 0.4925, 0.0825, 1.15, 0.74, 0.3275, 1.3975, 0.9875, 0.575, 0.165, 1.2325, 0.8225, 0.41, 0, 1.0675, 0.6575, 0.2475, 1.315, 0.905, 0.4925, 0.0825, 1.15, 0.74, 0.3275, 1.3975, 0.9875, 0.575, 0.165, 1.2325, 0.8225, 0.41, 0, 1.0675, 0.6575, 0.2475, 1.315, 0.905, 0.4925, 0.0825, 1.15, 0.74, 0.3275, 1.3975, 0.9875, 0.575, 0.165, 1.2325, 0.8225, 0.41, 0, 1.0675, 0.6575, 0.2475, 1.315, 0.905, 0.4925, 0.0825, 1.15, 0.74, 0.3275, 1.3975, 0.9875, 0.575, 0.165, 1.2325, 0.8225, 0.41],
  "SoftwareVersions": "syngo MR E11",
  "SpacingBetweenSlices": 2,
  "StationName": "AWP166108",
  "TaskName": "backtothefuture",
  "TotalReadoutTime": 0.0588013,
  "TxRefAmp": 240.531,
  "WipMemBlock": "9a7b0046-1b56-407f-bd82-919203f44114||Sequence: R016 ve11c/master r/e634e98; Dec 19 2017 11:00:25 by eja",
  "dcmmeta_affine": [
    [-2.0, 0.0, 0.0, 106.0],
    [0.0, 2.0, 0.0, -84.72289276123047],
    [0.0, 0.0, 2.0, -72.20481872558594],
    [0.0, 0.0, 0.0, 1.0]
],
  "dcmmeta_reorient_transform": [
    [0.0, -1.0, 0.0, 105.0],
    [1.0, 0.0, 0.0, 0.0],
    [0.0, 0.0, 1.0, 0.0],
    [0.0, 0.0, 0.0, 1.0]
],
  "dcmmeta_shape": [106, 106, 72, 1522],
  "dcmmeta_slice_dim": 2,
  "dcmmeta_version": 0.6,
  "global": {
    "const": {
      "AcquisitionMatrix": [106, 0, 0, 106],
      "AngioFlag": "N",
      "BitsAllocated": 16,
      "BitsStored": 16,
      "BodyPartExamined": "BRAIN",
      "CardiacNumberOfImages": 1,
      "Columns": 954,
      "EchoNumbers": 1,
      "EchoTime": 35.2,
      "EchoTrainLength": 106,
      "FlipAngle": 60.0,
      "HighBit": 15,
      "ImageOrientationPatient": [1.0, 0.0, 0.0, 0.0, 1.0, 0.0],
      "ImagePositionPatient": [-954.0, -973.27710914612, -72.204818725586],
      "ImageType": [
        "ORIGINAL",
        "PRIMARY",
        "M",
        "MB",
        "ND",
        "MOSAIC"
],
      "ImagedNucleus": "1H",
      "ImagingFrequency": 123.243725,
      "InPlanePhaseEncodingDirection": "COL",
      "MRAcquisitionType": "2D",
      "MagneticFieldStrength": 3.0,
      "Manufacturer": "SIEMENS",
      "ManufacturerModelName": "Prisma",
      "Modality": "MR",
      "NominalInterval": 0,
      "NumberOfAverages": 1.0,
      "NumberOfPhaseEncodingSteps": 106,
      "PercentPhaseFieldOfView": 100.0,
      "PercentSampling": 100.0,
      "PerformedProcedureStepStartTime": "180707.627000",
      "PhotometricInterpretation": "MONOCHROME2",
      "PixelBandwidth": 2620.0,
      "PixelRepresentation": 0,
      "PixelSpacing": [2.0, 2.0],
      "ProtocolName": "task-backtothefuture_run-2",
      "RepetitionTime": 1500.0,
      "Rows": 954,
      "SAR": 0.07038546196261,
      "SamplesPerPixel": 1,
      "ScanOptions": [
        "FS",
        "EXT"
],
      "ScanningSequence": "EP",
      "SequenceName": "epfid2d1_106",
      "SequenceVariant": [
        "SK",
        "SS"
],
      "SeriesDescription": "task-backtothefuture_run-2",
      "SeriesNumber": 7,
      "SeriesTime": "192150.226000",
      "SliceLocation": -72.204818725586,
      "SliceThickness": 2.0,
      "SmallestImagePixelValue": 0,
      "SoftwareVersions": "syngo MR E11",
      "SpacingBetweenSlices": 2.0,
      "SpecificCharacterSet": "ISO_IR 100",
      "StudyID": "1",
      "StudyTime": "180707.568000",
      "TransmitCoilName": "Body",
      "VariableFlipAngleFlag": "N",
      "WindowCenterWidthExplanation": "Algo1",
      "dBdt": 0.0},
    "slices": {}
  },
  "time": {
    "samples": {
      "AcquisitionNumber": [1, 2, 3, 4, 5, 6, 7, 8, 9, 10, 11, 12, 13, 14, 15, 16, 17, 18, 19, 20, 21, 22, 23, 24, 25, 26, 27, 28, 29, 30, 31, 32, 33, 34, 35, 36, 37, 38, 39, 40, 41, 42, 43, 44, 45, 46, 47, 48, 49, 50, 51, 52, 53, 54, 55, 56, 57, 58, 59, 60, 61, 62, 63, 64, 65, 66, 67, 68, 69, 70, 71, 72, 73, 74, 75, 76, 77, 78, 79, 80, 81, 82, 83, 84, 85, 86, 87, 88, 89, 90, 91, 92, 93, 94, 95, 96, 97, 98, 99, 100, 101, 102, 103, 104, 105, 106, 107, 108, 109, 110, 111, 112, 113, 114, 115, 116, 117, 118, 119, 120, 121, 122, 123, 124, 125, 126, 127, 128, 129, 130, 131, 132, 133, 134, 135, 136, 137, 138, 139, 140, 141, 142, 143, 144, 145, 146, 147, 148, 149, 150, 151, 152, 153, 154, 155, 156, 157, 158, 159, 160, 161, 162, 163, 164, 165, 166, 167, 168, 169, 170, 171, 172, 173, 174, 175, 176, 177, 178, 179, 180, 181, 182, 183, 184, 185, 186, 187, 188, 189, 190, 191, 192, 193, 194, 195, 196, 197, 198, 199, 200, 201, 202, 203, 204, 205, 206, 207, 208, 209, 210, 211, 212, 213, 214, 215, 216, 217, 218, 219, 220, 221, 222, 223, 224, 225, 226, 227, 228, 229, 230, 231, 232, 233, 234, 235, 236, 237, 238, 239, 240, 241, 242, 243, 244, 245, 246, 247, 248, 249, 250, 251, 252, 253, 254, 255, 256, 257, 258, 259, 260, 261, 262, 263, 264, 265, 266, 267, 268, 269, 270, 271, 272, 273, 274, 275, 276, 277, 278, 279, 280, 281, 282, 283, 284, 285, 286, 287, 288, 289, 290, 291, 292, 293, 294, 295, 296, 297, 298, 299, 300, 301, 302, 303, 304, 305, 306, 307, 308, 309, 310, 311, 312, 313, 314, 315, 316, 317, 318, 319, 320, 321, 322, 323, 324, 325, 326, 327, 328, 329, 330, 331, 332, 333, 334, 335, 336, 337, 338, 339, 340, 341, 342, 343, 344, 345, 346, 347, 348, 349, 350, 351, 352, 353, 354, 355, 356, 357, 358, 359, 360, 361, 362, 363, 364, 365, 366, 367, 368, 369, 370, 371, 372, 373, 374, 375, 376, 377, 378, 379, 380, 381, 382, 383, 384, 385, 386, 387, 388, 389, 390, 391, 392, 393, 394, 395, 396, 397, 398, 399, 400, 401, 402, 403, 404, 405, 406, 407, 408, 409, 410, 411, 412, 413, 414, 415, 416, 417, 418, 419, 420, 421, 422, 423, 424, 425, 426, 427, 428, 429, 430, 431, 432, 433, 434, 435, 436, 437, 438, 439, 440, 441, 442, 443, 444, 445, 446, 447, 448, 449, 450, 451, 452, 453, 454, 455, 456, 457, 458, 459, 460, 461, 462, 463, 464, 465, 466, 467, 468, 469, 470, 471, 472, 473, 474, 475, 476, 477, 478, 479, 480, 481, 482, 483, 484, 485, 486, 487, 488, 489, 490, 491, 492, 493, 494, 495, 496, 497, 498, 499, 500, 501, 502, 503, 504, 505, 506, 507, 508, 509, 510, 511, 512, 513, 514, 515, 516, 517, 518, 519, 520, 521, 522, 523, 524, 525, 526, 527, 528, 529, 530, 531, 532, 533, 534, 535, 536, 537, 538, 539, 540, 541, 542, 543, 544, 545, 546, 547, 548, 549, 550, 551, 552, 553, 554, 555, 556, 557, 558, 559, 560, 561, 562, 563, 564, 565, 566, 567, 568, 569, 570, 571, 572, 573, 574, 575, 576, 577, 578, 579, 580, 581, 582, 583, 584, 585, 586, 587, 588, 589, 590, 591, 592, 593, 594, 595, 596, 597, 598, 599, 600, 601, 602, 603, 604, 605, 606, 607, 608, 609, 610, 611, 612, 613, 614, 615, 616, 617, 618, 619, 620, 621, 622, 623, 624, 625, 626, 627, 628, 629, 630, 631, 632, 633, 634, 635, 636, 637, 638, 639, 640, 641, 642, 643, 644, 645, 646, 647, 648, 649, 650, 651, 652, 653, 654, 655, 656, 657, 658, 659, 660, 661, 662, 663, 664, 665, 666, 667, 668, 669, 670, 671, 672, 673, 674, 675, 676, 677, 678, 679, 680, 681, 682, 683, 684, 685, 686, 687, 688, 689, 690, 691, 692, 693, 694, 695, 696, 697, 698, 699, 700, 701, 702, 703, 704, 705, 706, 707, 708, 709, 710, 711, 712, 713, 714, 715, 716, 717, 718, 719, 720, 721, 722, 723, 724, 725, 726, 727, 728, 729, 730, 731, 732, 733, 734, 735, 736, 737, 738, 739, 740, 741, 742, 743, 744, 745, 746, 747, 748, 749, 750, 751, 752, 753, 754, 755, 756, 757, 758, 759, 760, 761, 762, 763, 764, 765, 766, 767, 768, 769, 770, 771, 772, 773, 774, 775, 776, 777, 778, 779, 780, 781, 782, 783, 784, 785, 786, 787, 788, 789, 790, 791, 792, 793, 794, 795, 796, 797, 798, 799, 800, 801, 802, 803, 804, 805, 806, 807, 808, 809, 810, 811, 812, 813, 814, 815, 816, 817, 818, 819, 820, 821, 822, 823, 824, 825, 826, 827, 828, 829, 830, 831, 832, 833, 834, 835, 836, 837, 838, 839, 840, 841, 842, 843, 844, 845, 846, 847, 848, 849, 850, 851, 852, 853, 854, 855, 856, 857, 858, 859, 860, 861, 862, 863, 864, 865, 866, 867, 868, 869, 870, 871, 872, 873, 874, 875, 876, 877, 878, 879, 880, 881, 882, 883, 884, 885, 886, 887, 888, 889, 890, 891, 892, 893, 894, 895, 896, 897, 898, 899, 900, 901, 902, 903, 904, 905, 906, 907, 908, 909, 910, 911, 912, 913, 914, 915, 916, 917, 918, 919, 920, 921, 922, 923, 924, 925, 926, 927, 928, 929, 930, 931, 932, 933, 934, 935, 936, 937, 938, 939, 940, 941, 942, 943, 944, 945, 946, 947, 948, 949, 950, 951, 952, 953, 954, 955, 956, 957, 958, 959, 960, 961, 962, 963, 964, 965, 966, 967, 968, 969, 970, 971, 972, 973, 974, 975, 976, 977, 978, 979, 980, 981, 982, 983, 984, 985, 986, 987, 988, 989, 990, 991, 992, 993, 994, 995, 996, 997, 998, 999, 1000, 1001, 1002, 1003, 1004, 1005, 1006, 1007, 1008, 1009, 1010, 1011, 1012, 1013, 1014, 1015, 1016, 1017, 1018, 1019, 1020, 1021, 1022, 1023, 1024, 1025, 1026, 1027, 1028, 1029, 1030, 1031, 1032, 1033, 1034, 1035, 1036, 1037, 1038, 1039, 1040, 1041, 1042, 1043, 1044, 1045, 1046, 1047, 1048, 1049, 1050, 1051, 1052, 1053, 1054, 1055, 1056, 1057, 1058, 1059, 1060, 1061, 1062, 1063, 1064, 1065, 1066, 1067, 1068, 1069, 1070, 1071, 1072, 1073, 1074, 1075, 1076, 1077, 1078, 1079, 1080, 1081, 1082, 1083, 1084, 1085, 1086, 1087, 1088, 1089, 1090, 1091, 1092, 1093, 1094, 1095, 1096, 1097, 1098, 1099, 1100, 1101, 1102, 1103, 1104, 1105, 1106, 1107, 1108, 1109, 1110, 1111, 1112, 1113, 1114, 1115, 1116, 1117, 1118, 1119, 1120, 1121, 1122, 1123, 1124, 1125, 1126, 1127, 1128, 1129, 1130, 1131, 1132, 1133, 1134, 1135, 1136, 1137, 1138, 1139, 1140, 1141, 1142, 1143, 1144, 1145, 1146, 1147, 1148, 1149, 1150, 1151, 1152, 1153, 1154, 1155, 1156, 1157, 1158, 1159, 1160, 1161, 1162, 1163, 1164, 1165, 1166, 1167, 1168, 1169, 1170, 1171, 1172, 1173, 1174, 1175, 1176, 1177, 1178, 1179, 1180, 1181, 1182, 1183, 1184, 1185, 1186, 1187, 1188, 1189, 1190, 1191, 1192, 1193, 1194, 1195, 1196, 1197, 1198, 1199, 1200, 1201, 1202, 1203, 1204, 1205, 1206, 1207, 1208, 1209, 1210, 1211, 1212, 1213, 1214, 1215, 1216, 1217, 1218, 1219, 1220, 1221, 1222, 1223, 1224, 1225, 1226, 1227, 1228, 1229, 1230, 1231, 1232, 1233, 1234, 1235, 1236, 1237, 1238, 1239, 1240, 1241, 1242, 1243, 1244, 1245, 1246, 1247, 1248, 1249, 1250, 1251, 1252, 1253, 1254, 1255, 1256, 1257, 1258, 1259, 1260, 1261, 1262, 1263, 1264, 1265, 1266, 1267, 1268, 1269, 1270, 1271, 1272, 1273, 1274, 1275, 1276, 1277, 1278, 1279, 1280, 1281, 1282, 1283, 1284, 1285, 1286, 1287, 1288, 1289, 1290, 1291, 1292, 1293, 1294, 1295, 1296, 1297, 1298, 1299, 1300, 1301, 1302, 1303, 1304, 1305, 1306, 1307, 1308, 1309, 1310, 1311, 1312, 1313, 1314, 1315, 1316, 1317, 1318, 1319, 1320, 1321, 1322, 1323, 1324, 1325, 1326, 1327, 1328, 1329, 1330, 1331, 1332, 1333, 1334, 1335, 1336, 1337, 1338, 1339, 1340, 1341, 1342, 1343, 1344, 1345, 1346, 1347, 1348, 1349, 1350, 1351, 1352, 1353, 1354, 1355, 1356, 1357, 1358, 1359, 1360, 1361, 1362, 1363, 1364, 1365, 1366, 1367, 1368, 1369, 1370, 1371, 1372, 1373, 1374, 1375, 1376, 1377, 1378, 1379, 1380, 1381, 1382, 1383, 1384, 1385, 1386, 1387, 1388, 1389, 1390, 1391, 1392, 1393, 1394, 1395, 1396, 1397, 1398, 1399, 1400, 1401, 1402, 1403, 1404, 1405, 1406, 1407, 1408, 1409, 1410, 1411, 1412, 1413, 1414, 1415, 1416, 1417, 1418, 1419, 1420, 1421, 1422, 1423, 1424, 1425, 1426, 1427, 1428, 1429, 1430, 1431, 1432, 1433, 1434, 1435, 1436, 1437, 1438, 1439, 1440, 1441, 1442, 1443, 1444, 1445, 1446, 1447, 1448, 1449, 1450, 1451, 1452, 1453, 1454, 1455, 1456, 1457, 1458, 1459, 1460, 1461, 1462, 1463, 1464, 1465, 1466, 1467, 1468, 1469, 1470, 1471, 1472, 1473, 1474, 1475, 1476, 1477, 1478, 1479, 1480, 1481, 1482, 1483, 1484, 1485, 1486, 1487, 1488, 1489, 1490, 1491, 1492, 1493, 1494, 1495, 1496, 1497, 1498, 1499, 1500, 1501, 1502, 1503, 1504, 1505, 1506, 1507, 1508, 1509, 1510, 1511, 1512, 1513, 1514, 1515, 1516, 1517, 1518, 1519, 1520, 1521, 1522],
      "AcquisitionTime": ["192059.867500", "192101.367500", "192102.867500", "192104.367500", "192105.867500", "192107.367500", "192108.867500", "192110.367500", "192111.867500", "192113.367500", "192114.867500", "192116.367500", "192117.867500", "192119.367500", "192120.867500", "192122.367500", "192123.867500", "192125.367500", "192126.867500", "192128.367500", "192129.867500", "192131.367500", "192132.867500", "192134.367500", "192135.867500", "192137.367500", "192138.867500", "192140.367500", "192141.867500", "192143.367500", "192144.867500", "192146.367500", "192147.867500", "192149.367500", "192150.867500", "192152.367500", "192153.867500", "192155.367500", "192156.867500", "192158.367500", "192159.867500", "192201.367500", "192202.867500", "192204.367500", "192205.867500", "192207.367500", "192208.867500", "192210.367500", "192211.867500", "192213.367500", "192214.867500", "192216.367500", "192217.867500", "192219.367500", "192220.867500", "192222.367500", "192223.867500", "192225.367500", "192226.867500", "192228.367500", "192229.867500", "192231.367500", "192232.867500", "192234.367500", "192235.867500", "192237.367500", "192238.867500", "192240.367500", "192241.867500", "192243.367500", "192244.867500", "192246.367500", "192247.867500", "192249.367500", "192250.867500", "192252.367500", "192253.867500", "192255.367500", "192256.867500", "192258.367500", "192259.867500", "192301.367500", "192302.867500", "192304.367500", "192305.867500", "192307.367500", "192308.867500", "192310.367500", "192311.867500", "192313.367500", "192314.867500", "192316.367500", "192317.867500", "192319.367500", "192320.867500", "192322.367500", "192323.867500", "192325.367500", "192326.867500", "192328.367500", "192329.867500", "192331.367500", "192332.867500", "192334.367500", "192335.867500", "192337.367500", "192338.867500", "192340.367500", "192341.867500", "192343.367500", "192344.867500", "192346.367500", "192347.867500", "192349.367500", "192350.867500", "192352.367500", "192353.867500", "192355.367500", "192356.867500", "192358.367500", "192359.867500", "192401.367500", "192402.867500", "192404.367500", "192405.867500", "192407.367500", "192408.867500", "192410.367500", "192411.867500", "192413.367500", "192414.867500", "192416.367500", "192417.867500", "192419.367500", "192420.867500", "192422.367500", "192423.867500", "192425.367500", "192426.867500", "192428.367500", "192429.867500", "192431.367500", "192432.867500", "192434.367500", "192435.867500", "192437.367500", "192438.867500", "192440.367500", "192441.867500", "192443.367500", "192444.867500", "192446.367500", "192447.867500", "192449.367500", "192450.867500", "192452.367500", "192453.867500", "192455.367500", "192456.867500", "192458.367500", "192459.867500", "192501.367500", "192502.867500", "192504.367500", "192505.867500", "192507.367500", "192508.867500", "192510.367500", "192511.867500", "192513.367500", "192514.867500", "192516.367500", "192517.867500", "192519.367500", "192520.867500", "192522.367500", "192523.867500", "192525.367500", "192526.867500", "192528.367500", "192529.867500", "192531.367500", "192532.867500", "192534.367500", "192535.867500", "192537.367500", "192538.867500", "192540.367500", "192541.867500", "192543.367500", "192544.867500", "192546.367500", "192547.867500", "192549.367500", "192550.867500", "192552.367500", "192553.867500", "192555.367500", "192556.867500", "192558.367500", "192559.867500", "192601.367500", "192602.867500", "192604.367500", "192605.867500", "192607.367500", "192608.867500", "192610.367500", "192611.867500", "192613.367500", "192614.867500", "192616.367500", "192617.867500", "192619.367500", "192620.867500", "192622.367500", "192623.867500", "192625.367500", "192626.867500", "192628.367500", "192629.867500", "192631.367500", "192632.867500", "192634.367500", "192635.867500", "192637.367500", "192638.867500", "192640.367500", "192641.867500", "192643.367500", "192644.867500", "192646.367500", "192647.867500", "192649.367500", "192650.867500", "192652.367500", "192653.867500", "192655.367500", "192656.867500", "192658.367500", "192659.867500", "192701.367500", "192702.867500", "192704.367500", "192705.867500", "192707.367500", "192708.867500", "192710.367500", "192711.867500", "192713.367500", "192714.867500", "192716.367500", "192717.867500", "192719.367500", "192720.867500", "192722.367500", "192723.867500", "192725.367500", "192726.867500", "192728.367500", "192729.867500", "192731.367500", "192732.867500", "192734.367500", "192735.867500", "192737.367500", "192738.867500", "192740.367500", "192741.867500", "192743.367500", "192744.867500", "192746.367500", "192747.867500", "192749.367500", "192750.867500", "192752.367500", "192753.867500", "192755.367500", "192756.867500", "192758.367500", "192759.867500", "192801.367500", "192802.867500", "192804.367500", "192805.867500", "192807.367500", "192808.867500", "192810.367500", "192811.867500", "192813.367500", "192814.867500", "192816.367500", "192817.867500", "192819.367500", "192820.867500", "192822.367500", "192823.867500", "192825.367500", "192826.867500", "192828.367500", "192829.867500", "192831.367500", "192832.867500", "192834.367500", "192835.867500", "192837.367500", "192838.867500", "192840.367500", "192841.867500", "192843.367500", "192844.867500", "192846.367500", "192847.867500", "192849.367500", "192850.867500", "192852.367500", "192853.867500", "192855.367500", "192856.867500", "192858.367500", "192859.867500", "192901.367500", "192902.867500", "192904.367500", "192905.867500", "192907.367500", "192908.867500", "192910.367500", "192911.867500", "192913.367500", "192914.867500", "192916.367500", "192917.867500", "192919.367500", "192920.867500", "192922.367500", "192923.867500", "192925.367500", "192926.867500", "192928.367500", "192929.867500", "192931.367500", "192932.867500", "192934.367500", "192935.867500", "192937.367500", "192938.867500", "192940.367500", "192941.867500", "192943.367500", "192944.867500", "192946.367500", "192947.867500", "192949.367500", "192950.867500", "192952.367500", "192953.867500", "192955.367500", "192956.867500", "192958.367500", "192959.867500", "193001.367500", "193002.867500", "193004.367500", "193005.867500", "193007.367500", "193008.867500", "193010.367500", "193011.867500", "193013.367500", "193014.867500", "193016.367500", "193017.867500", "193019.367500", "193020.867500", "193022.367500", "193023.867500", "193025.367500", "193026.867500", "193028.367500", "193029.867500", "193031.367500", "193032.867500", "193034.367500", "193035.867500", "193037.367500", "193038.867500", "193040.367500", "193041.867500", "193043.367500", "193044.867500", "193046.367500", "193047.867500", "193049.367500", "193050.867500", "193052.367500", "193053.867500", "193055.367500", "193056.867500", "193058.367500", "193059.867500", "193101.367500", "193102.867500", "193104.367500", "193105.867500", "193107.367500", "193108.867500", "193110.367500", "193111.867500", "193113.367500", "193114.867500", "193116.367500", "193117.867500", "193119.367500", "193120.867500", "193122.367500", "193123.867500", "193125.367500", "193126.867500", "193128.367500", "193129.867500", "193131.367500", "193132.867500", "193134.367500", "193135.867500", "193137.367500", "193138.867500", "193140.367500", "193141.867500", "193143.367500", "193144.867500", "193146.367500", "193147.867500", "193149.367500", "193150.867500", "193152.367500", "193153.867500", "193155.367500", "193156.867500", "193158.367500", "193159.867500", "193201.367500", "193202.867500", "193204.367500", "193205.867500", "193207.367500", "193208.867500", "193210.367500", "193211.867500", "193213.367500", "193214.867500", "193216.367500", "193217.867500", "193219.367500", "193220.867500", "193222.367500", "193223.867500", "193225.367500", "193226.867500", "193228.367500", "193229.867500", "193231.367500", "193232.867500", "193234.367500", "193235.867500", "193237.367500", "193238.867500", "193240.367500", "193241.867500", "193243.367500", "193244.867500", "193246.367500", "193247.867500", "193249.367500", "193250.867500", "193252.367500", "193253.867500", "193255.367500", "193256.867500", "193258.367500", "193259.867500", "193301.367500", "193302.867500", "193304.367500", "193305.867500", "193307.367500", "193308.867500", "193310.367500", "193311.867500", "193313.367500", "193314.867500", "193316.367500", "193317.867500", "193319.367500", "193320.867500", "193322.367500", "193323.867500", "193325.367500", "193326.867500", "193328.367500", "193329.867500", "193331.367500", "193332.867500", "193334.367500", "193335.867500", "193337.367500", "193338.867500", "193340.367500", "193341.867500", "193343.367500", "193344.867500", "193346.367500", "193347.867500", "193349.367500", "193350.867500", "193352.367500", "193353.867500", "193355.367500", "193356.867500", "193358.367500", "193359.867500", "193401.367500", "193402.867500", "193404.367500", "193405.867500", "193407.367500", "193408.867500", "193410.367500", "193411.867500", "193413.367500", "193414.867500", "193416.367500", "193417.867500", "193419.367500", "193420.867500", "193422.367500", "193423.867500", "193425.367500", "193426.867500", "193428.367500", "193429.867500", "193431.367500", "193432.867500", "193434.367500", "193435.867500", "193437.367500", "193438.867500", "193440.367500", "193441.867500", "193443.367500", "193444.867500", "193446.367500", "193447.867500", "193449.367500", "193450.867500", "193452.367500", "193453.867500", "193455.367500", "193456.867500", "193458.367500", "193459.867500", "193501.367500", "193502.867500", "193504.367500", "193505.867500", "193507.367500", "193508.867500", "193510.367500", "193511.867500", "193513.367500", "193514.867500", "193516.367500", "193517.867500", "193519.367500", "193520.867500", "193522.367500", "193523.867500", "193525.367500", "193526.867500", "193528.367500", "193529.867500", "193531.367500", "193532.867500", "193534.367500", "193535.867500", "193537.367500", "193538.867500", "193540.367500", "193541.867500", "193543.367500", "193544.867500", "193546.367500", "193547.867500", "193549.367500", "193550.867500", "193552.367500", "193553.867500", "193555.367500", "193556.867500", "193558.367500", "193559.867500", "193601.367500", "193602.867500", "193604.367500", "193605.867500", "193607.367500", "193608.867500", "193610.367500", "193611.867500", "193613.367500", "193614.867500", "193616.367500", "193617.867500", "193619.367500", "193620.867500", "193622.367500", "193623.867500", "193625.367500", "193626.867500", "193628.367500", "193629.867500", "193631.367500", "193632.867500", "193634.367500", "193635.867500", "193637.367500", "193638.867500", "193640.367500", "193641.867500", "193643.367500", "193644.867500", "193646.367500", "193647.867500", "193649.367500", "193650.867500", "193652.367500", "193653.867500", "193655.367500", "193656.867500", "193658.367500", "193659.867500", "193701.367500", "193702.867500", "193704.367500", "193705.867500", "193707.367500", "193708.867500", "193710.367500", "193711.867500", "193713.367500", "193714.867500", "193716.367500", "193717.867500", "193719.367500", "193720.867500", "193722.367500", "193723.867500", "193725.367500", "193726.867500", "193728.367500", "193729.867500", "193731.367500", "193732.867500", "193734.367500", "193735.867500", "193737.367500", "193738.867500", "193740.367500", "193741.867500", "193743.367500", "193744.867500", "193746.367500", "193747.867500", "193749.367500", "193750.867500", "193752.367500", "193753.867500", "193755.367500", "193756.867500", "193758.367500", "193759.867500", "193801.367500", "193802.867500", "193804.367500", "193805.867500", "193807.367500", "193808.867500", "193810.367500", "193811.867500", "193813.367500", "193814.867500", "193816.367500", "193817.867500", "193819.367500", "193820.867500", "193822.367500", "193823.867500", "193825.367500", "193826.867500", "193828.367500", "193829.867500", "193831.367500", "193832.867500", "193834.367500", "193835.867500", "193837.367500", "193838.867500", "193840.367500", "193841.867500", "193843.367500", "193844.867500", "193846.367500", "193847.867500", "193849.367500", "193850.867500", "193852.367500", "193853.867500", "193855.367500", "193856.867500", "193858.367500", "193859.867500", "193901.367500", "193902.867500", "193904.367500", "193905.867500", "193907.367500", "193908.867500", "193910.367500", "193911.867500", "193913.367500", "193914.867500", "193916.367500", "193917.867500", "193919.367500", "193920.867500", "193922.367500", "193923.867500", "193925.367500", "193926.867500", "193928.367500", "193929.867500", "193931.367500", "193932.867500", "193934.367500", "193935.867500", "193937.367500", "193938.867500", "193940.367500", "193941.867500", "193943.367500", "193944.867500", "193946.367500", "193947.867500", "193949.367500", "193950.867500", "193952.367500", "193953.867500", "193955.367500", "193956.867500", "193958.367500", "193959.867500", "194001.367500", "194002.867500", "194004.367500", "194005.867500", "194007.367500", "194008.867500", "194010.367500", "194011.867500", "194013.367500", "194014.867500", "194016.367500", "194017.867500", "194019.367500", "194020.867500", "194022.367500", "194023.867500", "194025.367500", "194026.867500", "194028.367500", "194029.867500", "194031.367500", "194032.867500", "194034.367500", "194035.867500", "194037.367500", "194038.867500", "194040.367500", "194041.867500", "194043.367500", "194044.867500", "194046.367500", "194047.867500", "194049.367500", "194050.867500", "194052.367500", "194053.867500", "194055.367500", "194056.867500", "194058.367500", "194059.867500", "194101.367500", "194102.867500", "194104.367500", "194105.867500", "194107.367500", "194108.867500", "194110.367500", "194111.867500", "194113.367500", "194114.867500", "194116.367500", "194117.867500", "194119.367500", "194120.867500", "194122.367500", "194123.867500", "194125.367500", "194126.867500", "194128.367500", "194129.867500", "194131.367500", "194132.867500", "194134.367500", "194135.867500", "194137.367500", "194138.867500", "194140.367500", "194141.867500", "194143.367500", "194144.867500", "194146.367500", "194147.867500", "194149.367500", "194150.867500", "194152.367500", "194153.867500", "194155.367500", "194156.867500", "194158.367500", "194159.867500", "194201.367500", "194202.867500", "194204.367500", "194205.867500", "194207.367500", "194208.867500", "194210.367500", "194211.867500", "194213.367500", "194214.867500", "194216.367500", "194217.867500", "194219.367500", "194220.867500", "194222.367500", "194223.867500", "194225.367500", "194226.867500", "194228.367500", "194229.867500", "194231.367500", "194232.867500", "194234.367500", "194235.867500", "194237.367500", "194238.867500", "194240.367500", "194241.867500", "194243.367500", "194244.867500", "194246.367500", "194247.867500", "194249.367500", "194250.867500", "194252.367500", "194253.867500", "194255.367500", "194256.867500", "194258.367500", "194259.867500", "194301.367500", "194302.867500", "194304.367500", "194305.867500", "194307.367500", "194308.867500", "194310.367500", "194311.867500", "194313.367500", "194314.867500", "194316.367500", "194317.867500", "194319.367500", "194320.867500", "194322.367500", "194323.867500", "194325.367500", "194326.867500", "194328.367500", "194329.867500", "194331.367500", "194332.867500", "194334.367500", "194335.867500", "194337.367500", "194338.867500", "194340.367500", "194341.867500", "194343.367500", "194344.867500", "194346.367500", "194347.867500", "194349.367500", "194350.867500", "194352.367500", "194353.867500", "194355.367500", "194356.867500", "194358.367500", "194359.867500", "194401.367500", "194402.867500", "194404.367500", "194405.867500", "194407.367500", "194408.867500", "194410.367500", "194411.867500", "194413.367500", "194414.867500", "194416.367500", "194417.867500", "194419.367500", "194420.867500", "194422.367500", "194423.867500", "194425.367500", "194426.867500", "194428.367500", "194429.867500", "194431.367500", "194432.867500", "194434.367500", "194435.867500", "194437.367500", "194438.867500", "194440.367500", "194441.867500", "194443.367500", "194444.867500", "194446.367500", "194447.867500", "194449.367500", "194450.867500", "194452.367500", "194453.867500", "194455.367500", "194456.867500", "194458.367500", "194459.8675