{
  "AcquisitionMatrixPE": 106,
  "AcquisitionNumber": 1,
  "AcquisitionTime": "20:01:43.272500",
  "BandwidthPerPixelPhaseEncode": 16.846,
  "BaseResolution": 106,
  "BodyPartExamined": "BRAIN",
  "CoilCombinationMethod": "Sum of Squares",
  "ConsistencyInfo": "N4_VE11C_LATEST_20160120",
  "ConversionSoftware": "dcm2niix",
  "ConversionSoftwareVersion": "v1.0.20220720",
  "DerivedVendorReportedEchoSpacing": 0.000560012,
  "DeviceSerialNumber": "166108",
  "DwellTime": 1.8e-06,
  "EchoTime": 0.0352,
  "EchoTrainLength": 106,
  "EffectiveEchoSpacing": 0.000560012,
  "FlipAngle": 60,
  "HeudiconvVersion": "1.3.0",
  "ImageComments": "Unaliased MB4/PE3/LB",
  "ImageOrientationPatientDICOM": [1, 0, 0, 0, 1, 0],
  "ImageOrientationText": "Tra",
  "ImageType": [
    "ORIGINAL",
    "PRIMARY",
    "M",
    "MB",
    "ND",
    "MOSAIC"
],
  "ImagingFrequency": 123.244,
  "InPlanePhaseEncodingDirectionDICOM": "COL",
  "InstitutionAddress": "Bedford Way 26,London,London,GB,WC1H 0AP",
  "InstitutionName": "University College",
  "InstitutionalDepartmentName": "Department",
  "MRAcquisitionType": "2D",
  "MagneticFieldStrength": 3,
  "Manufacturer": "Siemens",
  "ManufacturersModelName": "Prisma",
  "MatrixCoilMode": "SENSE",
  "Modality": "MR",
  "MultibandAccelerationFactor": 4,
  "NonlinearGradientCorrection": false,
  "PartialFourier": 1,
  "PatientPosition": "HFS",
  "PercentPhaseFOV": 100,
  "PercentSampling": 100,
  "PhaseEncodingDirection": "j-",
  "PhaseEncodingSteps": 106,
  "PhaseResolution": 1,
  "PixelBandwidth": 2620,
  "ProcedureStepDescription": "Egor^MovieProject2",
  "ProtocolName": "task-backtothefuture_run-3",
  "PulseSequenceDetails": "%CustomerSeq%\\cmrr_mbep2d_bold",
  "ReceiveCoilActiveElements": "HEA;HEP",
  "ReceiveCoilName": "Head_32",
  "ReconMatrixPE": 106,
  "RepetitionTime": 1.5,
  "SAR": 0.0703915,
  "ScanOptions": "FS\\EXT",
  "ScanningSequence": "EP",
  "SequenceName": "epfid2d1_106",
  "SequenceVariant": "SK\\SS",
  "SeriesDescription": "task-backtothefuture_run-3",
  "SeriesNumber": 11,
  "ShimSetting": [-1582, 643, 7391, 243, -36, 180, 1, 3],
  "SliceThickness": 2,
  "SliceTiming": [0, 1.0675, 0.6575, 0.2475, 1.315, 0.905, 0.4925, 0.0825, 1.15, 0.74, 0.3275, 1.3975, 0.9875, 0.575, 0.165, 1.2325, 0.8225, 0.41, 0, 1.0675, 0.6575, 0.2475, 1.315, 0.905, 0.4925, 0.0825, 1.15, 0.74, 0.3275, 1.3975, 0.9875, 0.575, 0.165, 1.2325, 0.8225, 0.41, 0, 1.0675, 0.6575, 0.2475, 1.315, 0.905, 0.4925, 0.0825, 1.15, 0.74, 0.3275, 1.3975, 0.9875, 0.575, 0.165, 1.2325, 0.8225, 0.41, 0, 1.0675, 0.6575, 0.2475, 1.315, 0.905, 0.4925, 0.0825, 1.15, 0.74, 0.3275, 1.3975, 0.9875, 0.575, 0.165, 1.2325, 0.8225, 0.41],
  "SoftwareVersions": "syngo MR E11",
  "SpacingBetweenSlices": 2,
  "StationName": "AWP166108",
  "TaskName": "backtothefuture",
  "TotalReadoutTime": 0.0588013,
  "TxRefAmp": 240.531,
  "WipMemBlock": "a3a2ae46-7c00-4712-ada7-b88e8c9ca371||Sequence: R016 ve11c/master r/e634e98; Dec 19 2017 11:00:25 by eja",
  "dcmmeta_affine": [
    [-2.0, 0.0, 0.0, 106.0],
    [0.0, 2.0, 0.0, -84.72289276123047],
    [0.0, 0.0, 2.0, -72.20481872558594],
    [0.0, 0.0, 0.0, 1.0]
],
  "dcmmeta_reorient_transform": [
    [0.0, -1.0, 0.0, 105.0],
    [1.0, 0.0, 0.0, 0.0],
    [0.0, 0.0, 1.0, 0.0],
    [0.0, 0.0, 0.0, 1.0]
],
  "dcmmeta_shape": [106, 106, 72, 1608],
  "dcmmeta_slice_dim": 2,
  "dcmmeta_version": 0.6,
  "global": {
    "const": {
      "AcquisitionMatrix": [106, 0, 0, 106],
      "AngioFlag": "N",
      "BitsAllocated": 16,
      "BitsStored": 16,
      "BodyPartExamined": "BRAIN",
      "CardiacNumberOfImages": 1,
      "Columns": 954,
      "EchoNumbers": 1,
      "EchoTime": 35.2,
      "EchoTrainLength": 106,
      "FlipAngle": 60.0,
      "HighBit": 15,
      "ImageOrientationPatient": [1.0, 0.0, 0.0, 0.0, 1.0, 0.0],
      "ImagePositionPatient": [-954.0, -973.27710914612, -72.204818725586],
      "ImageType": [
        "ORIGINAL",
        "PRIMARY",
        "M",
        "MB",
        "ND",
        "MOSAIC"
],
      "ImagedNucleus": "1H",
      "ImagingFrequency": 123.243742,
      "InPlanePhaseEncodingDirection": "COL",
      "MRAcquisitionType": "2D",
      "MagneticFieldStrength": 3.0,
      "Manufacturer": "SIEMENS",
      "ManufacturerModelName": "Prisma",
      "Modality": "MR",
      "NominalInterval": 0,
      "NumberOfAverages": 1.0,
      "NumberOfPhaseEncodingSteps": 106,
      "PercentPhaseFieldOfView": 100.0,
      "PercentSampling": 100.0,
      "PerformedProcedureStepStartTime": "180707.627000",
      "PhotometricInterpretation": "MONOCHROME2",
      "PixelBandwidth": 2620.0,
      "PixelRepresentation": 0,
      "PixelSpacing": [2.0, 2.0],
      "ProtocolName": "task-backtothefuture_run-3",
      "RepetitionTime": 1500.0,
      "Rows": 954,
      "SAR": 0.07039151585948,
      "SamplesPerPixel": 1,
      "ScanOptions": [
        "FS",
        "EXT"
],
      "ScanningSequence": "EP",
      "SequenceName": "epfid2d1_106",
      "SequenceVariant": [
        "SK",
        "SS"
],
      "SeriesDescription": "task-backtothefuture_run-3",
      "SeriesNumber": 11,
      "SeriesTime": "200236.349000",
      "SliceLocation": -72.204818725586,
      "SliceThickness": 2.0,
      "SmallestImagePixelValue": 0,
      "SoftwareVersions": "syngo MR E11",
      "SpacingBetweenSlices": 2.0,
      "SpecificCharacterSet": "ISO_IR 100",
      "StudyID": "1",
      "StudyTime": "180707.568000",
      "TransmitCoilName": "Body",
      "VariableFlipAngleFlag": "N",
      "WindowCenterWidthExplanation": "Algo1",
      "dBdt": 0.0},
    "slices": {}
  },
  "time": {
    "samples": {
      "AcquisitionNumber": [1, 2, 3, 4, 5, 6, 7, 8, 9, 10, 11, 12, 13, 14, 15, 16, 17, 18, 19, 20, 21, 22, 23, 24, 25, 26, 27, 28, 29, 30, 31, 32, 33, 34, 35, 36, 37, 38, 39, 40, 41, 42, 43, 44, 45, 46, 47, 48, 49, 50, 51, 52, 53, 54, 55, 56, 57, 58, 59, 60, 61, 62, 63, 64, 65, 66, 67, 68, 69, 70, 71, 72, 73, 74, 75, 76, 77, 78, 79, 80, 81, 82, 83, 84, 85, 86, 87, 88, 89, 90, 91, 92, 93, 94, 95, 96, 97, 98, 99, 100, 101, 102, 103, 104, 105, 106, 107, 108, 109, 110, 111, 112, 113, 114, 115, 116, 117, 118, 119, 120, 121, 122, 123, 124, 125, 126, 127, 128, 129, 130, 131, 132, 133, 134, 135, 136, 137, 138, 139, 140, 141, 142, 143, 144, 145, 146, 147, 148, 149, 150, 151, 152, 153, 154, 155, 156, 157, 158, 159, 160, 161, 162, 163, 164, 165, 166, 167, 168, 169, 170, 171, 172, 173, 174, 175, 176, 177, 178, 179, 180, 181, 182, 183, 184, 185, 186, 187, 188, 189, 190, 191, 192, 193, 194, 195, 196, 197, 198, 199, 200, 201, 202, 203, 204, 205, 206, 207, 208, 209, 210, 211, 212, 213, 214, 215, 216, 217, 218, 219, 220, 221, 222, 223, 224, 225, 226, 227, 228, 229, 230, 231, 232, 233, 234, 235, 236, 237, 238, 239, 240, 241, 242, 243, 244, 245, 246, 247, 248, 249, 250, 251, 252, 253, 254, 255, 256, 257, 258, 259, 260, 261, 262, 263, 264, 265, 266, 267, 268, 269, 270, 271, 272, 273, 274, 275, 276, 277, 278, 279, 280, 281, 282, 283, 284, 285, 286, 287, 288, 289, 290, 291, 292, 293, 294, 295, 296, 297, 298, 299, 300, 301, 302, 303, 304, 305, 306, 307, 308, 309, 310, 311, 312, 313, 314, 315, 316, 317, 318, 319, 320, 321, 322, 323, 324, 325, 326, 327, 328, 329, 330, 331, 332, 333, 334, 335, 336, 337, 338, 339, 340, 341, 342, 343, 344, 345, 346, 347, 348, 349, 350, 351, 352, 353, 354, 355, 356, 357, 358, 359, 360, 361, 362, 363, 364, 365, 366, 367, 368, 369, 370, 371, 372, 373, 374, 375, 376, 377, 378, 379, 380, 381, 382, 383, 384, 385, 386, 387, 388, 389, 390, 391, 392, 393, 394, 395, 396, 397, 398, 399, 400, 401, 402, 403, 404, 405, 406, 407, 408, 409, 410, 411, 412, 413, 414, 415, 416, 417, 418, 419, 420, 421, 422, 423, 424, 425, 426, 427, 428, 429, 430, 431, 432, 433, 434, 435, 436, 437, 438, 439, 440, 441, 442, 443, 444, 445, 446, 447, 448, 449, 450, 451, 452, 453, 454, 455, 456, 457, 458, 459, 460, 461, 462, 463, 464, 465, 466, 467, 468, 469, 470, 471, 472, 473, 474, 475, 476, 477, 478, 479, 480, 481, 482, 483, 484, 485, 486, 487, 488, 489, 490, 491, 492, 493, 494, 495, 496, 497, 498, 499, 500, 501, 502, 503, 504, 505, 506, 507, 508, 509, 510, 511, 512, 513, 514, 515, 516, 517, 518, 519, 520, 521, 522, 523, 524, 525, 526, 527, 528, 529, 530, 531, 532, 533, 534, 535, 536, 537, 538, 539, 540, 541, 542, 543, 544, 545, 546, 547, 548, 549, 550, 551, 552, 553, 554, 555, 556, 557, 558, 559, 560, 561, 562, 563, 564, 565, 566, 567, 568, 569, 570, 571, 572, 573, 574, 575, 576, 577, 578, 579, 580, 581, 582, 583, 584, 585, 586, 587, 588, 589, 590, 591, 592, 593, 594, 595, 596, 597, 598, 599, 600, 601, 602, 603, 604, 605, 606, 607, 608, 609, 610, 611, 612, 613, 614, 615, 616, 617, 618, 619, 620, 621, 622, 623, 624, 625, 626, 627, 628, 629, 630, 631, 632, 633, 634, 635, 636, 637, 638, 639, 640, 641, 642, 643, 644, 645, 646, 647, 648, 649, 650, 651, 652, 653, 654, 655, 656, 657, 658, 659, 660, 661, 662, 663, 664, 665, 666, 667, 668, 669, 670, 671, 672, 673, 674, 675, 676, 677, 678, 679, 680, 681, 682, 683, 684, 685, 686, 687, 688, 689, 690, 691, 692, 693, 694, 695, 696, 697, 698, 699, 700, 701, 702, 703, 704, 705, 706, 707, 708, 709, 710, 711, 712, 713, 714, 715, 716, 717, 718, 719, 720, 721, 722, 723, 724, 725, 726, 727, 728, 729, 730, 731, 732, 733, 734, 735, 736, 737, 738, 739, 740, 741, 742, 743, 744, 745, 746, 747, 748, 749, 750, 751, 752, 753, 754, 755, 756, 757, 758, 759, 760, 761, 762, 763, 764, 765, 766, 767, 768, 769, 770, 771, 772, 773, 774, 775, 776, 777, 778, 779, 780, 781, 782, 783, 784, 785, 786, 787, 788, 789, 790, 791, 792, 793, 794, 795, 796, 797, 798, 799, 800, 801, 802, 803, 804, 805, 806, 807, 808, 809, 810, 811, 812, 813, 814, 815, 816, 817, 818, 819, 820, 821, 822, 823, 824, 825, 826, 827, 828, 829, 830, 831, 832, 833, 834, 835, 836, 837, 838, 839, 840, 841, 842, 843, 844, 845, 846, 847, 848, 849, 850, 851, 852, 853, 854, 855, 856, 857, 858, 859, 860, 861, 862, 863, 864, 865, 866, 867, 868, 869, 870, 871, 872, 873, 874, 875, 876, 877, 878, 879, 880, 881, 882, 883, 884, 885, 886, 887, 888, 889, 890, 891, 892, 893, 894, 895, 896, 897, 898, 899, 900, 901, 902, 903, 904, 905, 906, 907, 908, 909, 910, 911, 912, 913, 914, 915, 916, 917, 918, 919, 920, 921, 922, 923, 924, 925, 926, 927, 928, 929, 930, 931, 932, 933, 934, 935, 936, 937, 938, 939, 940, 941, 942, 943, 944, 945, 946, 947, 948, 949, 950, 951, 952, 953, 954, 955, 956, 957, 958, 959, 960, 961, 962, 963, 964, 965, 966, 967, 968, 969, 970, 971, 972, 973, 974, 975, 976, 977, 978, 979, 980, 981, 982, 983, 984, 985, 986, 987, 988, 989, 990, 991, 992, 993, 994, 995, 996, 997, 998, 999, 1000, 1001, 1002, 1003, 1004, 1005, 1006, 1007, 1008, 1009, 1010, 1011, 1012, 1013, 1014, 1015, 1016, 1017, 1018, 1019, 1020, 1021, 1022, 1023, 1024, 1025, 1026, 1027, 1028, 1029, 1030, 1031, 1032, 1033, 1034, 1035, 1036, 1037, 1038, 1039, 1040, 1041, 1042, 1043, 1044, 1045, 1046, 1047, 1048, 1049, 1050, 1051, 1052, 1053, 1054, 1055, 1056, 1057, 1058, 1059, 1060, 1061, 1062, 1063, 1064, 1065, 1066, 1067, 1068, 1069, 1070, 1071, 1072, 1073, 1074, 1075, 1076, 1077, 1078, 1079, 1080, 1081, 1082, 1083, 1084, 1085, 1086, 1087, 1088, 1089, 1090, 1091, 1092, 1093, 1094, 1095, 1096, 1097, 1098, 1099, 1100, 1101, 1102, 1103, 1104, 1105, 1106, 1107, 1108, 1109, 1110, 1111, 1112, 1113, 1114, 1115, 1116, 1117, 1118, 1119, 1120, 1121, 1122, 1123, 1124, 1125, 1126, 1127, 1128, 1129, 1130, 1131, 1132, 1133, 1134, 1135, 1136, 1137, 1138, 1139, 1140, 1141, 1142, 1143, 1144, 1145, 1146, 1147, 1148, 1149, 1150, 1151, 1152, 1153, 1154, 1155, 1156, 1157, 1158, 1159, 1160, 1161, 1162, 1163, 1164, 1165, 1166, 1167, 1168, 1169, 1170, 1171, 1172, 1173, 1174, 1175, 1176, 1177, 1178, 1179, 1180, 1181, 1182, 1183, 1184, 1185, 1186, 1187, 1188, 1189, 1190, 1191, 1192, 1193, 1194, 1195, 1196, 1197, 1198, 1199, 1200, 1201, 1202, 1203, 1204, 1205, 1206, 1207, 1208, 1209, 1210, 1211, 1212, 1213, 1214, 1215, 1216, 1217, 1218, 1219, 1220, 1221, 1222, 1223, 1224, 1225, 1226, 1227, 1228, 1229, 1230, 1231, 1232, 1233, 1234, 1235, 1236, 1237, 1238, 1239, 1240, 1241, 1242, 1243, 1244, 1245, 1246, 1247, 1248, 1249, 1250, 1251, 1252, 1253, 1254, 1255, 1256, 1257, 1258, 1259, 1260, 1261, 1262, 1263, 1264, 1265, 1266, 1267, 1268, 1269, 1270, 1271, 1272, 1273, 1274, 1275, 1276, 1277, 1278, 1279, 1280, 1281, 1282, 1283, 1284, 1285, 1286, 1287, 1288, 1289, 1290, 1291, 1292, 1293, 1294, 1295, 1296, 1297, 1298, 1299, 1300, 1301, 1302, 1303, 1304, 1305, 1306, 1307, 1308, 1309, 1310, 1311, 1312, 1313, 1314, 1315, 1316, 1317, 1318, 1319, 1320, 1321, 1322, 1323, 1324, 1325, 1326, 1327, 1328, 1329, 1330, 1331, 1332, 1333, 1334, 1335, 1336, 1337, 1338, 1339, 1340, 1341, 1342, 1343, 1344, 1345, 1346, 1347, 1348, 1349, 1350, 1351, 1352, 1353, 1354, 1355, 1356, 1357, 1358, 1359, 1360, 1361, 1362, 1363, 1364, 1365, 1366, 1367, 1368, 1369, 1370, 1371, 1372, 1373, 1374, 1375, 1376, 1377, 1378, 1379, 1380, 1381, 1382, 1383, 1384, 1385, 1386, 1387, 1388, 1389, 1390, 1391, 1392, 1393, 1394, 1395, 1396, 1397, 1398, 1399, 1400, 1401, 1402, 1403, 1404, 1405, 1406, 1407, 1408, 1409, 1410, 1411, 1412, 1413, 1414, 1415, 1416, 1417, 1418, 1419, 1420, 1421, 1422, 1423, 1424, 1425, 1426, 1427, 1428, 1429, 1430, 1431, 1432, 1433, 1434, 1435, 1436, 1437, 1438, 1439, 1440, 1441, 1442, 1443, 1444, 1445, 1446, 1447, 1448, 1449, 1450, 1451, 1452, 1453, 1454, 1455, 1456, 1457, 1458, 1459, 1460, 1461, 1462, 1463, 1464, 1465, 1466, 1467, 1468, 1469, 1470, 1471, 1472, 1473, 1474, 1475, 1476, 1477, 1478, 1479, 1480, 1481, 1482, 1483, 1484, 1485, 1486, 1487, 1488, 1489, 1490, 1491, 1492, 1493, 1494, 1495, 1496, 1497, 1498, 1499, 1500, 1501, 1502, 1503, 1504, 1505, 1506, 1507, 1508, 1509, 1510, 1511, 1512, 1513, 1514, 1515, 1516, 1517, 1518, 1519, 1520, 1521, 1522, 1523, 1524, 1525, 1526, 1527, 1528, 1529, 1530, 1531, 1532, 1533, 1534, 1535, 1536, 1537, 1538, 1539, 1540, 1541, 1542, 1543, 1544, 1545, 1546, 1547, 1548, 1549, 1550, 1551, 1552, 1553, 1554, 1555, 1556, 1557, 1558, 1559, 1560, 1561, 1562, 1563, 1564, 1565, 1566, 1567, 1568, 1569, 1570, 1571, 1572, 1573, 1574, 1575, 1576, 1577, 1578, 1579, 1580, 1581, 1582, 1583, 1584, 1585, 1586, 1587, 1588, 1589, 1590, 1591, 1592, 1593, 1594, 1595, 1596, 1597, 1598, 1599, 1600, 1601, 1602, 1603, 1604, 1605, 1606, 1607, 1608],
      "AcquisitionTime": ["200143.272500", "200144.772500", "200146.272500", "200147.772500", "200149.272500", "200150.772500", "200152.272500", "200153.772500", "200155.272500", "200156.772500", "200158.272500", "200159.772500", "200201.272500", "200202.772500", "200204.272500", "200205.772500", "200207.272500", "200208.772500", "200210.272500", "200211.772500", "200213.272500", "200214.772500", "200216.272500", "200217.772500", "200219.272500", "200220.772500", "200222.272500", "200223.772500", "200225.272500", "200226.772500", "200228.272500", "200229.772500", "200231.272500", "200232.772500", "200234.272500", "200235.772500", "200237.272500", "200238.772500", "200240.272500", "200241.772500", "200243.272500", "200244.772500", "200246.272500", "200247.772500", "200249.272500", "200250.772500", "200252.272500", "200253.772500", "200255.272500", "200256.772500", "200258.272500", "200259.772500", "200301.272500", "200302.772500", "200304.272500", "200305.772500", "200307.272500", "200308.772500", "200310.272500", "200311.772500", "200313.272500", "200314.772500", "200316.272500", "200317.772500", "200319.272500", "200320.772500", "200322.272500", "200323.772500", "200325.272500", "200326.772500", "200328.272500", "200329.772500", "200331.272500", "200332.772500", "200334.272500", "200335.772500", "200337.272500", "200338.772500", "200340.272500", "200341.772500", "200343.272500", "200344.772500", "200346.272500", "200347.772500", "200349.272500", "200350.772500", "200352.272500", "200353.772500", "200355.272500", "200356.772500", "200358.272500", "200359.772500", "200401.272500", "200402.772500", "200404.272500", "200405.772500", "200407.272500", "200408.772500", "200410.272500", "200411.772500", "200413.272500", "200414.772500", "200416.272500", "200417.772500", "200419.272500", "200420.772500", "200422.272500", "200423.772500", "200425.272500", "200426.772500", "200428.272500", "200429.772500", "200431.272500", "200432.772500", "200434.272500", "200435.772500", "200437.272500", "200438.772500", "200440.272500", "200441.772500", "200443.272500", "200444.772500", "200446.272500", "200447.772500", "200449.272500", "200450.772500", "200452.272500", "200453.772500", "200455.272500", "200456.772500", "200458.272500", "200459.772500", "200501.272500", "200502.772500", "200504.272500", "200505.772500", "200507.272500", "200508.772500", "200510.272500", "200511.772500", "200513.272500", "200514.772500", "200516.272500", "200517.772500", "200519.272500", "200520.772500", "200522.272500", "200523.772500", "200525.272500", "200526.772500", "200528.272500", "200529.772500", "200531.272500", "200532.772500", "200534.272500", "200535.772500", "200537.272500", "200538.772500", "200540.272500", "200541.772500", "200543.272500", "200544.772500", "200546.272500", "200547.772500", "200549.272500", "200550.772500", "200552.272500", "200553.772500", "200555.272500", "200556.772500", "200558.272500", "200559.772500", "200601.272500", "200602.772500", "200604.272500", "200605.772500", "200607.272500", "200608.772500", "200610.272500", "200611.772500", "200613.272500", "200614.772500", "200616.272500", "200617.772500", "200619.272500", "200620.772500", "200622.272500", "200623.772500", "200625.272500", "200626.772500", "200628.272500", "200629.772500", "200631.272500", "200632.772500", "200634.272500", "200635.772500", "200637.272500", "200638.772500", "200640.272500", "200641.772500", "200643.272500", "200644.772500", "200646.272500", "200647.772500", "200649.272500", "200650.772500", "200652.272500", "200653.772500", "200655.272500", "200656.772500", "200658.272500", "200659.772500", "200701.272500", "200702.772500", "200704.272500", "200705.772500", "200707.272500", "200708.772500", "200710.272500", "200711.772500", "200713.272500", "200714.772500", "200716.272500", "200717.772500", "200719.272500", "200720.772500", "200722.272500", "200723.772500", "200725.272500", "200726.772500", "200728.272500", "200729.772500", "200731.272500", "200732.772500", "200734.272500", "200735.772500", "200737.272500", "200738.772500", "200740.272500", "200741.772500", "200743.272500", "200744.772500", "200746.272500", "200747.772500", "200749.272500", "200750.772500", "200752.272500", "200753.772500", "200755.272500", "200756.772500", "200758.272500", "200759.772500", "200801.272500", "200802.772500", "200804.272500", "200805.772500", "200807.272500", "200808.772500", "200810.272500", "200811.772500", "200813.272500", "200814.772500", "200816.272500", "200817.772500", "200819.272500", "200820.772500", "200822.272500", "200823.772500", "200825.272500", "200826.772500", "200828.272500", "200829.772500", "200831.272500", "200832.772500", "200834.272500", "200835.772500", "200837.272500", "200838.772500", "200840.272500", "200841.772500", "200843.272500", "200844.772500", "200846.272500", "200847.772500", "200849.272500", "200850.772500", "200852.272500", "200853.772500", "200855.272500", "200856.772500", "200858.272500", "200859.772500", "200901.272500", "200902.772500", "200904.272500", "200905.772500", "200907.272500", "200908.772500", "200910.272500", "200911.772500", "200913.272500", "200914.772500", "200916.272500", "200917.772500", "200919.272500", "200920.772500", "200922.272500", "200923.772500", "200925.272500", "200926.772500", "200928.272500", "200929.772500", "200931.272500", "200932.772500", "200934.272500", "200935.772500", "200937.272500", "200938.772500", "200940.272500", "200941.772500", "200943.272500", "200944.772500", "200946.272500", "200947.772500", "200949.272500", "200950.772500", "200952.272500", "200953.772500", "200955.272500", "200956.772500", "200958.272500", "200959.772500", "201001.272500", "201002.772500", "201004.272500", "201005.772500", "201007.272500", "201008.772500", "201010.272500", "201011.772500", "201013.272500", "201014.772500", "201016.272500", "201017.772500", "201019.272500", "201020.772500", "201022.272500", "201023.772500", "201025.272500", "201026.772500", "201028.272500", "201029.772500", "201031.272500", "201032.772500", "201034.272500", "201035.772500", "201037.272500", "201038.772500", "201040.272500", "201041.772500", "201043.272500", "201044.772500", "201046.272500", "201047.772500", "201049.272500", "201050.772500", "201052.272500", "201053.772500", "201055.272500", "201056.772500", "201058.272500", "201059.772500", "201101.272500", "201102.772500", "201104.272500", "201105.772500", "201107.272500", "201108.772500", "201110.272500", "201111.772500", "201113.272500", "201114.772500", "201116.272500", "201117.772500", "201119.272500", "201120.772500", "201122.272500", "201123.772500", "201125.272500", "201126.772500", "201128.272500", "201129.772500", "201131.272500", "201132.772500", "201134.272500", "201135.772500", "201137.272500", "201138.772500", "201140.272500", "201141.772500", "201143.272500", "201144.772500", "201146.272500", "201147.772500", "201149.272500", "201150.772500", "201152.272500", "201153.772500", "201155.272500", "201156.772500", "201158.272500", "201159.772500", "201201.272500", "201202.772500", "201204.272500", "201205.772500", "201207.272500", "201208.772500", "201210.272500", "201211.772500", "201213.272500", "201214.772500", "201216.272500", "201217.772500", "201219.272500", "201220.772500", "201222.272500", "201223.772500", "201225.272500", "201226.772500", "201228.272500", "201229.772500", "201231.272500", "201232.772500", "201234.272500", "201235.772500", "201237.272500", "201238.772500", "201240.272500", "201241.772500", "201243.272500", "201244.772500", "201246.272500", "201247.772500", "201249.272500", "201250.772500", "201252.272500", "201253.772500", "201255.272500", "201256.772500", "201258.272500", "201259.772500", "201301.272500", "201302.772500", "201304.272500", "201305.772500", "201307.272500", "201308.772500", "201310.272500", "201311.772500", "201313.272500", "201314.772500", "201316.272500", "201317.772500", "201319.272500", "201320.772500", "201322.272500", "201323.772500", "201325.272500", "201326.772500", "201328.272500", "201329.772500", "201331.272500", "201332.772500", "201334.272500", "201335.772500", "201337.272500", "201338.772500", "201340.272500", "201341.772500", "201343.272500", "201344.772500", "201346.272500", "201347.772500", "201349.272500", "201350.772500", "201352.272500", "201353.772500", "201355.272500", "201356.772500", "201358.272500", "201359.772500", "201401.272500", "201402.772500", "201404.272500", "201405.772500", "201407.272500", "201408.772500", "201410.272500", "201411.772500", "201413.272500", "201414.772500", "201416.272500", "201417.772500", "201419.272500", "201420.772500", "201422.272500", "201423.772500", "201425.272500", "201426.772500", "201428.272500", "201429.772500", "201431.272500", "201432.772500", "201434.272500", "201435.772500", "201437.272500", "201438.772500", "201440.272500", "201441.772500", "201443.272500", "201444.772500", "201446.272500", "201447.772500", "201449.272500", "201450.772500", "201452.272500", "201453.772500", "201455.272500", "201456.772500", "201458.272500", "201459.772500", "201501.272500", "201502.772500", "201504.272500", "201505.772500", "201507.272500", "201508.772500", "201510.272500", "201511.772500", "201513.272500", "201514.772500", "201516.272500", "201517.772500", "201519.272500", "201520.772500", "201522.272500", "201523.772500", "201525.272500", "201526.772500", "201528.272500", "201529.772500", "201531.272500", "201532.772500", "201534.272500", "201535.772500", "201537.272500", "201538.772500", "201540.272500", "201541.772500", "201543.272500", "201544.772500", "201546.272500", "201547.772500", "201549.272500", "201550.772500", "201552.272500", "201553.772500", "201555.272500", "201556.772500", "201558.272500", "201559.772500", "201601.272500", "201602.772500", "201604.272500", "201605.772500", "201607.272500", "201608.772500", "201610.272500", "201611.772500", "201613.272500", "201614.772500", "201616.272500", "201617.772500", "201619.272500", "201620.772500", "201622.272500", "201623.772500", "201625.272500", "201626.772500", "201628.272500", "201629.772500", "201631.272500", "201632.772500", "201634.272500", "201635.772500", "201637.272500", "201638.772500", "201640.272500", "201641.772500", "201643.272500", "201644.772500", "201646.272500", "201647.772500", "201649.272500", "201650.772500", "201652.272500", "201653.772500", "201655.272500", "201656.772500", "201658.272500", "201659.772500", "201701.272500", "201702.772500", "201704.272500", "201705.772500", "201707.272500", "201708.772500", "201710.272500", "201711.772500", "201713.272500", "201714.772500", "201716.272500", "201717.772500", "201719.272500", "201720.772500", "201722.272500", "201723.772500", "201725.272500", "201726.772500", "201728.272500", "201729.772500", "201731.272500", "201732.772500", "201734.272500", "201735.772500", "201737.272500", "201738.772500", "201740.272500", "201741.772500", "201743.272500", "201744.772500", "201746.272500", "201747.772500", "201749.272500", "201750.772500", "201752.272500", "201753.772500", "201755.272500", "201756.772500", "201758.272500", "201759.772500", "201801.272500", "201802.772500", "201804.272500", "201805.772500", "201807.272500", "201808.772500", "201810.272500", "201811.772500", "201813.272500", "201814.772500", "201816.272500", "201817.772500", "201819.272500", "201820.772500", "201822.272500", "201823.772500", "201825.272500", "201826.772500", "201828.272500", "201829.772500", "201831.272500", "201832.772500", "201834.272500", "201835.772500", "201837.272500", "201838.772500", "201840.272500", "201841.772500", "201843.272500", "201844.772500", "201846.272500", "201847.772500", "201849.272500", "201850.772500", "201852.272500", "201853.772500", "201855.272500", "201856.772500", "201858.272500", "201859.772500", "201901.272500", "201902.772500", "201904.272500", "201905.772500", "201907.272500", "201908.772500", "201910.272500", "201911.772500", "201913.272500", "201914.772500", "201916.272500", "201917.772500", "201919.272500", "201920.772500", "201922.272500", "201923.772500", "201925.272500", "201926.772500", "201928.272500", "201929.772500", "201931.272500", "201932.772500", "201934.272500", "201935.772500", "201937.272500", "201938.772500", "201940.272500", "201941.772500", "201943.272500", "201944.772500", "201946.272500", "201947.772500", "201949.272500", "201950.772500", "201952.272500", "201953.772500", "201955.272500", "201956.772500", "201958.272500", "201959.772500", "202001.272500", "202002.772500", "202004.272500", "202005.772500", "202007.272500", "202008.772500", "202010.272500", "202011.772500", "202013.272500", "202014.772500", "202016.272500", "202017.772500", "202019.272500", "202020.772500", "202022.272500", "202023.772500", "202025.272500", "202026.772500", "202028.272500", "202029.772500", "202031.272500", "202032.772500", "202034.272500", "202035.772500", "202037.272500", "202038.772500", "202040.272500", "202041.772500", "202043.272500", "202044.772500", "202046.272500", "202047.772500", "202049.272500", "202050.772500", "202052.272500", "202053.772500", "202055.272500", "202056.772500", "202058.272500", "202059.772500", "202101.272500", "202102.772500", "202104.272500", "202105.772500", "202107.272500", "202108.772500", "202110.272500", "202111.772500", "202113.272500", "202114.772500", "202116.272500", "202117.772500", "202119.272500", "202120.772500", "202122.272500", "202123.772500", "202125.272500", "202126.772500", "202128.272500", "202129.772500", "202131.272500", "202132.772500", "202134.272500", "202135.772500", "202137.272500", "202138.772500", "202140.272500", "202141.772500", "202143.272500", "202144.772500", "202146.272500", "202147.772500", "202149.272500", "202150.772500", "202152.272500", "202153.772500", "202155.272500", "202156.772500", "202158.272500", "202159.772500", "202201.272500", "202202.772500", "202204.272500", "202205.772500", "202207.272500", "202208.772500", "202210.272500", "202211.772500", "202213.272500", "202214.772500", "202216.272500", "202217.772500", "202219.272500", "202220.772500", "202222.272500", "202223.772500", "202225.272500", "202226.772500", "202228.272500", "202229.772500", "202231.272500", "202232.772500", "202234.272500", "202235.772500", "202237.272500", "202238.772500", "202240.272500", "202241.772500", "202243.272500", "202244.772500", "202246.272500", "202247.772500", "202249.272500", "202250.772500", "202252.272500", "202253.772500", "202255.272500", "202256.772500", "202258.272500", "202259.772500", "202301.272500", "202302.772500", "202304.272500", "202305.772500", "202307.272500", "202308.772500", "202310.272500", "202311.772500", "202313.272500", "202314.772500", "202316.272500", "202317.772500", "202319.272500", "202320.772500", "202322.272500", "202323.772500", "202325.272500", "202326.772500", "202328.272500", "202329.772500", "202331.272500", "202332.772500", "202334.272500", "202335.772500", "202337.272500", "202338.772500", "202340.272500", "202341.772500", "202343.272500", "202344.772500", "202346.272500", "202347.772500", "202349.272500", "202350.772500", "202352.272500", "202353.772500", "202355.272500", "202356.772500", "202358.272500", "202359.772500", "202401.272500", "202402.772500", "202404.272500", "202405.772500", "202407.272500", "202408.772500", "202410.272500", "202411.772500", "202413.272500", "202414.772500", "202416.272500", "202417.772500", "202419.272500", "202420.772500", "202422.272500", "202423.772500", "202425.272500", "202426.772500", "202428.272500", "202429.772500", "202431.272500", "202432.772500", "202434.272500", "202435.772500", "202437.272500", "202438.772500", "202440.272500", "202441.772500", "202443.272500", "202444.772500", "202446.272500", "202447.772500", "202449.272500", "202450.772500", "202452.272500", "202453.772500", "202455.272500", "202456.772500", "202