{
  "AcquisitionMatrixPE": 106,
  "AcquisitionNumber": 1,
  "AcquisitionTime": "17:57:43.597500",
  "BandwidthPerPixelPhaseEncode": 16.846,
  "BaseResolution": 106,
  "BodyPartExamined": "BRAIN",
  "CoilCombinationMethod": "Sum of Squares",
  "ConsistencyInfo": "N4_VE11C_LATEST_20160120",
  "ConversionSoftware": "dcm2niix",
  "ConversionSoftwareVersion": "v1.0.20220720",
  "DerivedVendorReportedEchoSpacing": 0.000560012,
  "DeviceSerialNumber": "166108",
  "DwellTime": 1.8e-06,
  "EchoTime": 0.0352,
  "EchoTrainLength": 106,
  "EffectiveEchoSpacing": 0.000560012,
  "FlipAngle": 60,
  "HeudiconvVersion": "1.3.0",
  "ImageComments": "Unaliased MB4/PE3/LB",
  "ImageOrientationPatientDICOM": [1, 0, 0, 0, 1, 0],
  "ImageOrientationText": "Tra",
  "ImageType": [
    "ORIGINAL",
    "PRIMARY",
    "M",
    "MB",
    "ND",
    "MOSAIC"
],
  "ImagingFrequency": 123.244,
  "InPlanePhaseEncodingDirectionDICOM": "COL",
  "InstitutionAddress": "Bedford Way 26,London,London,GB,WC1H 0AP",
  "InstitutionName": "University College",
  "InstitutionalDepartmentName": "Department",
  "MRAcquisitionType": "2D",
  "MagneticFieldStrength": 3,
  "Manufacturer": "Siemens",
  "ManufacturersModelName": "Prisma",
  "MatrixCoilMode": "SENSE",
  "Modality": "MR",
  "MultibandAccelerationFactor": 4,
  "NonlinearGradientCorrection": false,
  "PartialFourier": 1,
  "PatientPosition": "HFS",
  "PercentPhaseFOV": 100,
  "PercentSampling": 100,
  "PhaseEncodingDirection": "j-",
  "PhaseEncodingSteps": 106,
  "PhaseResolution": 1,
  "PixelBandwidth": 2620,
  "ProcedureStepDescription": "Egor^MovieProject2",
  "ProtocolName": "task-backtothefuture_run-1",
  "PulseSequenceDetails": "%CustomerSeq%\\cmrr_mbep2d_bold",
  "ReceiveCoilActiveElements": "HEA;HEP",
  "ReceiveCoilName": "Head_32",
  "ReconMatrixPE": 106,
  "RepetitionTime": 1.5,
  "SAR": 0.0784426,
  "ScanOptions": "FS\\EXT",
  "ScanningSequence": "EP",
  "SequenceName": "epfid2d1_106",
  "SequenceVariant": "SK\\SS",
  "SeriesDescription": "task-backtothefuture_run-1",
  "SeriesNumber": 3,
  "ShimSetting": [-1541, 579, 7456, 506, -61, 267, 210, -51],
  "SliceThickness": 2,
  "SliceTiming": [0, 1.07, 0.6575, 0.2475, 1.315, 0.905, 0.4925, 0.0825, 1.1525, 0.74, 0.33, 1.3975, 0.9875, 0.575, 0.165, 1.2325, 0.8225, 0.4125, 0, 1.07, 0.6575, 0.2475, 1.315, 0.905, 0.4925, 0.0825, 1.1525, 0.74, 0.33, 1.3975, 0.9875, 0.575, 0.165, 1.2325, 0.8225, 0.4125, 0, 1.07, 0.6575, 0.2475, 1.315, 0.905, 0.4925, 0.0825, 1.1525, 0.74, 0.33, 1.3975, 0.9875, 0.575, 0.165, 1.2325, 0.8225, 0.4125, 0, 1.07, 0.6575, 0.2475, 1.315, 0.905, 0.4925, 0.0825, 1.1525, 0.74, 0.33, 1.3975, 0.9875, 0.575, 0.165, 1.2325, 0.8225, 0.4125],
  "SoftwareVersions": "syngo MR E11",
  "SpacingBetweenSlices": 2,
  "StationName": "AWP166108",
  "TaskName": "backtothefuture",
  "TotalReadoutTime": 0.0588013,
  "TxRefAmp": 235.117,
  "WipMemBlock": "b3e67b3e-0ba5-41ed-b440-ef93992f5cba||Sequence: R016 ve11c/master r/e634e98; Dec 19 2017 11:00:25 by eja",
  "dcmmeta_affine": [
    [-2.0, 0.0, 0.0, 106.0],
    [0.0, 2.0, 0.0, -90.74698638916016],
    [0.0, 0.0, 2.0, -54.132530212402344],
    [0.0, 0.0, 0.0, 1.0]
],
  "dcmmeta_reorient_transform": [
    [0.0, -1.0, 0.0, 105.0],
    [1.0, 0.0, 0.0, 0.0],
    [0.0, 0.0, 1.0, 0.0],
    [0.0, 0.0, 0.0, 1.0]
],
  "dcmmeta_shape": [106, 106, 72, 1360],
  "dcmmeta_slice_dim": 2,
  "dcmmeta_version": 0.6,
  "global": {
    "const": {
      "AcquisitionMatrix": [106, 0, 0, 106],
      "AngioFlag": "N",
      "BitsAllocated": 16,
      "BitsStored": 16,
      "BodyPartExamined": "BRAIN",
      "CardiacNumberOfImages": 1,
      "Columns": 954,
      "EchoNumbers": 1,
      "EchoTime": 35.2,
      "EchoTrainLength": 106,
      "FlipAngle": 60.0,
      "HighBit": 15,
      "ImageOrientationPatient": [1.0, 0.0, 0.0, 0.0, 1.0, 0.0],
      "ImagePositionPatient": [-954.0, -967.25301170349, -54.132530212402],
      "ImageType": [
        "ORIGINAL",
        "PRIMARY",
        "M",
        "MB",
        "ND",
        "MOSAIC"
],
      "ImagedNucleus": "1H",
      "ImagingFrequency": 123.243626,
      "InPlanePhaseEncodingDirection": "COL",
      "MRAcquisitionType": "2D",
      "MagneticFieldStrength": 3.0,
      "Manufacturer": "SIEMENS",
      "ManufacturerModelName": "Prisma",
      "Modality": "MR",
      "NominalInterval": 0,
      "NumberOfAverages": 1.0,
      "NumberOfPhaseEncodingSteps": 106,
      "PercentPhaseFieldOfView": 100.0,
      "PercentSampling": 100.0,
      "PerformedProcedureStepStartTime": "172639.085000",
      "PhotometricInterpretation": "MONOCHROME2",
      "PixelBandwidth": 2620.0,
      "PixelRepresentation": 0,
      "PixelSpacing": [2.0, 2.0],
      "ProtocolName": "task-backtothefuture_run-1",
      "RepetitionTime": 1500.0,
      "Rows": 954,
      "SAR": 0.07844262118419,
      "SamplesPerPixel": 1,
      "ScanOptions": [
        "FS",
        "EXT"
],
      "ScanningSequence": "EP",
      "SequenceName": "epfid2d1_106",
      "SequenceVariant": [
        "SK",
        "SS"
],
      "SeriesDescription": "task-backtothefuture_run-1",
      "SeriesNumber": 3,
      "SeriesTime": "175839.942000",
      "SliceLocation": -54.132530212402,
      "SliceThickness": 2.0,
      "SmallestImagePixelValue": 0,
      "SoftwareVersions": "syngo MR E11",
      "SpacingBetweenSlices": 2.0,
      "SpecificCharacterSet": "ISO_IR 100",
      "StudyID": "1",
      "StudyTime": "172638.972000",
      "TransmitCoilName": "Body",
      "VariableFlipAngleFlag": "N",
      "WindowCenterWidthExplanation": "Algo1",
      "dBdt": 0.0},
    "slices": {}
  },
  "time": {
    "samples": {
      "AcquisitionNumber": [1, 2, 3, 4, 5, 6, 7, 8, 9, 10, 11, 12, 13, 14, 15, 16, 17, 18, 19, 20, 21, 22, 23, 24, 25, 26, 27, 28, 29, 30, 31, 32, 33, 34, 35, 36, 37, 38, 39, 40, 41, 42, 43, 44, 45, 46, 47, 48, 49, 50, 51, 52, 53, 54, 55, 56, 57, 58, 59, 60, 61, 62, 63, 64, 65, 66, 67, 68, 69, 70, 71, 72, 73, 74, 75, 76, 77, 78, 79, 80, 81, 82, 83, 84, 85, 86, 87, 88, 89, 90, 91, 92, 93, 94, 95, 96, 97, 98, 99, 100, 101, 102, 103, 104, 105, 106, 107, 108, 109, 110, 111, 112, 113, 114, 115, 116, 117, 118, 119, 120, 121, 122, 123, 124, 125, 126, 127, 128, 129, 130, 131, 132, 133, 134, 135, 136, 137, 138, 139, 140, 141, 142, 143, 144, 145, 146, 147, 148, 149, 150, 151, 152, 153, 154, 155, 156, 157, 158, 159, 160, 161, 162, 163, 164, 165, 166, 167, 168, 169, 170, 171, 172, 173, 174, 175, 176, 177, 178, 179, 180, 181, 182, 183, 184, 185, 186, 187, 188, 189, 190, 191, 192, 193, 194, 195, 196, 197, 198, 199, 200, 201, 202, 203, 204, 205, 206, 207, 208, 209, 210, 211, 212, 213, 214, 215, 216, 217, 218, 219, 220, 221, 222, 223, 224, 225, 226, 227, 228, 229, 230, 231, 232, 233, 234, 235, 236, 237, 238, 239, 240, 241, 242, 243, 244, 245, 246, 247, 248, 249, 250, 251, 252, 253, 254, 255, 256, 257, 258, 259, 260, 261, 262, 263, 264, 265, 266, 267, 268, 269, 270, 271, 272, 273, 274, 275, 276, 277, 278, 279, 280, 281, 282, 283, 284, 285, 286, 287, 288, 289, 290, 291, 292, 293, 294, 295, 296, 297, 298, 299, 300, 301, 302, 303, 304, 305, 306, 307, 308, 309, 310, 311, 312, 313, 314, 315, 316, 317, 318, 319, 320, 321, 322, 323, 324, 325, 326, 327, 328, 329, 330, 331, 332, 333, 334, 335, 336, 337, 338, 339, 340, 341, 342, 343, 344, 345, 346, 347, 348, 349, 350, 351, 352, 353, 354, 355, 356, 357, 358, 359, 360, 361, 362, 363, 364, 365, 366, 367, 368, 369, 370, 371, 372, 373, 374, 375, 376, 377, 378, 379, 380, 381, 382, 383, 384, 385, 386, 387, 388, 389, 390, 391, 392, 393, 394, 395, 396, 397, 398, 399, 400, 401, 402, 403, 404, 405, 406, 407, 408, 409, 410, 411, 412, 413, 414, 415, 416, 417, 418, 419, 420, 421, 422, 423, 424, 425, 426, 427, 428, 429, 430, 431, 432, 433, 434, 435, 436, 437, 438, 439, 440, 441, 442, 443, 444, 445, 446, 447, 448, 449, 450, 451, 452, 453, 454, 455, 456, 457, 458, 459, 460, 461, 462, 463, 464, 465, 466, 467, 468, 469, 470, 471, 472, 473, 474, 475, 476, 477, 478, 479, 480, 481, 482, 483, 484, 485, 486, 487, 488, 489, 490, 491, 492, 493, 494, 495, 496, 497, 498, 499, 500, 501, 502, 503, 504, 505, 506, 507, 508, 509, 510, 511, 512, 513, 514, 515, 516, 517, 518, 519, 520, 521, 522, 523, 524, 525, 526, 527, 528, 529, 530, 531, 532, 533, 534, 535, 536, 537, 538, 539, 540, 541, 542, 543, 544, 545, 546, 547, 548, 549, 550, 551, 552, 553, 554, 555, 556, 557, 558, 559, 560, 561, 562, 563, 564, 565, 566, 567, 568, 569, 570, 571, 572, 573, 574, 575, 576, 577, 578, 579, 580, 581, 582, 583, 584, 585, 586, 587, 588, 589, 590, 591, 592, 593, 594, 595, 596, 597, 598, 599, 600, 601, 602, 603, 604, 605, 606, 607, 608, 609, 610, 611, 612, 613, 614, 615, 616, 617, 618, 619, 620, 621, 622, 623, 624, 625, 626, 627, 628, 629, 630, 631, 632, 633, 634, 635, 636, 637, 638, 639, 640, 641, 642, 643, 644, 645, 646, 647, 648, 649, 650, 651, 652, 653, 654, 655, 656, 657, 658, 659, 660, 661, 662, 663, 664, 665, 666, 667, 668, 669, 670, 671, 672, 673, 674, 675, 676, 677, 678, 679, 680, 681, 682, 683, 684, 685, 686, 687, 688, 689, 690, 691, 692, 693, 694, 695, 696, 697, 698, 699, 700, 701, 702, 703, 704, 705, 706, 707, 708, 709, 710, 711, 712, 713, 714, 715, 716, 717, 718, 719, 720, 721, 722, 723, 724, 725, 726, 727, 728, 729, 730, 731, 732, 733, 734, 735, 736, 737, 738, 739, 740, 741, 742, 743, 744, 745, 746, 747, 748, 749, 750, 751, 752, 753, 754, 755, 756, 757, 758, 759, 760, 761, 762, 763, 764, 765, 766, 767, 768, 769, 770, 771, 772, 773, 774, 775, 776, 777, 778, 779, 780, 781, 782, 783, 784, 785, 786, 787, 788, 789, 790, 791, 792, 793, 794, 795, 796, 797, 798, 799, 800, 801, 802, 803, 804, 805, 806, 807, 808, 809, 810, 811, 812, 813, 814, 815, 816, 817, 818, 819, 820, 821, 822, 823, 824, 825, 826, 827, 828, 829, 830, 831, 832, 833, 834, 835, 836, 837, 838, 839, 840, 841, 842, 843, 844, 845, 846, 847, 848, 849, 850, 851, 852, 853, 854, 855, 856, 857, 858, 859, 860, 861, 862, 863, 864, 865, 866, 867, 868, 869, 870, 871, 872, 873, 874, 875, 876, 877, 878, 879, 880, 881, 882, 883, 884, 885, 886, 887, 888, 889, 890, 891, 892, 893, 894, 895, 896, 897, 898, 899, 900, 901, 902, 903, 904, 905, 906, 907, 908, 909, 910, 911, 912, 913, 914, 915, 916, 917, 918, 919, 920, 921, 922, 923, 924, 925, 926, 927, 928, 929, 930, 931, 932, 933, 934, 935, 936, 937, 938, 939, 940, 941, 942, 943, 944, 945, 946, 947, 948, 949, 950, 951, 952, 953, 954, 955, 956, 957, 958, 959, 960, 961, 962, 963, 964, 965, 966, 967, 968, 969, 970, 971, 972, 973, 974, 975, 976, 977, 978, 979, 980, 981, 982, 983, 984, 985, 986, 987, 988, 989, 990, 991, 992, 993, 994, 995, 996, 997, 998, 999, 1000, 1001, 1002, 1003, 1004, 1005, 1006, 1007, 1008, 1009, 1010, 1011, 1012, 1013, 1014, 1015, 1016, 1017, 1018, 1019, 1020, 1021, 1022, 1023, 1024, 1025, 1026, 1027, 1028, 1029, 1030, 1031, 1032, 1033, 1034, 1035, 1036, 1037, 1038, 1039, 1040, 1041, 1042, 1043, 1044, 1045, 1046, 1047, 1048, 1049, 1050, 1051, 1052, 1053, 1054, 1055, 1056, 1057, 1058, 1059, 1060, 1061, 1062, 1063, 1064, 1065, 1066, 1067, 1068, 1069, 1070, 1071, 1072, 1073, 1074, 1075, 1076, 1077, 1078, 1079, 1080, 1081, 1082, 1083, 1084, 1085, 1086, 1087, 1088, 1089, 1090, 1091, 1092, 1093, 1094, 1095, 1096, 1097, 1098, 1099, 1100, 1101, 1102, 1103, 1104, 1105, 1106, 1107, 1108, 1109, 1110, 1111, 1112, 1113, 1114, 1115, 1116, 1117, 1118, 1119, 1120, 1121, 1122, 1123, 1124, 1125, 1126, 1127, 1128, 1129, 1130, 1131, 1132, 1133, 1134, 1135, 1136, 1137, 1138, 1139, 1140, 1141, 1142, 1143, 1144, 1145, 1146, 1147, 1148, 1149, 1150, 1151, 1152, 1153, 1154, 1155, 1156, 1157, 1158, 1159, 1160, 1161, 1162, 1163, 1164, 1165, 1166, 1167, 1168, 1169, 1170, 1171, 1172, 1173, 1174, 1175, 1176, 1177, 1178, 1179, 1180, 1181, 1182, 1183, 1184, 1185, 1186, 1187, 1188, 1189, 1190, 1191, 1192, 1193, 1194, 1195, 1196, 1197, 1198, 1199, 1200, 1201, 1202, 1203, 1204, 1205, 1206, 1207, 1208, 1209, 1210, 1211, 1212, 1213, 1214, 1215, 1216, 1217, 1218, 1219, 1220, 1221, 1222, 1223, 1224, 1225, 1226, 1227, 1228, 1229, 1230, 1231, 1232, 1233, 1234, 1235, 1236, 1237, 1238, 1239, 1240, 1241, 1242, 1243, 1244, 1245, 1246, 1247, 1248, 1249, 1250, 1251, 1252, 1253, 1254, 1255, 1256, 1257, 1258, 1259, 1260, 1261, 1262, 1263, 1264, 1265, 1266, 1267, 1268, 1269, 1270, 1271, 1272, 1273, 1274, 1275, 1276, 1277, 1278, 1279, 1280, 1281, 1282, 1283, 1284, 1285, 1286, 1287, 1288, 1289, 1290, 1291, 1292, 1293, 1294, 1295, 1296, 1297, 1298, 1299, 1300, 1301, 1302, 1303, 1304, 1305, 1306, 1307, 1308, 1309, 1310, 1311, 1312, 1313, 1314, 1315, 1316, 1317, 1318, 1319, 1320, 1321, 1322, 1323, 1324, 1325, 1326, 1327, 1328, 1329, 1330, 1331, 1332, 1333, 1334, 1335, 1336, 1337, 1338, 1339, 1340, 1341, 1342, 1343, 1344, 1345, 1346, 1347, 1348, 1349, 1350, 1351, 1352, 1353, 1354, 1355, 1356, 1357, 1358, 1359, 1360],
      "AcquisitionTime": ["175743.597500", "175745.097500", "175746.597500", "175748.097500", "175749.597500", "175751.097500", "175752.597500", "175754.097500", "175755.597500", "175757.097500", "175758.597500", "175800.097500", "175801.597500", "175803.097500", "175804.597500", "175806.097500", "175807.597500", "175809.097500", "175810.597500", "175812.097500", "175813.597500", "175815.097500", "175816.597500", "175818.097500", "175819.597500", "175821.097500", "175822.597500", "175824.097500", "175825.597500", "175827.097500", "175828.597500", "175830.097500", "175831.597500", "175833.097500", "175834.597500", "175836.097500", "175837.597500", "175839.097500", "175840.597500", "175842.097500", "175843.597500", "175845.097500", "175846.597500", "175848.097500", "175849.597500", "175851.097500", "175852.597500", "175854.097500", "175855.597500", "175857.097500", "175858.597500", "175900.097500", "175901.597500", "175903.097500", "175904.597500", "175906.097500", "175907.597500", "175909.097500", "175910.597500", "175912.097500", "175913.597500", "175915.097500", "175916.597500", "175918.097500", "175919.597500", "175921.097500", "175922.597500", "175924.097500", "175925.597500", "175927.097500", "175928.597500", "175930.097500", "175931.597500", "175933.097500", "175934.597500", "175936.097500", "175937.597500", "175939.097500", "175940.597500", "175942.097500", "175943.597500", "175945.097500", "175946.597500", "175948.097500", "175949.597500", "175951.097500", "175952.597500", "175954.097500", "175955.597500", "175957.097500", "175958.597500", "180000.097500", "180001.597500", "180003.097500", "180004.597500", "180006.097500", "180007.597500", "180009.097500", "180010.597500", "180012.097500", "180013.597500", "180015.097500", "180016.597500", "180018.097500", "180019.597500", "180021.097500", "180022.597500", "180024.097500", "180025.597500", "180027.097500", "180028.597500", "180030.097500", "180031.597500", "180033.097500", "180034.597500", "180036.097500", "180037.597500", "180039.097500", "180040.597500", "180042.097500", "180043.597500", "180045.097500", "180046.597500", "180048.097500", "180049.597500", "180051.097500", "180052.597500", "180054.097500", "180055.597500", "180057.097500", "180058.597500", "180100.097500", "180101.597500", "180103.097500", "180104.597500", "180106.097500", "180107.597500", "180109.097500", "180110.597500", "180112.097500", "180113.597500", "180115.097500", "180116.597500", "180118.097500", "180119.597500", "180121.097500", "180122.597500", "180124.097500", "180125.597500", "180127.097500", "180128.597500", "180130.097500", "180131.597500", "180133.097500", "180134.597500", "180136.097500", "180137.597500", "180139.097500", "180140.597500", "180142.097500", "180143.597500", "180145.097500", "180146.597500", "180148.097500", "180149.597500", "180151.097500", "180152.597500", "180154.097500", "180155.597500", "180157.097500", "180158.597500", "180200.097500", "180201.597500", "180203.097500", "180204.597500", "180206.097500", "180207.597500", "180209.097500", "180210.597500", "180212.097500", "180213.597500", "180215.097500", "180216.597500", "180218.097500", "180219.597500", "180221.097500", "180222.597500", "180224.097500", "180225.597500", "180227.097500", "180228.597500", "180230.097500", "180231.597500", "180233.097500", "180234.597500", "180236.097500", "180237.597500", "180239.097500", "180240.597500", "180242.097500", "180243.597500", "180245.097500", "180246.597500", "180248.097500", "180249.597500", "180251.097500", "180252.597500", "180254.097500", "180255.597500", "180257.097500", "180258.597500", "180300.097500", "180301.597500", "180303.097500", "180304.597500", "180306.097500", "180307.597500", "180309.097500", "180310.597500", "180312.097500", "180313.597500", "180315.097500", "180316.597500", "180318.097500", "180319.597500", "180321.097500", "180322.597500", "180324.097500", "180325.597500", "180327.097500", "180328.597500", "180330.097500", "180331.597500", "180333.097500", "180334.597500", "180336.097500", "180337.597500", "180339.097500", "180340.597500", "180342.097500", "180343.597500", "180345.097500", "180346.597500", "180348.097500", "180349.597500", "180351.097500", "180352.597500", "180354.097500", "180355.597500", "180357.097500", "180358.597500", "180400.097500", "180401.597500", "180403.097500", "180404.597500", "180406.097500", "180407.597500", "180409.097500", "180410.597500", "180412.097500", "180413.597500", "180415.097500", "180416.597500", "180418.097500", "180419.597500", "180421.097500", "180422.597500", "180424.097500", "180425.597500", "180427.097500", "180428.597500", "180430.097500", "180431.597500", "180433.097500", "180434.597500", "180436.097500", "180437.597500", "180439.097500", "180440.597500", "180442.097500", "180443.597500", "180445.097500", "180446.597500", "180448.097500", "180449.597500", "180451.097500", "180452.597500", "180454.097500", "180455.597500", "180457.097500", "180458.597500", "180500.097500", "180501.597500", "180503.097500", "180504.597500", "180506.097500", "180507.597500", "180509.097500", "180510.597500", "180512.097500", "180513.597500", "180515.097500", "180516.597500", "180518.097500", "180519.597500", "180521.097500", "180522.597500", "180524.097500", "180525.597500", "180527.097500", "180528.597500", "180530.097500", "180531.597500", "180533.097500", "180534.597500", "180536.097500", "180537.597500", "180539.097500", "180540.597500", "180542.097500", "180543.597500", "180545.097500", "180546.597500", "180548.097500", "180549.597500", "180551.097500", "180552.597500", "180554.097500", "180555.597500", "180557.097500", "180558.597500", "180600.097500", "180601.597500", "180603.097500", "180604.597500", "180606.097500", "180607.597500", "180609.097500", "180610.597500", "180612.097500", "180613.597500", "180615.097500", "180616.597500", "180618.097500", "180619.597500", "180621.097500", "180622.597500", "180624.097500", "180625.597500", "180627.097500", "180628.597500", "180630.097500", "180631.597500", "180633.097500", "180634.597500", "180636.097500", "180637.597500", "180639.097500", "180640.597500", "180642.097500", "180643.597500", "180645.097500", "180646.597500", "180648.097500", "180649.597500", "180651.097500", "180652.597500", "180654.097500", "180655.597500", "180657.097500", "180658.597500", "180700.097500", "180701.597500", "180703.097500", "180704.597500", "180706.097500", "180707.597500", "180709.097500", "180710.597500", "180712.097500", "180713.597500", "180715.097500", "180716.597500", "180718.097500", "180719.597500", "180721.097500", "180722.597500", "180724.097500", "180725.597500", "180727.097500", "180728.597500", "180730.097500", "180731.597500", "180733.097500", "180734.597500", "180736.097500", "180737.597500", "180739.097500", "180740.597500", "180742.097500", "180743.597500", "180745.097500", "180746.597500", "180748.097500", "180749.597500", "180751.097500", "180752.597500", "180754.097500", "180755.597500", "180757.097500", "180758.597500", "180800.097500", "180801.597500", "180803.097500", "180804.597500", "180806.097500", "180807.597500", "180809.097500", "180810.597500", "180812.097500", "180813.597500", "180815.097500", "180816.597500", "180818.097500", "180819.597500", "180821.097500", "180822.597500", "180824.097500", "180825.597500", "180827.097500", "180828.597500", "180830.097500", "180831.597500", "180833.097500", "180834.597500", "180836.097500", "180837.597500", "180839.097500", "180840.597500", "180842.097500", "180843.597500", "180845.097500", "180846.597500", "180848.097500", "180849.597500", "180851.097500", "180852.597500", "180854.097500", "180855.597500", "180857.097500", "180858.597500", "180900.097500", "180901.597500", "180903.097500", "180904.597500", "180906.097500", "180907.597500", "180909.097500", "180910.597500", "180912.097500", "180913.597500", "180915.097500", "180916.597500", "180918.097500", "180919.597500", "180921.097500", "180922.597500", "180924.097500", "180925.597500", "180927.097500", "180928.597500", "180930.097500", "180931.597500", "180933.097500", "180934.597500", "180936.097500", "180937.597500", "180939.097500", "180940.597500", "180942.097500", "180943.597500", "180945.097500", "180946.597500", "180948.097500", "180949.597500", "180951.097500", "180952.597500", "180954.097500", "180955.597500", "180957.097500", "180958.597500", "181000.097500", "181001.597500", "181003.097500", "181004.597500", "181006.097500", "181007.597500", "181009.097500", "181010.597500", "181012.097500", "181013.597500", "181015.097500", "181016.597500", "181018.097500", "181019.597500", "181021.097500", "181022.597500", "181024.097500", "181025.597500", "181027.097500", "181028.597500", "181030.097500", "181031.597500", "181033.097500", "181034.597500", "181036.097500", "181037.597500", "181039.097500", "181040.597500", "181042.097500", "181043.597500", "181045.097500", "181046.597500", "181048.097500", "181049.597500", "181051.097500", "181052.597500", "181054.097500", "181055.597500", "181057.097500", "181058.597500", "181100.097500", "181101.597500", "181103.097500", "181104.597500", "181106.097500", "181107.597500", "181109.097500", "181110.597500", "181112.097500", "181113.597500", "181115.097500", "181116.597500", "181118.097500", "181119.597500", "181121.097500", "181122.597500", "181124.097500", "181125.597500", "181127.097500", "181128.597500", "181130.097500", "181131.597500", "181133.097500", "181134.597500", "181136.097500", "181137.597500", "181139.097500", "181140.597500", "181142.097500", "181143.597500", "181145.097500", "181146.597500", "181148.097500", "181149.597500", "181151.097500", "181152.597500", "181154.097500", "181155.597500", "181157.097500", "181158.597500", "181200.097500", "181201.597500", "181203.097500", "181204.597500", "181206.097500", "181207.597500", "181209.097500", "181210.597500", "181212.097500", "181213.597500", "181215.097500", "181216.597500", "181218.097500", "181219.597500", "181221.097500", "181222.597500", "181224.097500", "181225.597500", "181227.097500", "181228.597500", "181230.097500", "181231.597500", "181233.097500", "181234.597500", "181236.097500", "181237.597500", "181239.097500", "181240.597500", "181242.097500", "181243.597500", "181245.097500", "181246.597500", "181248.097500", "181249.597500", "181251.097500", "181252.597500", "181254.097500", "181255.597500", "181257.097500", "181258.597500", "181300.097500", "181301.597500", "181303.097500", "181304.597500", "181306.097500", "181307.597500", "181309.097500", "181310.597500", "181312.097500", "181313.597500", "181315.097500", "181316.597500", "181318.097500", "181319.597500", "181321.097500", "181322.597500", "181324.097500", "181325.597500", "181327.097500", "181328.597500", "181330.097500", "181331.597500", "181333.097500", "181334.597500", "181336.097500", "181337.597500", "181339.097500", "181340.597500", "181342.097500", "181343.597500", "181345.097500", "181346.597500", "181348.097500", "181349.597500", "181351.097500", "181352.597500", "181354.097500", "181355.597500", "181357.097500", "181358.597500", "181400.097500", "181401.597500", "181403.097500", "181404.597500", "181406.097500", "181407.597500", "181409.097500", "181410.597500", "181412.097500", "181413.597500", "181415.097500", "181416.597500", "181418.097500", "181419.597500", "181421.097500", "181422.597500", "181424.097500", "181425.597500", "181427.097500", "181428.597500", "181430.097500", "181431.597500", "181433.097500", "181434.597500", "181436.097500", "181437.597500", "181439.097500", "181440.597500", "181442.097500", "181443.597500", "181445.097500", "181446.597500", "181448.097500", "181449.597500", "181451.097500", "181452.597500", "181454.097500", "181455.597500", "181457.097500", "181458.597500", "181500.097500", "181501.597500", "181503.097500", "181504.597500", "181506.097500", "181507.597500", "181509.097500", "181510.597500", "181512.097500", "181513.597500", "181515.097500", "181516.597500", "181518.097500", "181519.597500", "181521.097500", "181522.597500", "181524.097500", "181525.597500", "181527.097500", "181528.597500", "181530.097500", "181531.597500", "181533.097500", "181534.597500", "181536.097500", "181537.597500", "181539.097500", "181540.597500", "181542.097500", "181543.597500", "181545.097500", "181546.597500", "181548.097500", "181549.597500", "181551.097500", "181552.597500", "181554.097500", "181555.597500", "181557.097500", "181558.597500", "181600.097500", "181601.597500", "181603.097500", "181604.597500", "181606.097500", "181607.597500", "181609.097500", "181610.597500", "181612.097500", "181613.597500", "181615.097500", "181616.597500", "181618.097500", "181619.597500", "181621.097500", "181622.597500", "181624.097500", "181625.597500", "181627.097500", "181628.597500", "181630.097500", "181631.597500", "181633.097500", "181634.597500", "181636.097500", "181637.597500", "181639.097500", "181640.597500", "181642.097500", "181643.597500", "181645.097500", "181646.597500", "181648.097500", "181649.597500", "181651.097500", "181652.597500", "181654.097500", "181655.597500", "181657.097500", "181658.597500", "181700.097500", "181701.597500", "181703.097500", "181704.597500", "181706.097500", "181707.597500", "181709.097500", "181710.597500", "181712.097500", "181713.597500", "181715.097500", "181716.597500", "181718.097500", "181719.597500", "181721.097500", "181722.597500", "181724.097500", "181725.597500", "181727.097500", "181728.597500", "181730.097500", "181731.597500", "181733.097500", "181734.597500", "181736.097500", "181737.597500", "181739.097500", "181740.597500", "181742.097500", "181743.597500", "181745.097500", "181746.597500", "181748.097500", "181749.597500", "181751.097500", "181752.597500", "181754.097500", "181755.597500", "181757.097500", "181758.597500", "181800.097500", "181801.597500", "181803.097500", "181804.597500", "181806.097500", "181807.597500", "181809.097500", "181810.597500", "181812.097500", "181813.597500", "181815.097500", "181816.597500", "181818.097500", "181819.597500", "181821.097500", "181822.597500", "181824.097500", "181825.597500", "181827.097500", "181828.597500", "181830.097500", "181831.597500", "181833.097500", "181834.597500", "181836.097500", "181837.597500", "181839.097500", "181840.597500", "181842.097500", "181843.597500", "181845.097500", "181846.597500", "181848.097500", "181849.597500", "181851.097500", "181852.597500", "181854.097500", "181855.597500", "181857.097500", "181858.597500", "181900.097500", "181901.597500", "181903.097500", "181904.597500", "181906.097500", "181907.597500", "181909.097500", "181910.597500", "181912.097500", "181913.597500", "181915.097500", "181916.597500", "181918.097500", "181919.597500", "181921.097500", "181922.597500", "181924.097500", "181925.597500", "181927.097500", "181928.597500", "181930.097500", "181931.597500", "181933.097500", "181934.597500", "181936.097500", "181937.597500", "181939.097500", "181940.597500", "181942.097500", "181943.597500", "181945.097500", "181946.597500", "181948.097500", "181949.597500", "181951.097500", "181952.597500", "181954.097500", "181955.597500", "181957.097500", "181958.597500", "182000.097500", "182001.597500", "182003.097500", "182004.597500", "182006.097500", "182007.597500", "182009.097500", "182010.597500", "182012.097500", "182013.597500", "182015.097500", "182016.597500", "182018.097500", "182019.597500", "182021.097500", "182022.597500", "182024.097500", "182025.597500", "182027.097500", "182028.597500", "182030.097500", "182031.597500", "182033.097500", "182034.597500", "182036.097500", "182037.597500", "182039.097500", "182040.597500", "182042.097500", "182043.597500", "182045.097500", "182046.597500", "182048.097500", "182049.597500", "182051.097500", "182052.597500", "182054.097500", "182055.597500", "182057.097500", "182058.597500", "182100.097500", "182101.597500", "182103.097500", "182104.597500", "182106.097500", "182107.597500", "182109.097500", "182110.597500", "182112.097500", "182113.597500", "182115.097500", "182116.597500", "182118.097500", "182119.597500", "182121.097500", "182122.597500", "182124.097500", "182125.597500", "182127.097500", "182128.597500", "182130.097500", "182131.597500", "182133.097500", "182134.597500", "182136.097500", "182137.597500", "182139.097500", "182140.597500", "182142.097500", "182143.597500", "182145.097500", "182146.597500", "182148.097500", "182149.597500", "182151.097500", "182152.597500", "182154.097500", "182155.597500", "182157.097500", "182158.597500", "182200.097500", "182201.597500", "182203.097500", "182204.597500", "182206.097500", "182207.597500", "182209.097500", "182210.597500", "182212.097500", "182213.597500", "182215.097500", "182216.597500", "182218.097500", "182219.597500", "182221.097500", "182222.597500", "182224.097500", "182225.597500", "182227.097500", "182228.597500", "182230.097500", "182231.597500", "182233.097500", "182234.597500", "182236.097500", "182237.597500", "182239.097500", "182240.597500", "182242.097500", "182243.597500", "182245.097500", "182246.597500", "182248.097500", "182249.597500", "182251.097500", "182252.597500", "182254.097500", "182255.597500", "182257.097500", "182258.597500", "182300.097500", "182301.597500", "182303.097500", "182304.597500", "182306.097500", "182307.597500", "182309.09