{
  "AcquisitionMatrixPE": 106,
  "AcquisitionNumber": 1,
  "AcquisitionTime": "19:16:14.297500",
  "BandwidthPerPixelPhaseEncode": 16.846,
  "BaseResolution": 106,
  "BodyPartExamined": "BRAIN",
  "CoilCombinationMethod": "Sum of Squares",
  "ConsistencyInfo": "N4_VE11C_LATEST_20160120",
  "ConversionSoftware": "dcm2niix",
  "ConversionSoftwareVersion": "v1.0.20220720",
  "DerivedVendorReportedEchoSpacing": 0.000560012,
  "DeviceSerialNumber": "166108",
  "DwellTime": 1.8e-06,
  "EchoTime": 0.0352,
  "EchoTrainLength": 106,
  "EffectiveEchoSpacing": 0.000560012,
  "FlipAngle": 60,
  "HeudiconvVersion": "1.3.0",
  "ImageComments": "Unaliased MB4/PE3/LB",
  "ImageOrientationPatientDICOM": [1, 0, 0, 0, 1, 0],
  "ImageOrientationText": "Tra",
  "ImageType": [
    "ORIGINAL",
    "PRIMARY",
    "M",
    "MB",
    "ND",
    "MOSAIC"
],
  "ImagingFrequency": 123.244,
  "InPlanePhaseEncodingDirectionDICOM": "COL",
  "InstitutionAddress": "Bedford Way 26,London,London,GB,WC1H 0AP",
  "InstitutionName": "University College",
  "InstitutionalDepartmentName": "Department",
  "MRAcquisitionType": "2D",
  "MagneticFieldStrength": 3,
  "Manufacturer": "Siemens",
  "ManufacturersModelName": "Prisma",
  "MatrixCoilMode": "SENSE",
  "Modality": "MR",
  "MultibandAccelerationFactor": 4,
  "NonlinearGradientCorrection": false,
  "PartialFourier": 1,
  "PatientPosition": "HFS",
  "PercentPhaseFOV": 100,
  "PercentSampling": 100,
  "PhaseEncodingDirection": "j-",
  "PhaseEncodingSteps": 106,
  "PhaseResolution": 1,
  "PixelBandwidth": 2620,
  "ProcedureStepDescription": "Egor^MovieProject2",
  "ProtocolName": "task-backtothefuture_run-3",
  "PulseSequenceDetails": "%CustomerSeq%\\cmrr_mbep2d_bold",
  "ReceiveCoilActiveElements": "HEA;HEP",
  "ReceiveCoilName": "Head_32",
  "ReconMatrixPE": 106,
  "RepetitionTime": 1.5,
  "SAR": 0.0784644,
  "ScanOptions": "FS\\EXT",
  "ScanningSequence": "EP",
  "SequenceName": "epfid2d1_106",
  "SequenceVariant": "SK\\SS",
  "SeriesDescription": "task-backtothefuture_run-3",
  "SeriesNumber": 11,
  "ShimSetting": [-1541, 579, 7456, 506, -61, 267, 210, -51],
  "SliceThickness": 2,
  "SliceTiming": [0, 1.0675, 0.6575, 0.245, 1.315, 0.9025, 0.4925, 0.0825, 1.15, 0.74, 0.3275, 1.3975, 0.985, 0.575, 0.1625, 1.2325, 0.8225, 0.41, 0, 1.0675, 0.6575, 0.245, 1.315, 0.9025, 0.4925, 0.0825, 1.15, 0.74, 0.3275, 1.3975, 0.985, 0.575, 0.1625, 1.2325, 0.8225, 0.41, 0, 1.0675, 0.6575, 0.245, 1.315, 0.9025, 0.4925, 0.0825, 1.15, 0.74, 0.3275, 1.3975, 0.985, 0.575, 0.1625, 1.2325, 0.8225, 0.41, 0, 1.0675, 0.6575, 0.245, 1.315, 0.9025, 0.4925, 0.0825, 1.15, 0.74, 0.3275, 1.3975, 0.985, 0.575, 0.1625, 1.2325, 0.8225, 0.41],
  "SoftwareVersions": "syngo MR E11",
  "SpacingBetweenSlices": 2,
  "StationName": "AWP166108",
  "TaskName": "backtothefuture",
  "TotalReadoutTime": 0.0588013,
  "TxRefAmp": 235.117,
  "WipMemBlock": "e7d9b506-aa86-49e4-869e-e688869de3d7||Sequence: R016 ve11c/master r/e634e98; Dec 19 2017 11:00:25 by eja",
  "dcmmeta_affine": [
    [-2.0, 0.0, 0.0, 106.0],
    [0.0, 2.0, 0.0, -90.74698638916016],
    [0.0, 0.0, 2.0, -54.132530212402344],
    [0.0, 0.0, 0.0, 1.0]
],
  "dcmmeta_reorient_transform": [
    [0.0, -1.0, 0.0, 105.0],
    [1.0, 0.0, 0.0, 0.0],
    [0.0, 0.0, 1.0, 0.0],
    [0.0, 0.0, 0.0, 1.0]
],
  "dcmmeta_shape": [106, 106, 72, 1608],
  "dcmmeta_slice_dim": 2,
  "dcmmeta_version": 0.6,
  "global": {
    "const": {
      "AcquisitionMatrix": [106, 0, 0, 106],
      "AngioFlag": "N",
      "BitsAllocated": 16,
      "BitsStored": 16,
      "BodyPartExamined": "BRAIN",
      "CardiacNumberOfImages": 1,
      "Columns": 954,
      "EchoNumbers": 1,
      "EchoTime": 35.2,
      "EchoTrainLength": 106,
      "FlipAngle": 60.0,
      "HighBit": 15,
      "ImageOrientationPatient": [1.0, 0.0, 0.0, 0.0, 1.0, 0.0],
      "ImagePositionPatient": [-954.0, -967.25301170349, -54.132530212402],
      "ImageType": [
        "ORIGINAL",
        "PRIMARY",
        "M",
        "MB",
        "ND",
        "MOSAIC"
],
      "ImagedNucleus": "1H",
      "ImagingFrequency": 123.243676,
      "InPlanePhaseEncodingDirection": "COL",
      "MRAcquisitionType": "2D",
      "MagneticFieldStrength": 3.0,
      "Manufacturer": "SIEMENS",
      "ManufacturerModelName": "Prisma",
      "Modality": "MR",
      "NominalInterval": 0,
      "NumberOfAverages": 1.0,
      "NumberOfPhaseEncodingSteps": 106,
      "PercentPhaseFieldOfView": 100.0,
      "PercentSampling": 100.0,
      "PerformedProcedureStepStartTime": "172639.085000",
      "PhotometricInterpretation": "MONOCHROME2",
      "PixelBandwidth": 2620.0,
      "PixelRepresentation": 0,
      "PixelSpacing": [2.0, 2.0],
      "ProtocolName": "task-backtothefuture_run-3",
      "RepetitionTime": 1500.0,
      "Rows": 954,
      "SAR": 0.07846437158496,
      "SamplesPerPixel": 1,
      "ScanOptions": [
        "FS",
        "EXT"
],
      "ScanningSequence": "EP",
      "SequenceName": "epfid2d1_106",
      "SequenceVariant": [
        "SK",
        "SS"
],
      "SeriesDescription": "task-backtothefuture_run-3",
      "SeriesNumber": 11,
      "SeriesTime": "191656.671000",
      "SliceLocation": -54.132530212402,
      "SliceThickness": 2.0,
      "SmallestImagePixelValue": 0,
      "SoftwareVersions": "syngo MR E11",
      "SpacingBetweenSlices": 2.0,
      "SpecificCharacterSet": "ISO_IR 100",
      "StudyID": "1",
      "StudyTime": "172638.972000",
      "TransmitCoilName": "Body",
      "VariableFlipAngleFlag": "N",
      "WindowCenterWidthExplanation": "Algo1",
      "dBdt": 0.0},
    "slices": {}
  },
  "time": {
    "samples": {
      "AcquisitionNumber": [1, 2, 3, 4, 5, 6, 7, 8, 9, 10, 11, 12, 13, 14, 15, 16, 17, 18, 19, 20, 21, 22, 23, 24, 25, 26, 27, 28, 29, 30, 31, 32, 33, 34, 35, 36, 37, 38, 39, 40, 41, 42, 43, 44, 45, 46, 47, 48, 49, 50, 51, 52, 53, 54, 55, 56, 57, 58, 59, 60, 61, 62, 63, 64, 65, 66, 67, 68, 69, 70, 71, 72, 73, 74, 75, 76, 77, 78, 79, 80, 81, 82, 83, 84, 85, 86, 87, 88, 89, 90, 91, 92, 93, 94, 95, 96, 97, 98, 99, 100, 101, 102, 103, 104, 105, 106, 107, 108, 109, 110, 111, 112, 113, 114, 115, 116, 117, 118, 119, 120, 121, 122, 123, 124, 125, 126, 127, 128, 129, 130, 131, 132, 133, 134, 135, 136, 137, 138, 139, 140, 141, 142, 143, 144, 145, 146, 147, 148, 149, 150, 151, 152, 153, 154, 155, 156, 157, 158, 159, 160, 161, 162, 163, 164, 165, 166, 167, 168, 169, 170, 171, 172, 173, 174, 175, 176, 177, 178, 179, 180, 181, 182, 183, 184, 185, 186, 187, 188, 189, 190, 191, 192, 193, 194, 195, 196, 197, 198, 199, 200, 201, 202, 203, 204, 205, 206, 207, 208, 209, 210, 211, 212, 213, 214, 215, 216, 217, 218, 219, 220, 221, 222, 223, 224, 225, 226, 227, 228, 229, 230, 231, 232, 233, 234, 235, 236, 237, 238, 239, 240, 241, 242, 243, 244, 245, 246, 247, 248, 249, 250, 251, 252, 253, 254, 255, 256, 257, 258, 259, 260, 261, 262, 263, 264, 265, 266, 267, 268, 269, 270, 271, 272, 273, 274, 275, 276, 277, 278, 279, 280, 281, 282, 283, 284, 285, 286, 287, 288, 289, 290, 291, 292, 293, 294, 295, 296, 297, 298, 299, 300, 301, 302, 303, 304, 305, 306, 307, 308, 309, 310, 311, 312, 313, 314, 315, 316, 317, 318, 319, 320, 321, 322, 323, 324, 325, 326, 327, 328, 329, 330, 331, 332, 333, 334, 335, 336, 337, 338, 339, 340, 341, 342, 343, 344, 345, 346, 347, 348, 349, 350, 351, 352, 353, 354, 355, 356, 357, 358, 359, 360, 361, 362, 363, 364, 365, 366, 367, 368, 369, 370, 371, 372, 373, 374, 375, 376, 377, 378, 379, 380, 381, 382, 383, 384, 385, 386, 387, 388, 389, 390, 391, 392, 393, 394, 395, 396, 397, 398, 399, 400, 401, 402, 403, 404, 405, 406, 407, 408, 409, 410, 411, 412, 413, 414, 415, 416, 417, 418, 419, 420, 421, 422, 423, 424, 425, 426, 427, 428, 429, 430, 431, 432, 433, 434, 435, 436, 437, 438, 439, 440, 441, 442, 443, 444, 445, 446, 447, 448, 449, 450, 451, 452, 453, 454, 455, 456, 457, 458, 459, 460, 461, 462, 463, 464, 465, 466, 467, 468, 469, 470, 471, 472, 473, 474, 475, 476, 477, 478, 479, 480, 481, 482, 483, 484, 485, 486, 487, 488, 489, 490, 491, 492, 493, 494, 495, 496, 497, 498, 499, 500, 501, 502, 503, 504, 505, 506, 507, 508, 509, 510, 511, 512, 513, 514, 515, 516, 517, 518, 519, 520, 521, 522, 523, 524, 525, 526, 527, 528, 529, 530, 531, 532, 533, 534, 535, 536, 537, 538, 539, 540, 541, 542, 543, 544, 545, 546, 547, 548, 549, 550, 551, 552, 553, 554, 555, 556, 557, 558, 559, 560, 561, 562, 563, 564, 565, 566, 567, 568, 569, 570, 571, 572, 573, 574, 575, 576, 577, 578, 579, 580, 581, 582, 583, 584, 585, 586, 587, 588, 589, 590, 591, 592, 593, 594, 595, 596, 597, 598, 599, 600, 601, 602, 603, 604, 605, 606, 607, 608, 609, 610, 611, 612, 613, 614, 615, 616, 617, 618, 619, 620, 621, 622, 623, 624, 625, 626, 627, 628, 629, 630, 631, 632, 633, 634, 635, 636, 637, 638, 639, 640, 641, 642, 643, 644, 645, 646, 647, 648, 649, 650, 651, 652, 653, 654, 655, 656, 657, 658, 659, 660, 661, 662, 663, 664, 665, 666, 667, 668, 669, 670, 671, 672, 673, 674, 675, 676, 677, 678, 679, 680, 681, 682, 683, 684, 685, 686, 687, 688, 689, 690, 691, 692, 693, 694, 695, 696, 697, 698, 699, 700, 701, 702, 703, 704, 705, 706, 707, 708, 709, 710, 711, 712, 713, 714, 715, 716, 717, 718, 719, 720, 721, 722, 723, 724, 725, 726, 727, 728, 729, 730, 731, 732, 733, 734, 735, 736, 737, 738, 739, 740, 741, 742, 743, 744, 745, 746, 747, 748, 749, 750, 751, 752, 753, 754, 755, 756, 757, 758, 759, 760, 761, 762, 763, 764, 765, 766, 767, 768, 769, 770, 771, 772, 773, 774, 775, 776, 777, 778, 779, 780, 781, 782, 783, 784, 785, 786, 787, 788, 789, 790, 791, 792, 793, 794, 795, 796, 797, 798, 799, 800, 801, 802, 803, 804, 805, 806, 807, 808, 809, 810, 811, 812, 813, 814, 815, 816, 817, 818, 819, 820, 821, 822, 823, 824, 825, 826, 827, 828, 829, 830, 831, 832, 833, 834, 835, 836, 837, 838, 839, 840, 841, 842, 843, 844, 845, 846, 847, 848, 849, 850, 851, 852, 853, 854, 855, 856, 857, 858, 859, 860, 861, 862, 863, 864, 865, 866, 867, 868, 869, 870, 871, 872, 873, 874, 875, 876, 877, 878, 879, 880, 881, 882, 883, 884, 885, 886, 887, 888, 889, 890, 891, 892, 893, 894, 895, 896, 897, 898, 899, 900, 901, 902, 903, 904, 905, 906, 907, 908, 909, 910, 911, 912, 913, 914, 915, 916, 917, 918, 919, 920, 921, 922, 923, 924, 925, 926, 927, 928, 929, 930, 931, 932, 933, 934, 935, 936, 937, 938, 939, 940, 941, 942, 943, 944, 945, 946, 947, 948, 949, 950, 951, 952, 953, 954, 955, 956, 957, 958, 959, 960, 961, 962, 963, 964, 965, 966, 967, 968, 969, 970, 971, 972, 973, 974, 975, 976, 977, 978, 979, 980, 981, 982, 983, 984, 985, 986, 987, 988, 989, 990, 991, 992, 993, 994, 995, 996, 997, 998, 999, 1000, 1001, 1002, 1003, 1004, 1005, 1006, 1007, 1008, 1009, 1010, 1011, 1012, 1013, 1014, 1015, 1016, 1017, 1018, 1019, 1020, 1021, 1022, 1023, 1024, 1025, 1026, 1027, 1028, 1029, 1030, 1031, 1032, 1033, 1034, 1035, 1036, 1037, 1038, 1039, 1040, 1041, 1042, 1043, 1044, 1045, 1046, 1047, 1048, 1049, 1050, 1051, 1052, 1053, 1054, 1055, 1056, 1057, 1058, 1059, 1060, 1061, 1062, 1063, 1064, 1065, 1066, 1067, 1068, 1069, 1070, 1071, 1072, 1073, 1074, 1075, 1076, 1077, 1078, 1079, 1080, 1081, 1082, 1083, 1084, 1085, 1086, 1087, 1088, 1089, 1090, 1091, 1092, 1093, 1094, 1095, 1096, 1097, 1098, 1099, 1100, 1101, 1102, 1103, 1104, 1105, 1106, 1107, 1108, 1109, 1110, 1111, 1112, 1113, 1114, 1115, 1116, 1117, 1118, 1119, 1120, 1121, 1122, 1123, 1124, 1125, 1126, 1127, 1128, 1129, 1130, 1131, 1132, 1133, 1134, 1135, 1136, 1137, 1138, 1139, 1140, 1141, 1142, 1143, 1144, 1145, 1146, 1147, 1148, 1149, 1150, 1151, 1152, 1153, 1154, 1155, 1156, 1157, 1158, 1159, 1160, 1161, 1162, 1163, 1164, 1165, 1166, 1167, 1168, 1169, 1170, 1171, 1172, 1173, 1174, 1175, 1176, 1177, 1178, 1179, 1180, 1181, 1182, 1183, 1184, 1185, 1186, 1187, 1188, 1189, 1190, 1191, 1192, 1193, 1194, 1195, 1196, 1197, 1198, 1199, 1200, 1201, 1202, 1203, 1204, 1205, 1206, 1207, 1208, 1209, 1210, 1211, 1212, 1213, 1214, 1215, 1216, 1217, 1218, 1219, 1220, 1221, 1222, 1223, 1224, 1225, 1226, 1227, 1228, 1229, 1230, 1231, 1232, 1233, 1234, 1235, 1236, 1237, 1238, 1239, 1240, 1241, 1242, 1243, 1244, 1245, 1246, 1247, 1248, 1249, 1250, 1251, 1252, 1253, 1254, 1255, 1256, 1257, 1258, 1259, 1260, 1261, 1262, 1263, 1264, 1265, 1266, 1267, 1268, 1269, 1270, 1271, 1272, 1273, 1274, 1275, 1276, 1277, 1278, 1279, 1280, 1281, 1282, 1283, 1284, 1285, 1286, 1287, 1288, 1289, 1290, 1291, 1292, 1293, 1294, 1295, 1296, 1297, 1298, 1299, 1300, 1301, 1302, 1303, 1304, 1305, 1306, 1307, 1308, 1309, 1310, 1311, 1312, 1313, 1314, 1315, 1316, 1317, 1318, 1319, 1320, 1321, 1322, 1323, 1324, 1325, 1326, 1327, 1328, 1329, 1330, 1331, 1332, 1333, 1334, 1335, 1336, 1337, 1338, 1339, 1340, 1341, 1342, 1343, 1344, 1345, 1346, 1347, 1348, 1349, 1350, 1351, 1352, 1353, 1354, 1355, 1356, 1357, 1358, 1359, 1360, 1361, 1362, 1363, 1364, 1365, 1366, 1367, 1368, 1369, 1370, 1371, 1372, 1373, 1374, 1375, 1376, 1377, 1378, 1379, 1380, 1381, 1382, 1383, 1384, 1385, 1386, 1387, 1388, 1389, 1390, 1391, 1392, 1393, 1394, 1395, 1396, 1397, 1398, 1399, 1400, 1401, 1402, 1403, 1404, 1405, 1406, 1407, 1408, 1409, 1410, 1411, 1412, 1413, 1414, 1415, 1416, 1417, 1418, 1419, 1420, 1421, 1422, 1423, 1424, 1425, 1426, 1427, 1428, 1429, 1430, 1431, 1432, 1433, 1434, 1435, 1436, 1437, 1438, 1439, 1440, 1441, 1442, 1443, 1444, 1445, 1446, 1447, 1448, 1449, 1450, 1451, 1452, 1453, 1454, 1455, 1456, 1457, 1458, 1459, 1460, 1461, 1462, 1463, 1464, 1465, 1466, 1467, 1468, 1469, 1470, 1471, 1472, 1473, 1474, 1475, 1476, 1477, 1478, 1479, 1480, 1481, 1482, 1483, 1484, 1485, 1486, 1487, 1488, 1489, 1490, 1491, 1492, 1493, 1494, 1495, 1496, 1497, 1498, 1499, 1500, 1501, 1502, 1503, 1504, 1505, 1506, 1507, 1508, 1509, 1510, 1511, 1512, 1513, 1514, 1515, 1516, 1517, 1518, 1519, 1520, 1521, 1522, 1523, 1524, 1525, 1526, 1527, 1528, 1529, 1530, 1531, 1532, 1533, 1534, 1535, 1536, 1537, 1538, 1539, 1540, 1541, 1542, 1543, 1544, 1545, 1546, 1547, 1548, 1549, 1550, 1551, 1552, 1553, 1554, 1555, 1556, 1557, 1558, 1559, 1560, 1561, 1562, 1563, 1564, 1565, 1566, 1567, 1568, 1569, 1570, 1571, 1572, 1573, 1574, 1575, 1576, 1577, 1578, 1579, 1580, 1581, 1582, 1583, 1584, 1585, 1586, 1587, 1588, 1589, 1590, 1591, 1592, 1593, 1594, 1595, 1596, 1597, 1598, 1599, 1600, 1601, 1602, 1603, 1604, 1605, 1606, 1607, 1608],
      "AcquisitionTime": ["191614.297500", "191615.797500", "191617.297500", "191618.797500", "191620.297500", "191621.797500", "191623.297500", "191624.797500", "191626.297500", "191627.797500", "191629.297500", "191630.797500", "191632.297500", "191633.797500", "191635.297500", "191636.797500", "191638.297500", "191639.797500", "191641.297500", "191642.797500", "191644.297500", "191645.797500", "191647.297500", "191648.797500", "191650.297500", "191651.797500", "191653.297500", "191654.797500", "191656.297500", "191657.797500", "191659.297500", "191700.797500", "191702.297500", "191703.797500", "191705.297500", "191706.797500", "191708.297500", "191709.797500", "191711.297500", "191712.797500", "191714.297500", "191715.797500", "191717.297500", "191718.797500", "191720.297500", "191721.797500", "191723.297500", "191724.797500", "191726.297500", "191727.797500", "191729.297500", "191730.797500", "191732.297500", "191733.797500", "191735.297500", "191736.797500", "191738.297500", "191739.797500", "191741.297500", "191742.797500", "191744.297500", "191745.797500", "191747.297500", "191748.797500", "191750.297500", "191751.797500", "191753.297500", "191754.797500", "191756.297500", "191757.797500", "191759.297500", "191800.797500", "191802.297500", "191803.797500", "191805.297500", "191806.797500", "191808.297500", "191809.797500", "191811.297500", "191812.797500", "191814.297500", "191815.797500", "191817.297500", "191818.797500", "191820.297500", "191821.797500", "191823.297500", "191824.797500", "191826.297500", "191827.797500", "191829.297500", "191830.797500", "191832.297500", "191833.797500", "191835.297500", "191836.797500", "191838.297500", "191839.797500", "191841.297500", "191842.797500", "191844.297500", "191845.797500", "191847.297500", "191848.797500", "191850.297500", "191851.797500", "191853.297500", "191854.797500", "191856.297500", "191857.797500", "191859.297500", "191900.797500", "191902.297500", "191903.797500", "191905.297500", "191906.797500", "191908.297500", "191909.797500", "191911.297500", "191912.797500", "191914.297500", "191915.797500", "191917.297500", "191918.797500", "191920.297500", "191921.797500", "191923.297500", "191924.797500", "191926.297500", "191927.797500", "191929.297500", "191930.797500", "191932.297500", "191933.797500", "191935.297500", "191936.797500", "191938.297500", "191939.797500", "191941.297500", "191942.797500", "191944.297500", "191945.797500", "191947.297500", "191948.797500", "191950.297500", "191951.797500", "191953.297500", "191954.797500", "191956.297500", "191957.797500", "191959.297500", "192000.797500", "192002.297500", "192003.797500", "192005.297500", "192006.797500", "192008.297500", "192009.797500", "192011.297500", "192012.797500", "192014.297500", "192015.797500", "192017.297500", "192018.797500", "192020.297500", "192021.797500", "192023.297500", "192024.797500", "192026.297500", "192027.797500", "192029.297500", "192030.797500", "192032.297500", "192033.797500", "192035.297500", "192036.797500", "192038.297500", "192039.797500", "192041.297500", "192042.797500", "192044.297500", "192045.797500", "192047.297500", "192048.797500", "192050.297500", "192051.797500", "192053.297500", "192054.797500", "192056.297500", "192057.797500", "192059.297500", "192100.797500", "192102.297500", "192103.797500", "192105.297500", "192106.797500", "192108.297500", "192109.797500", "192111.297500", "192112.797500", "192114.297500", "192115.797500", "192117.297500", "192118.797500", "192120.297500", "192121.797500", "192123.297500", "192124.797500", "192126.297500", "192127.797500", "192129.297500", "192130.797500", "192132.297500", "192133.797500", "192135.297500", "192136.797500", "192138.297500", "192139.797500", "192141.297500", "192142.797500", "192144.297500", "192145.797500", "192147.297500", "192148.797500", "192150.297500", "192151.797500", "192153.297500", "192154.797500", "192156.297500", "192157.797500", "192159.297500", "192200.797500", "192202.297500", "192203.797500", "192205.297500", "192206.797500", "192208.297500", "192209.797500", "192211.297500", "192212.797500", "192214.297500", "192215.797500", "192217.297500", "192218.797500", "192220.297500", "192221.797500", "192223.297500", "192224.797500", "192226.297500", "192227.797500", "192229.297500", "192230.797500", "192232.297500", "192233.797500", "192235.297500", "192236.797500", "192238.297500", "192239.797500", "192241.297500", "192242.797500", "192244.297500", "192245.797500", "192247.297500", "192248.797500", "192250.297500", "192251.797500", "192253.297500", "192254.797500", "192256.297500", "192257.797500", "192259.297500", "192300.797500", "192302.297500", "192303.797500", "192305.297500", "192306.797500", "192308.297500", "192309.797500", "192311.297500", "192312.797500", "192314.297500", "192315.797500", "192317.297500", "192318.797500", "192320.297500", "192321.797500", "192323.297500", "192324.797500", "192326.297500", "192327.797500", "192329.297500", "192330.797500", "192332.297500", "192333.797500", "192335.297500", "192336.797500", "192338.297500", "192339.797500", "192341.297500", "192342.797500", "192344.297500", "192345.797500", "192347.297500", "192348.797500", "192350.297500", "192351.797500", "192353.297500", "192354.797500", "192356.297500", "192357.797500", "192359.297500", "192400.797500", "192402.297500", "192403.797500", "192405.297500", "192406.797500", "192408.297500", "192409.797500", "192411.297500", "192412.797500", "192414.297500", "192415.797500", "192417.297500", "192418.797500", "192420.297500", "192421.797500", "192423.297500", "192424.797500", "192426.297500", "192427.797500", "192429.297500", "192430.797500", "192432.297500", "192433.797500", "192435.297500", "192436.797500", "192438.297500", "192439.797500", "192441.297500", "192442.797500", "192444.297500", "192445.797500", "192447.297500", "192448.797500", "192450.297500", "192451.797500", "192453.297500", "192454.797500", "192456.297500", "192457.797500", "192459.297500", "192500.797500", "192502.297500", "192503.797500", "192505.297500", "192506.797500", "192508.297500", "192509.797500", "192511.297500", "192512.797500", "192514.297500", "192515.797500", "192517.297500", "192518.797500", "192520.297500", "192521.797500", "192523.297500", "192524.797500", "192526.297500", "192527.797500", "192529.297500", "192530.797500", "192532.297500", "192533.797500", "192535.297500", "192536.797500", "192538.297500", "192539.797500", "192541.297500", "192542.797500", "192544.297500", "192545.797500", "192547.297500", "192548.797500", "192550.297500", "192551.797500", "192553.297500", "192554.797500", "192556.297500", "192557.797500", "192559.297500", "192600.797500", "192602.297500", "192603.797500", "192605.297500", "192606.797500", "192608.297500", "192609.797500", "192611.297500", "192612.797500", "192614.297500", "192615.797500", "192617.297500", "192618.797500", "192620.297500", "192621.797500", "192623.297500", "192624.797500", "192626.297500", "192627.797500", "192629.297500", "192630.797500", "192632.297500", "192633.797500", "192635.297500", "192636.797500", "192638.297500", "192639.797500", "192641.297500", "192642.797500", "192644.297500", "192645.797500", "192647.297500", "192648.797500", "192650.297500", "192651.797500", "192653.297500", "192654.797500", "192656.297500", "192657.797500", "192659.297500", "192700.797500", "192702.297500", "192703.797500", "192705.297500", "192706.797500", "192708.297500", "192709.797500", "192711.297500", "192712.797500", "192714.297500", "192715.797500", "192717.297500", "192718.797500", "192720.297500", "192721.797500", "192723.297500", "192724.797500", "192726.297500", "192727.797500", "192729.297500", "192730.797500", "192732.297500", "192733.797500", "192735.297500", "192736.797500", "192738.297500", "192739.797500", "192741.297500", "192742.797500", "192744.297500", "192745.797500", "192747.297500", "192748.797500", "192750.297500", "192751.797500", "192753.297500", "192754.797500", "192756.297500", "192757.797500", "192759.297500", "192800.797500", "192802.297500", "192803.797500", "192805.297500", "192806.797500", "192808.297500", "192809.797500", "192811.297500", "192812.797500", "192814.297500", "192815.797500", "192817.297500", "192818.797500", "192820.297500", "192821.797500", "192823.297500", "192824.797500", "192826.297500", "192827.797500", "192829.297500", "192830.797500", "192832.297500", "192833.797500", "192835.297500", "192836.797500", "192838.297500", "192839.797500", "192841.297500", "192842.797500", "192844.297500", "192845.797500", "192847.297500", "192848.797500", "192850.297500", "192851.797500", "192853.297500", "192854.797500", "192856.297500", "192857.797500", "192859.297500", "192900.797500", "192902.297500", "192903.797500", "192905.297500", "192906.797500", "192908.297500", "192909.797500", "192911.297500", "192912.797500", "192914.297500", "192915.797500", "192917.297500", "192918.797500", "192920.297500", "192921.797500", "192923.297500", "192924.797500", "192926.297500", "192927.797500", "192929.297500", "192930.797500", "192932.297500", "192933.797500", "192935.297500", "192936.797500", "192938.297500", "192939.797500", "192941.297500", "192942.797500", "192944.297500", "192945.797500", "192947.297500", "192948.797500", "192950.297500", "192951.797500", "192953.297500", "192954.797500", "192956.297500", "192957.797500", "192959.297500", "193000.797500", "193002.297500", "193003.797500", "193005.297500", "193006.797500", "193008.297500", "193009.797500", "193011.297500", "193012.797500", "193014.297500", "193015.797500", "193017.297500", "193018.797500", "193020.297500", "193021.797500", "193023.297500", "193024.797500", "193026.297500", "193027.797500", "193029.297500", "193030.797500", "193032.297500", "193033.797500", "193035.297500", "193036.797500", "193038.297500", "193039.797500", "193041.297500", "193042.797500", "193044.297500", "193045.797500", "193047.297500", "193048.797500", "193050.297500", "193051.797500", "193053.297500", "193054.797500", "193056.297500", "193057.797500", "193059.297500", "193100.797500", "193102.297500", "193103.797500", "193105.297500", "193106.797500", "193108.297500", "193109.797500", "193111.297500", "193112.797500", "193114.297500", "193115.797500", "193117.297500", "193118.797500", "193120.297500", "193121.797500", "193123.297500", "193124.797500", "193126.297500", "193127.797500", "193129.297500", "193130.797500", "193132.297500", "193133.797500", "193135.297500", "193136.797500", "193138.297500", "193139.797500", "193141.297500", "193142.797500", "193144.297500", "193145.797500", "193147.297500", "193148.797500", "193150.297500", "193151.797500", "193153.297500", "193154.797500", "193156.297500", "193157.797500", "193159.297500", "193200.797500", "193202.297500", "193203.797500", "193205.297500", "193206.797500", "193208.297500", "193209.797500", "193211.297500", "193212.797500", "193214.297500", "193215.797500", "193217.297500", "193218.797500", "193220.297500", "193221.797500", "193223.297500", "193224.797500", "193226.297500", "193227.797500", "193229.297500", "193230.797500", "193232.297500", "193233.797500", "193235.297500", "193236.797500", "193238.297500", "193239.797500", "193241.297500", "193242.797500", "193244.297500", "193245.797500", "193247.297500", "193248.797500", "193250.297500", "193251.797500", "193253.297500", "193254.797500", "193256.297500", "193257.797500", "193259.297500", "193300.797500", "193302.297500", "193303.797500", "193305.297500", "193306.797500", "193308.297500", "193309.797500", "193311.297500", "193312.797500", "193314.297500", "193315.797500", "193317.297500", "193318.797500", "193320.297500", "193321.797500", "193323.297500", "193324.797500", "193326.297500", "193327.797500", "193329.297500", "193330.797500", "193332.297500", "193333.797500", "193335.297500", "193336.797500", "193338.297500", "193339.797500", "193341.297500", "193342.797500", "193344.297500", "193345.797500", "193347.297500", "193348.797500", "193350.297500", "193351.797500", "193353.297500", "193354.797500", "193356.297500", "193357.797500", "193359.297500", "193400.797500", "193402.297500", "193403.797500", "193405.297500", "193406.797500", "193408.297500", "193409.797500", "193411.297500", "193412.797500", "193414.297500", "193415.797500", "193417.297500", "193418.797500", "193420.297500", "193421.797500", "193423.297500", "193424.797500", "193426.297500", "193427.797500", "193429.297500", "193430.797500", "193432.297500", "193433.797500", "193435.297500", "193436.797500", "193438.297500", "193439.797500", "193441.297500", "193442.797500", "193444.297500", "193445.797500", "193447.297500", "193448.797500", "193450.297500", "193451.797500", "193453.297500", "193454.797500", "193456.297500", "193457.797500", "193459.297500", "193500.797500", "193502.297500", "193503.797500", "193505.297500", "193506.797500", "193508.297500", "193509.797500", "193511.297500", "193512.797500", "193514.297500", "193515.797500", "193517.297500", "193518.797500", "193520.297500", "193521.797500", "193523.297500", "193524.797500", "193526.297500", "193527.797500", "193529.297500", "193530.797500", "193532.297500", "193533.797500", "193535.297500", "193536.797500", "193538.297500", "193539.797500", "193541.297500", "193542.797500", "193544.297500", "193545.797500", "193547.297500", "193548.797500", "193550.297500", "193551.797500", "193553.297500", "193554.797500", "193556.297500", "193557.797500", "193559.297500", "193600.797500", "193602.297500", "193603.797500", "193605.297500", "193606.797500", "193608.297500", "193609.797500", "193611.297500", "193612.797500", "193614.297500", "193615.797500", "193617.297500", "193618.797500", "193620.297500", "193621.797500", "193623.297500", "193624.797500", "193626.297500", "193627.797500", "193629.297500", "193630.797500", "193632.297500", "193633.797500", "193635.297500", "193636.797500", "193638.297500", "193639.797500", "193641.297500", "193642.797500", "193644.297500", "193645.797500", "193647.297500", "193648.797500", "193650.297500", "193651.797500", "193653.297500", "193654.797500", "193656.297500", "193657.797500", "193659.297500", "193700.797500", "193702.297500", "193703.797500", "193705.297500", "193706.797500", "193708.297500", "193709.797500", "193711.297500", "193712.797500", "193714.297500", "193715.797500", "193717.297500", "193718.797500", "193720.297500", "193721.797500", "193723.297500", "193724.797500", "193726.297500", "193727.797500", "193729.297500", "193730.797500", "193732.297500", "193733.797500", "193735.297500", "193736.797500", "193738.297500", "193739.797500", "193741.297500", "193742.797500", "193744.297500", "193745.797500", "193747.297500", "193748.797500", "193750.297500", "193751.797500", "193753.297500", "193754.797500", "193756.297500", "193757.797500", "193759.297500", "193800.797500", "193802.297500", "193803.797500", "193805.297500", "193806.797500", "193808.297500", "193809.797500", "193811.297500", "193812.797500", "193814.297500", "193815.797500", "193817.297500", "193818.797500", "193820.297500", "193821.797500", "193823.297500", "193824.797500", "193826.297500", "193827.797500", "193829.297500", "193830.797500", "193832.297500", "193833.797500", "193835.297500", "193836.797500", "193838.297500", "193839.797500", "193841.297500", "193842.797500", "193844.297500", "193845.797500", "193847.297500", "193848.797500", "193850.297500", "193851.797500", "193853.297500", "193854.797500", "193856.297500", "193857.797500", "193859.297500", "193900.797500", "193902.297500", "193903.797500", "193905.297500", "193906.797500", "193908.297500", "193909.797500", "193911.297500", "193912.797500", "193914.297500", "193915.797500", "193917.297500", "193918.797500", "193920.297500", "193921.797500", "193923.297500", "193924.797500", "193926.297500", "193927.797500",