{
  "AcquisitionMatrixPE": 106,
  "AcquisitionNumber": 1,
  "AcquisitionTime": "11:28:2.030000",
  "BandwidthPerPixelPhaseEncode": 13.477,
  "BaseResolution": 106,
  "BodyPartExamined": "BRAIN",
  "CoilCombinationMethod": "Sum of Squares",
  "ConsistencyInfo": "N4_VE11C_LATEST_20160120",
  "ConversionSoftware": "dcm2niix",
  "ConversionSoftwareVersion": "v1.0.20220720",
  "DerivedVendorReportedEchoSpacing": 0.000700005,
  "DeviceSerialNumber": "166108",
  "DwellTime": 2.6e-06,
  "EchoTime": 0.03,
  "EchoTrainLength": 80,
  "EffectiveEchoSpacing": 0.000700005,
  "FlipAngle": 62,
  "HeudiconvVersion": "1.3.0",
  "ImageComments": "Unaliased MB4/PE3/LB",
  "ImageOrientationPatientDICOM": [1, 0, 0, 0, 0.96363, -0.267238],
  "ImageOrientationText": "Tra>Cor(-15.5)",
  "ImageType": [
    "ORIGINAL",
    "PRIMARY",
    "M",
    "MB",
    "ND",
    "MOSAIC"
],
  "ImagingFrequency": 123.244,
  "InPlanePhaseEncodingDirectionDICOM": "COL",
  "InstitutionAddress": "Bedford Way 26,London,London,GB,WC1H 0AP",
  "InstitutionName": "University College",
  "InstitutionalDepartmentName": "Department",
  "MRAcquisitionType": "2D",
  "MagneticFieldStrength": 3,
  "Manufacturer": "Siemens",
  "ManufacturersModelName": "Prisma",
  "MatrixCoilMode": "SENSE",
  "Modality": "MR",
  "MultibandAccelerationFactor": 4,
  "NonlinearGradientCorrection": false,
  "PartialFourier": 0.75,
  "PatientPosition": "HFS",
  "PercentPhaseFOV": 100,
  "PercentSampling": 100,
  "PhaseEncodingDirection": "j-",
  "PhaseEncodingSteps": 80,
  "PhaseResolution": 1,
  "PixelBandwidth": 1815,
  "ProcedureStepDescription": "Egor^MovieProject2",
  "ProtocolName": "func-bold_task-tono_run-02",
  "PulseSequenceDetails": "%CustomerSeq%\\cmrr_mbep2d_bold",
  "ReceiveCoilActiveElements": "HEA;HEP",
  "ReceiveCoilName": "Head_32",
  "ReconMatrixPE": 106,
  "RepetitionTime": 1,
  "SAR": 0.04473,
  "ScanOptions": "PFP\\FS\\EXT",
  "ScanningSequence": "EP",
  "SequenceName": "epfid2d1_106",
  "SequenceVariant": "SK\\SS",
  "SeriesDescription": "func-bold_task-tono_run-02",
  "SeriesNumber": 20,
  "ShimSetting": [-1523, 615, 7369, 179, -163, 107, 238, -61],
  "SliceThickness": 2,
  "SliceTiming": [0, 0.5325, 0.0875, 0.6225, 0.1775, 0.7125, 0.265, 0.8, 0.355, 0.89, 0.445, 0, 0.5325, 0.0875, 0.6225, 0.1775, 0.7125, 0.265, 0.8, 0.355, 0.89, 0.445, 0, 0.5325, 0.0875, 0.6225, 0.1775, 0.7125, 0.265, 0.8, 0.355, 0.89, 0.445, 0, 0.5325, 0.0875, 0.6225, 0.1775, 0.7125, 0.265, 0.8, 0.355, 0.89, 0.445],
  "SoftwareVersions": "syngo MR E11",
  "SpacingBetweenSlices": 2,
  "StationName": "AWP166108",
  "TaskName": "tonotopy",
  "TotalReadoutTime": 0.0735005,
  "TxRefAmp": 263.919,
  "WipMemBlock": "e71287c5-aadb-4f18-b4f2-3de7f52279e4||Sequence: R016 ve11c/master r/e634e98; Dec 19 2017 11:00:25 by eja",
  "dcmmeta_affine": [
    [-2.0, 0.0, 0.0, 106.0],
    [0.0, 1.9272608757019043, -0.5344767570495605, -73.36749267578125],
    [0.0, 0.5344767570495605, 1.9272609949111938, -54.096954345703125],
    [0.0, 0.0, 0.0, 1.0]
],
  "dcmmeta_reorient_transform": [
    [0.0, -1.0, 0.0, 105.0],
    [1.0, 0.0, 0.0, 0.0],
    [0.0, 0.0, 1.0, 0.0],
    [0.0, 0.0, 0.0, 1.0]
],
  "dcmmeta_shape": [106, 106, 44, 264],
  "dcmmeta_slice_dim": 2,
  "dcmmeta_version": 0.6,
  "global": {
    "const": {
      "AcquisitionMatrix": [106, 0, 0, 106],
      "AngioFlag": "N",
      "BitsAllocated": 16,
      "BitsStored": 16,
      "BodyPartExamined": "BRAIN",
      "CardiacNumberOfImages": 1,
      "Columns": 742,
      "EchoNumbers": 1,
      "EchoTime": 30.0,
      "EchoTrainLength": 80,
      "FlipAngle": 62.0,
      "HighBit": 15,
      "ImageOrientationPatient": [1.0, 0.0, 0.0, 0.0, 0.9636304558474, -0.2672383665631],
      "ImagePositionPatient": [-742.0, -741.86387491419, 171.98670501073],
      "ImageType": [
        "ORIGINAL",
        "PRIMARY",
        "M",
        "MB",
        "ND",
        "MOSAIC"
],
      "ImagedNucleus": "1H",
      "ImagingFrequency": 123.243637,
      "InPlanePhaseEncodingDirection": "COL",
      "MRAcquisitionType": "2D",
      "MagneticFieldStrength": 3.0,
      "Manufacturer": "SIEMENS",
      "ManufacturerModelName": "Prisma",
      "Modality": "MR",
      "NominalInterval": 0,
      "NumberOfAverages": 1.0,
      "NumberOfPhaseEncodingSteps": 80,
      "PercentPhaseFieldOfView": 100.0,
      "PercentSampling": 100.0,
      "PerformedProcedureStepStartTime": "101421.254000",
      "PhotometricInterpretation": "MONOCHROME2",
      "PixelBandwidth": 1815.0,
      "PixelRepresentation": 0,
      "PixelSpacing": [2.0, 2.0],
      "ProtocolName": "func-bold_task-tono_run-02",
      "RepetitionTime": 1000.0,
      "Rows": 742,
      "SAR": 0.04473004884035,
      "SamplesPerPixel": 1,
      "ScanOptions": [
        "PFP",
        "FS",
        "EXT"
],
      "ScanningSequence": "EP",
      "SequenceName": "epfid2d1_106",
      "SequenceVariant": [
        "SK",
        "SS"
],
      "SeriesDescription": "func-bold_task-tono_run-02",
      "SeriesNumber": 20,
      "SeriesTime": "112828.947000",
      "SliceLocation": -32.522863195093,
      "SliceThickness": 2.0,
      "SmallestImagePixelValue": 0,
      "SoftwareVersions": "syngo MR E11",
      "SpacingBetweenSlices": 2.0000000479926,
      "SpecificCharacterSet": "ISO_IR 100",
      "StudyID": "1",
      "StudyTime": "101421.196000",
      "TransmitCoilName": "Body",
      "VariableFlipAngleFlag": "N",
      "WindowCenterWidthExplanation": "Algo1",
      "dBdt": 0.0},
    "slices": {}
  },
  "time": {
    "samples": {
      "AcquisitionNumber": [1, 2, 3, 4, 5, 6, 7, 8, 9, 10, 11, 12, 13, 14, 15, 16, 17, 18, 19, 20, 21, 22, 23, 24, 25, 26, 27, 28, 29, 30, 31, 32, 33, 34, 35, 36, 37, 38, 39, 40, 41, 42, 43, 44, 45, 46, 47, 48, 49, 50, 51, 52, 53, 54, 55, 56, 57, 58, 59, 60, 61, 62, 63, 64, 65, 66, 67, 68, 69, 70, 71, 72, 73, 74, 75, 76, 77, 78, 79, 80, 81, 82, 83, 84, 85, 86, 87, 88, 89, 90, 91, 92, 93, 94, 95, 96, 97, 98, 99, 100, 101, 102, 103, 104, 105, 106, 107, 108, 109, 110, 111, 112, 113, 114, 115, 116, 117, 118, 119, 120, 121, 122, 123, 124, 125, 126, 127, 128, 129, 130, 131, 132, 133, 134, 135, 136, 137, 138, 139, 140, 141, 142, 143, 144, 145, 146, 147, 148, 149, 150, 151, 152, 153, 154, 155, 156, 157, 158, 159, 160, 161, 162, 163, 164, 165, 166, 167, 168, 169, 170, 171, 172, 173, 174, 175, 176, 177, 178, 179, 180, 181, 182, 183, 184, 185, 186, 187, 188, 189, 190, 191, 192, 193, 194, 195, 196, 197, 198, 199, 200, 201, 202, 203, 204, 205, 206, 207, 208, 209, 210, 211, 212, 213, 214, 215, 216, 217, 218, 219, 220, 221, 222, 223, 224, 225, 226, 227, 228, 229, 230, 231, 232, 233, 234, 235, 236, 237, 238, 239, 240, 241, 242, 243, 244, 245, 246, 247, 248, 249, 250, 251, 252, 253, 254, 255, 256, 257, 258, 259, 260, 261, 262, 263, 264],
      "AcquisitionTime": ["112802.030000", "112803.030000", "112804.030000", "112805.030000", "112806.030000", "112807.030000", "112808.030000", "112809.030000", "112810.030000", "112811.030000", "112812.030000", "112813.030000", "112814.030000", "112815.030000", "112816.030000", "112817.030000", "112818.030000", "112819.030000", "112820.030000", "112821.030000", "112822.030000", "112823.030000", "112824.030000", "112825.030000", "112826.030000", "112827.030000", "112828.030000", "112829.030000", "112830.030000", "112831.030000", "112832.030000", "112833.030000", "112834.030000", "112835.030000", "112836.030000", "112837.030000", "112838.030000", "112839.030000", "112840.030000", "112841.030000", "112842.030000", "112843.030000", "112844.030000", "112845.030000", "112846.030000", "112847.030000", "112848.030000", "112849.030000", "112850.030000", "112851.030000", "112852.030000", "112853.030000", "112854.030000", "112855.030000", "112856.030000", "112857.030000", "112858.030000", "112859.030000", "112900.030000", "112901.030000", "112902.030000", "112903.030000", "112904.030000", "112905.030000", "112906.030000", "112907.030000", "112908.030000", "112909.030000", "112910.030000", "112911.030000", "112912.030000", "112913.030000", "112914.030000", "112915.030000", "112916.030000", "112917.030000", "112918.030000", "112919.030000", "112920.030000", "112921.030000", "112922.030000", "112923.030000", "112924.030000", "112925.030000", "112926.030000", "112927.030000", "112928.030000", "112929.030000", "112930.030000", "112931.030000", "112932.030000", "112933.030000", "112934.030000", "112935.030000", "112936.030000", "112937.030000", "112938.030000", "112939.030000", "112940.030000", "112941.030000", "112942.030000", "112943.030000", "112944.030000", "112945.030000", "112946.030000", "112947.030000", "112948.030000", "112949.030000", "112950.030000", "112951.030000", "112952.030000", "112953.030000", "112954.030000", "112955.030000", "112956.030000", "112957.030000", "112958.030000", "112959.030000", "113000.030000", "113001.030000", "113002.030000", "113003.030000", "113004.030000", "113005.030000", "113006.030000", "113007.030000", "113008.030000", "113009.030000", "113010.030000", "113011.030000", "113012.030000", "113013.030000", "113014.030000", "113015.030000", "113016.030000", "113017.030000", "113018.030000", "113019.030000", "113020.030000", "113021.030000", "113022.030000", "113023.030000", "113024.030000", "113025.030000", "113026.030000", "113027.030000", "113028.030000", "113029.030000", "113030.030000", "113031.030000", "113032.030000", "113033.030000", "113034.030000", "113035.030000", "113036.030000", "113037.030000", "113038.030000", "113039.030000", "113040.030000", "113041.030000", "113042.030000", "113043.030000", "113044.030000", "113045.030000", "113046.030000", "113047.030000", "113048.030000", "113049.030000", "113050.030000", "113051.030000", "113052.030000", "113053.030000", "113054.030000", "113055.030000", "113056.030000", "113057.030000", "113058.030000", "113059.030000", "113100.030000", "113101.030000", "113102.030000", "113103.030000", "113104.030000", "113105.030000", "113106.030000", "113107.030000", "113108.030000", "113109.030000", "113110.030000", "113111.030000", "113112.030000", "113113.030000", "113114.030000", "113115.030000", "113116.030000", "113117.030000", "113118.030000", "113119.030000", "113120.030000", "113121.030000", "113122.030000", "113123.030000", "113124.030000", "113125.030000", "113126.030000", "113127.030000", "113128.030000", "113129.030000", "113130.030000", "113131.030000", "113132.030000", "113133.030000", "113134.030000", "113135.030000", "113136.030000", "113137.030000", "113138.030000", "113139.030000", "113140.030000", "113141.030000", "113142.030000", "113143.030000", "113144.030000", "113145.030000", "113146.030000", "113147.030000", "113148.030000", "113149.030000", "113150.030000", "113151.030000", "113152.030000", "113153.030000", "113154.030000", "113155.030000", "113156.030000", "113157.030000", "113158.030000", "113159.030000", "113200.030000", "113201.030000", "113202.030000", "113203.030000", "113204.030000", "113205.030000", "113206.030000", "113207.030000", "113208.030000", "113209.030000", "113210.030000", "113211.030000", "113212.030000", "113213.030000", "113214.030000", "113215.030000", "113216.030000", "113217.030000", "113218.030000", "113219.030000", "113220.030000", "113221.030000", "113222.030000", "113223.030000", "113224.030000", "113225.030000"],
      "ContentTime": ["112828.950000", "112828.953000", "112828.955000", "112828.958000", "112828.960000", "112828.963000", "112828.965000", "112828.968000", "112828.981000", "112828.983000", "112828.986000", "112828.988000", "112829.001000", "112829.004000", "112829.006000", "112829.009000", "112829.011000", "112829.014000", "112829.016000", "112829.019000", "112829.026000", "112829.028000", "112829.031000", "112829.033000", "112829.036000", "112829.038000", "112848.921000", "112848.924000", "112848.926000", "112848.929000", "112848.932000", "112848.934000", "112848.937000", "112848.939000", "112848.942000", "112848.944000", "112848.947000", "112848.949000", "112848.952000", "112848.960000", "112848.962000", "112848.965000", "112848.967000", "112848.970000", "112848.972000", "112848.975000", "112908.922000", "112908.925000", "112908.934000", "112908.937000", "112908.939000", "112908.942000", "112908.944000", "112908.947000", "112908.949000", "112908.952000", "112908.954000", "112908.957000", "112908.959000", "112908.961000", "112908.964000", "112908.966000", "112908.969000", "112908.971000", "112908.974000", "112908.976000", "112928.922000", "112928.925000", "112928.928000", "112928.930000", "112928.933000", "112928.935000", "112928.937000", "112928.940000", "112928.942000", "112928.945000", "112928.947000", "112928.950000", "112928.952000", "112928.955000", "112928.957000", "112928.960000", "112928.962000", "112928.965000", "112928.967000", "112928.970000", "112948.922000", "112948.925000", "112948.927000", "112948.931000", "112948.933000", "112948.936000", "112948.938000", "112948.941000", "112948.943000", "112948.946000", "112948.948000", "112948.951000", "112948.953000", "112948.955000", "112948.958000", "112948.960000", "112948.963000", "112948.965000", "112948.968000", "112948.970000", "113008.921000", "113008.924000", "113008.927000", "113008.930000", "113008.932000", "113008.935000", "113008.937000", "113008.940000", "113008.942000", "113008.944000", "113008.947000", "113008.950000", "113008.952000", "113008.955000", "113008.957000", "113008.960000", "113008.962000", "113008.964000", "113008.967000", "113008.969000", "113028.921000", "113028.924000", "113028.926000", "113028.929000", "113028.932000", "113028.934000", "113028.937000", "113028.940000", "113028.942000", "113028.945000", "113028.947000", "113028.950000", "113028.952000", "113028.955000", "113028.957000", "113028.959000", "113028.962000", "113028.964000", "113028.967000", "113028.969000", "113048.921000", "113048.924000", "113048.926000", "113048.930000", "113048.932000", "113048.935000", "113048.937000", "113048.940000", "113048.942000", "113048.944000", "113048.947000", "113048.950000", "113048.952000", "113048.955000", "113048.957000", "113048.960000", "113048.962000", "113048.965000", "113048.967000", "113048.970000", "113108.921000", "113108.924000", "113108.926000", "113108.930000", "113108.932000", "113108.934000", "113108.937000", "113108.939000", "113108.942000", "113108.944000", "113108.947000", "113108.949000", "113108.952000", "113108.954000", "113108.957000", "113108.959000", "113108.962000", "113108.964000", "113108.967000", "113108.969000", "113128.922000", "113128.925000", "113128.927000", "113128.930000", "113128.933000", "113128.935000", "113128.938000", "113128.940000", "113128.943000", "113128.945000", "113128.948000", "113128.950000", "113128.953000", "113128.955000", "113128.958000", "113128.960000", "113128.963000", "113128.965000", "113128.968000", "113128.970000", "113148.922000", "113148.925000", "113148.927000", "113148.930000", "113148.933000", "113148.935000", "113148.938000", "113148.940000", "113148.943000", "113148.945000", "113148.947000", "113148.950000", "113148.952000", "113148.955000", "113148.957000", "113148.967000", "113148.970000", "113148.972000", "113148.975000", "113148.977000", "113208.922000", "113208.925000", "113208.927000", "113208.930000", "113208.933000", "113208.935000", "113208.938000", "113208.940000", "113208.943000", "113208.945000", "113208.948000", "113208.950000", "113208.953000", "113208.955000", "113208.957000", "113208.960000", "113208.962000", "113208.965000", "113208.967000", "113208.970000", "113226.797000", "113226.972000", "113226.974000", "113226.977000", "113226.979000", "113226.982000", "113226.984000", "113226.987000", "113226.990000", "113226.992000", "113226.995000", "113226.997000", "113227.001000", "113227.004000", "113227.006000", "113227.009000", "113227.012000", "113227.014000"],
      "InstanceCreationTime": ["112828.950000", "112828.953000", "112828.955000", "112828.958000", "112828.960000", "112828.963000", "112828.965000", "112828.968000", "112828.981000", "112828.983000", "112828.986000", "112828.988000", "112829.001000", "112829.004000", "112829.006000", "112829.009000", "112829.011000", "112829.014000", "112829.016000", "112829.019000", "112829.026000", "112829.028000", "112829.031000", "112829.033000", "112829.036000", "112829.038000", "112848.921000", "112848.924000", "112848.926000", "112848.929000", "112848.932000", "112848.934000", "112848.937000", "112848.939000", "112848.942000", "112848.944000", "112848.947000", "112848.949000", "112848.952000", "112848.960000", "112848.962000", "112848.965000", "112848.967000", "112848.970000", "112848.972000", "112848.975000", "112908.922000", "112908.925000", "112908.934000", "112908.937000", "112908.939000", "112908.942000", "112908.944000", "112908.947000", "112908.949000", "112908.952000", "112908.954000", "112908.957000", "112908.959000", "112908.961000", "112908.964000", "112908.966000", "112908.969000", "112908.971000", "112908.974000", "112908.976000", "112928.922000", "112928.925000", "112928.928000", "112928.930000", "112928.933000", "112928.935000", "112928.937000", "112928.940000", "112928.942000", "112928.945000", "112928.947000", "112928.950000", "112928.952000", "112928.955000", "112928.957000", "112928.960000", "112928.962000", "112928.965000", "112928.967000", "112928.970000", "112948.922000", "112948.925000", "112948.927000", "112948.931000", "112948.933000", "112948.936000", "112948.938000", "112948.941000", "112948.943000", "112948.946000", "112948.948000", "112948.951000", "112948.953000", "112948.955000", "112948.958000", "112948.960000", "112948.963000", "112948.965000", "112948.968000", "112948.970000", "113008.921000", "113008.924000", "113008.927000", "113008.930000", "113008.932000", "113008.935000", "113008.937000", "113008.940000", "113008.942000", "113008.944000", "113008.947000", "113008.950000", "113008.952000", "113008.955000", "113008.957000", "113008.960000", "113008.962000", "113008.964000", "113008.967000", "113008.969000", "113028.921000", "113028.924000", "113028.926000", "113028.929000", "113028.932000", "113028.934000", "113028.937000", "113028.940000", "113028.942000", "113028.945000", "113028.947000", "113028.950000", "113028.952000", "113028.955000", "113028.957000", "113028.959000", "113028.962000", "113028.964000", "113028.967000", "113028.969000", "113048.921000", "113048.924000", "113048.926000", "113048.930000", "113048.932000", "113048.935000", "113048.937000", "113048.940000", "113048.942000", "113048.944000", "113048.947000", "113048.950000", "113048.952000", "113048.955000", "113048.957000", "113048.960000", "113048.962000", "113048.965000", "113048.967000", "113048.970000", "113108.921000", "113108.924000", "113108.926000", "113108.930000", "113108.932000", "113108.934000", "113108.937000", "113108.939000", "113108.942000", "113108.944000", "113108.947000", "113108.949000", "113108.952000", "113108.954000", "113108.957000", "113108.959000", "113108.962000", "113108.964000", "113108.967000", "113108.969000", "113128.922000", "113128.925000", "113128.927000", "113128.930000", "113128.933000", "113128.935000", "113128.938000", "113128.940000", "113128.943000", "113128.945000", "113128.948000", "113128.950000", "113128.953000", "113128.955000", "113128.958000", "113128.960000", "113128.963000", "113128.965000", "113128.968000", "113128.970000", "113148.922000", "113148.925000", "113148.927000", "113148.930000", "113148.933000", "113148.935000", "113148.938000", "113148.940000", "113148.943000", "113148.945000", "113148.947000", "113148.950000", "113148.952000", "113148.955000", "113148.957000", "113148.967000", "113148.970000", "113148.972000", "113148.975000", "113148.977000", "113208.922000", "113208.925000", "113208.927000", "113208.930000", "113208.933000", "113208.935000", "113208.938000", "113208.940000", "113208.943000", "113208.945000", "113208.948000", "113208.950000", "113208.953000", "113208.955000", "113208.957000", "113208.960000", "113208.962000", "113208.965000", "113208.967000", "113208.970000", "113226.797000", "113226.972000", "113226.974000", "113226.977000", "113226.979000", "113226.982000", "113226.984000", "113226.987000", "113226.990000", "113226.992000", "113226.995000", "113226.997000", "113227.001000", "113227.004000", "113227.006000", "113227.009000", "113227.012000", "113227.014000"],
      "InstanceNumber": [1, 2, 3, 4, 5, 6, 7, 8, 9, 10, 11, 12, 13, 14, 15, 16, 17, 18, 19, 20, 21, 22, 23, 24, 25, 26, 27, 28, 29, 30, 31, 32, 33, 34, 35, 36, 37, 38, 39, 40, 41, 42, 43, 44, 45, 46, 47, 48, 49, 50, 51, 52, 53, 54, 55, 56, 57, 58, 59, 60, 61, 62, 63, 64, 65, 66, 67, 68, 69, 70, 71, 72, 73, 74, 75, 76, 77, 78, 79, 80, 81, 82, 83, 84, 85, 86, 87, 88, 89, 90, 91, 92, 93, 94, 95, 96, 97, 98, 99, 100, 101, 102, 103, 104, 105, 106, 107, 108, 109, 110, 111, 112, 113, 114, 115, 116, 117, 118, 119, 120, 121, 122, 123, 124, 125, 126, 127, 128, 129, 130, 131, 132, 133, 134, 135, 136, 137, 138, 139, 140, 141, 142, 143, 144, 145, 146, 147, 148, 149, 150, 151, 152, 153, 154, 155, 156, 157, 158, 159, 160, 161, 162, 163, 164, 165, 166, 167, 168, 169, 170, 171, 172, 173, 174, 175, 176, 177, 178, 179, 180, 181, 182, 183, 184, 185, 186, 187, 188, 189, 190, 191, 192, 193, 194, 195, 196, 197, 198, 199, 200, 201, 202, 203, 204, 205, 206, 207, 208, 209, 210, 211, 212, 213, 214, 215, 216, 217, 218, 219, 220, 221, 222, 223, 224, 225, 226, 227, 228, 229, 230, 231, 232, 233, 234, 235, 236, 237, 238, 239, 240, 241, 242, 243, 244, 245, 246, 247, 248, 249, 250, 251, 252, 253, 254, 255, 256, 257, 258, 259, 260, 261, 262, 263, 264],
      "LargestImagePixelValue": [10744, 10652, 10595, 10442, 10493, 10354, 10374, 10396, 10177, 10234, 10268, 10230, 10419, 10383, 10067, 10232, 10273, 10299, 10256, 10200, 9862, 9973, 10384, 9962, 10107, 10399, 10077, 10092, 10397, 10143, 10156, 10448, 10144, 10080, 10363, 10234, 10086, 10124, 10135, 9883, 9957, 9975, 9873, 10086, 9966, 9595, 10096, 9747, 9483, 9880, 9693, 9691, 10014, 9986, 9776, 9903, 10021, 9855, 9819, 10071, 9476, 9410, 9784, 9376, 9409, 9723, 9806, 9832, 9911, 9578, 9438, 9649, 9649, 9420, 9649, 9914, 9982, 9766, 9844, 9905, 9733, 9692, 9343, 9496, 9562, 9476, 9347, 9403, 9580, 9506, 9628, 9776, 9882, 9948, 9982, 9922, 9898, 9430, 9523, 9429, 9410, 9492, 9512, 9374, 9409, 9530, 9874, 9833, 9686, 9683, 9529, 9596, 9577, 9936, 9746, 9928, 9732, 9671, 9756, 9990, 9814, 10344, 9736, 9563, 9527, 10143, 10035, 9643, 9745, 10303, 9729, 10222, 9479, 9657, 9526, 9684, 10073, 9633, 9713, 9436, 9483, 9483, 9495, 9539, 10136, 9830, 9722, 9522, 9722, 9589, 9814, 9431, 9434, 9436, 9476, 9582, 9615, 9606, 9429, 9493, 9406, 9603, 9474, 9323, 9356, 9460, 9183, 9473, 9636, 9879, 9890, 9968, 9639, 9457, 9374, 13810, 9896, 10312, 10405, 9816, 9680, 9602, 9718, 9622, 9530, 9374, 9490, 9725, 9463, 9217, 9410, 9511, 9627, 9588, 9690, 9772, 9857, 9916, 9773, 9544, 9440, 9305, 9469, 9424, 9325, 9516, 9370, 9297, 9458, 9412, 9389, 9632, 9443, 9443, 9480, 9645, 9667, 9708, 9779, 9777, 9848, 9744, 9665, 9876, 9806, 9780, 9979, 9966, 9849, 9948, 9786, 9771, 9643, 9574, 9513, 9554, 9656, 9830, 9726, 9695, 9782, 9555, 9608, 9459, 9355, 9232, 9276, 9249, 9811, 9501, 9557, 9505, 9386, 9596, 9882, 10328, 10415, 9688, 9770, 9672, 9716, 9684, 9701, 9582],
      "TriggerTime": [8100.0, 9100.0, 10100.0, 11100.0, 12100.0, 13100.0, 14100.0, 15100.0, 16100.0, 17100.0, 18100.0, 19100.0, 20100.0, 21100.0, 22100.0, 23100.0, 24100.0, 25100.0, 26100.0, 27100.0, 28100.0, 29100.0, 30100.0, 31100.0, 32100.0, 33100.0, 34100.0, 35100.0, 36100.0, 37100.0, 38100.0, 39100.0, 40100.0, 41100.0, 42100.0, 43100.0, 44100.0, 45100.0, 46100.0, 47100.0, 48100.0, 49100.0, 50100.0, 51100.0, 52100.0, 53100.0, 54100.0, 55100.0, 56100.0, 57100.0, 58100.0, 59100.0, 60100.0, 61100.0, 62100.0, 63100.0, 64100.0, 65100.0, 66100.0, 67100.0, 68100.0, 69100.0, 70100.0, 71100.0, 72100.0, 73100.0, 74100.0, 75100.0, 76100.0, 77100.0, 78100.0, 79100.0, 80100.0, 81100.0, 82100.0, 83100.0, 84100.0, 85100.0, 86100.0, 87100.0, 88100.0, 89100.0, 90100.0, 91100.0, 92100.0, 93100.0, 94100.0, 95100.0, 96100.0, 97100.0, 98100.0, 99100.0, 100100.0, 101100.0, 102100.0, 103100.0, 104100.0, 105100.0, 106100.0, 107100.0, 108100.0, 109100.0, 110100.0, 111100.0, 112100.0, 113100.0, 114100.0, 115100.0, 116100.0, 117100.0, 118100.0, 119100.0, 120100.0, 121100.0, 122100.0, 123100.0, 124100.0, 125100.0, 126100.0, 127100.0, 128100.0, 129100.0, 130100.0, 131100.0, 132100.0, 133100.0, 134100.0, 135100.0, 136100.0, 137100.0, 138100.0, 139100.0, 140100.0, 141100.0, 142100.0, 143100.0, 144100.0, 145100.0, 146100.0, 147100.0, 148100.0, 149100.0, 150100.0, 151100.0, 152100.0, 153100.0, 154100.0, 155100.0, 156100.0, 157100.0, 158100.0, 159100.0, 160100.0, 161100.0, 162100.0, 163100.0, 164100.0, 165100.0, 166100.0, 167100.0, 168100.0, 169100.0, 170100.0, 171100.0, 172100.0, 173100.0, 174100.0, 175100.0, 176100.0, 177100.0, 178100.0, 179100.0, 180100.0, 181100.0, 182100.0, 183100.0, 184100.0, 185100.0, 186100.0, 187100.0, 188100.0, 189100.0, 190100.0, 191100.0, 192100.0, 193100.0, 194100.0, 195100.0, 196100.0, 197100.0, 198100.0, 199100.0, 200100.0, 201100.0, 202100.0, 203100.0, 204100.0, 205100.0, 206100.0, 207100.0, 208100.0, 209100.0, 210100.0, 211100.0, 212100.0, 213100.0, 214100.0, 215100.0, 216100.0, 217100.0, 218100.0, 219100.0, 220100.0, 221100.0, 222100.0, 223100.0, 224100.0, 225100.0, 226100.0, 227100.0, 228100.0, 229100.0, 230100.0, 231100.0, 232100.0, 233100.0, 234100.0, 235100.0, 236100.0, 237100.0, 238100.0, 239100.0, 240100.0, 241100.0, 242100.0, 243100.0, 244100.0, 245100.0, 246100.0, 247100.0, 248100.0, 249100.0, 250100.0, 251100.0, 252100.0, 253100.0, 254100.0, 255100.0, 256100.0, 257100.0, 258100.0, 259100.0, 260100.0, 261100.0, 262100.0, 263100.0, 264100.0, 265100.0, 266100.0, 267100.0, 268100.0, 269100.0, 270100.0, 271100.0],
      "WindowCenter": [4488.0, 4476.0, 4476.0, 4473.0, 4460.0, 4449.0, 4445.0, 4432.0, 4432.0, 4430.0, 4428.0, 4431.0, 4443.0, 4446.0, 4436.0, 4444.0, 4444.0, 4443.0, 4444.0, 4445.0, 4445.0, 4448.0, 4459.0, 4461.0, 4461.0, 4462.0, 4462.0, 4473.0, 4472.0, 4474.0, 4474.0, 4485.0, 4474.0, 4474.0, 4474.0, 4461.0, 4460.0, 4459.0, 4457.0, 4448.0, 4448.0, 4446.0, 4447.0, 4447.0, 4434.0, 4434.0, 4444.0, 4423.0, 4423.0, 4433.0, 4433.0, 4436.0, 4446.0, 4435.0, 4447.0, 4435.0, 4434.0, 4433.0, 4431.0, 4419.0, 4419.0, 4410.0, 4431.0, 4422.0, 4423.0, 4434.0, 4434.0, 4446.0, 4446.0, 4437.0, 4425.0, 4435.0, 4435.0, 4426.0, 4438.0, 4447.0, 4447.0, 4446.0, 4434.0, 4433.0, 4424.0, 4422.0, 4422.0, 4434.0, 4423.0, 4422.0, 4423.0, 4422.0, 4422.0, 4423.0, 4422.0, 4432.0, 4432.0, 4430.0, 4430.0, 4431.0, 4431.0, 4421.0, 4433.0, 4424.0, 4425.0, 4435.0, 4434.0, 4422.0, 4422.0, 4421.0, 4432.0, 4431.0, 4422.0, 4424.0, 4423.0, 4434.0, 4423.0, 4434.0, 4423.0, 4433.0, 4424.0, 4423.0, 4425.0, 4434.0, 4433.0, 4431.0, 4422.0, 4422.0, 4422.0, 4445.0, 4436.0, 4437.0, 4439.0, 4449.0, 4436.0, 4446.0, 4436.0, 4423.0, 4425.0, 4436.0, 4448.0, 4438.0, 4438.0, 4427.0, 4424.0, 4424.0, 4424.0, 4424.0, 4436.0, 4435.0, 4435.0, 4423.0, 4423.0, 4424.0, 4432.0, 4411.0, 4411.0, 4411.0, 4422.0, 4423.0, 4437.0, 4437.0, 4427.0, 4425.0, 4423.0, 4423.0, 4421.0, 4411.0, 4410.0, 4423.0, 4423.0, 4424.0, 4423.0, 4434.0, 4433.0, 4432.0, 4424.0, 4424.0, 4424.0, 4450.0, 4480.0, 4463.0, 4474.0, 4451.0, 4451.0, 4437.0, 4452.0, 4439.0, 4438.0, 4438.0, 4439.0, 4435.0, 4435.0, 4426.0, 4424.0, 4424.0, 4436.0, 4438.0, 4438.0, 4437.0, 4437.0, 4437.0, 4434.0, 4423.0, 4425.0, 4424.0, 4424.0, 4424.0, 4424.0, 4423.0, 4424.0, 4423.0, 4423.0, 4412.0, 4413.0, 4422.0, 4422.0, 4423.0, 4423.0, 4424.0, 4436.0, 4435.0, 4434.0, 4434.0, 4434.0, 4422.0, 4422.0, 4435.0, 4436.0, 4447.0, 4451.0, 4451.0, 4464.0, 4463.0, 4450.0, 4447.0, 4436.0, 4424.0, 4423.0, 4435.0, 4435.0, 4437.0, 4437.0, 4438.0, 4448.0, 4439.0, 4437.0, 4424.0, 4424.0, 4411.0, 4409.0, 4399.0, 4403.0, 4419.0, 4419.0, 4419.0, 4410.0, 4421.0, 4419.0, 4419.0, 4421.0, 4410.0, 4425.0, 4411.0, 4409.0, 4408.0, 4396.0, 4394.0],
