{
  "AcquisitionMatrixPE": 106,
  "AcquisitionNumber": 1,
  "AcquisitionTime": "10:57:37.617500",
  "BandwidthPerPixelPhaseEncode": 16.846,
  "BaseResolution": 106,
  "BodyPartExamined": "BRAIN",
  "CoilCombinationMethod": "Sum of Squares",
  "ConsistencyInfo": "N4_VE11C_LATEST_20160120",
  "ConversionSoftware": "dcm2niix",
  "ConversionSoftwareVersion": "v1.0.20220720",
  "DerivedVendorReportedEchoSpacing": 0.000560012,
  "DeviceSerialNumber": "166108",
  "DwellTime": 1.8e-06,
  "EchoTime": 0.0352,
  "EchoTrainLength": 106,
  "EffectiveEchoSpacing": 0.000560012,
  "FlipAngle": 60,
  "HeudiconvVersion": "1.3.0",
  "ImageComments": "Unaliased MB4/PE3/LB",
  "ImageOrientationPatientDICOM": [1, 0, 0, 0, 0.961741, -0.273959],
  "ImageOrientationText": "Tra>Cor(-15.9)",
  "ImageType": [
    "ORIGINAL",
    "PRIMARY",
    "M",
    "MB",
    "ND",
    "MOSAIC"
],
  "ImagingFrequency": 123.244,
  "InPlanePhaseEncodingDirectionDICOM": "COL",
  "InstitutionAddress": "Bedford Way 26,London,London,GB,WC1H 0AP",
  "InstitutionName": "University College",
  "InstitutionalDepartmentName": "Department",
  "MRAcquisitionType": "2D",
  "MagneticFieldStrength": 3,
  "Manufacturer": "Siemens",
  "ManufacturersModelName": "Prisma",
  "MatrixCoilMode": "SENSE",
  "Modality": "MR",
  "MultibandAccelerationFactor": 4,
  "NonlinearGradientCorrection": false,
  "PartialFourier": 1,
  "PatientPosition": "HFS",
  "PercentPhaseFOV": 100,
  "PercentSampling": 100,
  "PhaseEncodingDirection": "j-",
  "PhaseEncodingSteps": 106,
  "PhaseResolution": 1,
  "PixelBandwidth": 2620,
  "ProcedureStepDescription": "Egor^MovieProject2",
  "ProtocolName": "func-bold_task-pRF_run-01",
  "PulseSequenceDetails": "%CustomerSeq%\\cmrr_mbep2d_bold",
  "ReceiveCoilActiveElements": "HEA;HEP",
  "ReceiveCoilName": "Head_32",
  "ReconMatrixPE": 106,
  "RepetitionTime": 1,
  "SAR": 0.0803932,
  "ScanOptions": "FS\\EXT",
  "ScanningSequence": "EP",
  "SequenceName": "epfid2d1_106",
  "SequenceVariant": "SK\\SS",
  "SeriesDescription": "func-bold_task-pRF_run-01",
  "SeriesNumber": 10,
  "ShimSetting": [-1536, 601, 7361, 75, -109, 119, 254, -40],
  "SliceThickness": 2,
  "SliceTiming": [0, 0.41, 0.8175, 0.245, 0.655, 0.0825, 0.49, 0.9, 0.3275, 0.735, 0.165, 0.5725, 0, 0.41, 0.8175, 0.245, 0.655, 0.0825, 0.49, 0.9, 0.3275, 0.735, 0.165, 0.5725, 0, 0.41, 0.8175, 0.245, 0.655, 0.0825, 0.49, 0.9, 0.3275, 0.735, 0.165, 0.5725, 0, 0.41, 0.8175, 0.245, 0.655, 0.0825, 0.49, 0.9, 0.3275, 0.735, 0.165, 0.5725],
  "SoftwareVersions": "syngo MR E11",
  "SpacingBetweenSlices": 2,
  "StationName": "AWP166108",
  "TaskName": "retinotopy",
  "TotalReadoutTime": 0.0588013,
  "TxRefAmp": 263.919,
  "WipMemBlock": "96fe933b-773c-4aff-873c-2d971555ee04||Sequence: R016 ve11c/master r/e634e98; Dec 19 2017 11:00:25 by eja",
  "dcmmeta_affine": [
    [-2.0, 0.0, 0.0, 106.0],
    [0.0, 1.9234826564788818, -0.547918438911438, -79.74260711669922],
    [0.0, 0.547918438911438, 1.9234826564788818, -45.934566497802734],
    [0.0, 0.0, 0.0, 1.0]
],
  "dcmmeta_reorient_transform": [
    [0.0, -1.0, 0.0, 105.0],
    [1.0, 0.0, 0.0, 0.0],
    [0.0, 0.0, 1.0, 0.0],
    [0.0, 0.0, 0.0, 1.0]
],
  "dcmmeta_shape": [106, 106, 48, 356],
  "dcmmeta_slice_dim": 2,
  "dcmmeta_version": 0.6,
  "global": {
    "const": {
      "AcquisitionMatrix": [106, 0, 0, 106],
      "AngioFlag": "N",
      "BitsAllocated": 16,
      "BitsStored": 16,
      "BodyPartExamined": "BRAIN",
      "CardiacNumberOfImages": 1,
      "Columns": 742,
      "EchoNumbers": 1,
      "EchoTime": 35.2,
      "EchoTrainLength": 106,
      "FlipAngle": 60.0,
      "HighBit": 15,
      "ImageOrientationPatient": [1.0, 0.0, 0.0, 0.0, 0.96174130993141, -0.2739592173507],
      "ImagePositionPatient": [-742.0, -733.89054394298, 185.83493303033],
      "ImageType": [
        "ORIGINAL",
        "PRIMARY",
        "M",
        "MB",
        "ND",
        "MOSAIC"
],
      "ImagedNucleus": "1H",
      "ImagingFrequency": 123.243633,
      "InPlanePhaseEncodingDirection": "COL",
      "MRAcquisitionType": "2D",
      "MagneticFieldStrength": 3.0,
      "Manufacturer": "SIEMENS",
      "ManufacturerModelName": "Prisma",
      "Modality": "MR",
      "NominalInterval": 0,
      "NumberOfAverages": 1.0,
      "NumberOfPhaseEncodingSteps": 106,
      "PercentPhaseFieldOfView": 100.0,
      "PercentSampling": 100.0,
      "PerformedProcedureStepStartTime": "101421.254000",
      "PhotometricInterpretation": "MONOCHROME2",
      "PixelBandwidth": 2620.0,
      "PixelRepresentation": 0,
      "PixelSpacing": [2.0, 2.0],
      "ProtocolName": "func-bold_task-pRF_run-01",
      "RepetitionTime": 1000.0,
      "Rows": 742,
      "SAR": 0.08039319494877,
      "SamplesPerPixel": 1,
      "ScanOptions": [
        "FS",
        "EXT"
],
      "ScanningSequence": "EP",
      "SequenceName": "epfid2d1_106",
      "SequenceVariant": [
        "SK",
        "SS"
],
      "SeriesDescription": "func-bold_task-pRF_run-01",
      "SeriesNumber": 10,
      "SeriesTime": "105803.032000",
      "SliceLocation": -22.330947116101,
      "SliceThickness": 2.0,
      "SmallestImagePixelValue": 0,
      "SoftwareVersions": "syngo MR E11",
      "SpacingBetweenSlices": 1.9999999875966,
      "SpecificCharacterSet": "ISO_IR 100",
      "StudyID": "1",
      "StudyTime": "101421.196000",
      "TransmitCoilName": "Body",
      "VariableFlipAngleFlag": "N",
      "WindowCenterWidthExplanation": "Algo1",
      "dBdt": 0.0},
    "slices": {}
  },
  "time": {
    "samples": {
      "AcquisitionNumber": [1, 2, 3, 4, 5, 6, 7, 8, 9, 10, 11, 12, 13, 14, 15, 16, 17, 18, 19, 20, 21, 22, 23, 24, 25, 26, 27, 28, 29, 30, 31, 32, 33, 34, 35, 36, 37, 38, 39, 40, 41, 42, 43, 44, 45, 46, 47, 48, 49, 50, 51, 52, 53, 54, 55, 56, 57, 58, 59, 60, 61, 62, 63, 64, 65, 66, 67, 68, 69, 70, 71, 72, 73, 74, 75, 76, 77, 78, 79, 80, 81, 82, 83, 84, 85, 86, 87, 88, 89, 90, 91, 92, 93, 94, 95, 96, 97, 98, 99, 100, 101, 102, 103, 104, 105, 106, 107, 108, 109, 110, 111, 112, 113, 114, 115, 116, 117, 118, 119, 120, 121, 122, 123, 124, 125, 126, 127, 128, 129, 130, 131, 132, 133, 134, 135, 136, 137, 138, 139, 140, 141, 142, 143, 144, 145, 146, 147, 148, 149, 150, 151, 152, 153, 154, 155, 156, 157, 158, 159, 160, 161, 162, 163, 164, 165, 166, 167, 168, 169, 170, 171, 172, 173, 174, 175, 176, 177, 178, 179, 180, 181, 182, 183, 184, 185, 186, 187, 188, 189, 190, 191, 192, 193, 194, 195, 196, 197, 198, 199, 200, 201, 202, 203, 204, 205, 206, 207, 208, 209, 210, 211, 212, 213, 214, 215, 216, 217, 218, 219, 220, 221, 222, 223, 224, 225, 226, 227, 228, 229, 230, 231, 232, 233, 234, 235, 236, 237, 238, 239, 240, 241, 242, 243, 244, 245, 246, 247, 248, 249, 250, 251, 252, 253, 254, 255, 256, 257, 258, 259, 260, 261, 262, 263, 264, 265, 266, 267, 268, 269, 270, 271, 272, 273, 274, 275, 276, 277, 278, 279, 280, 281, 282, 283, 284, 285, 286, 287, 288, 289, 290, 291, 292, 293, 294, 295, 296, 297, 298, 299, 300, 301, 302, 303, 304, 305, 306, 307, 308, 309, 310, 311, 312, 313, 314, 315, 316, 317, 318, 319, 320, 321, 322, 323, 324, 325, 326, 327, 328, 329, 330, 331, 332, 333, 334, 335, 336, 337, 338, 339, 340, 341, 342, 343, 344, 345, 346, 347, 348, 349, 350, 351, 352, 353, 354, 355, 356],
      "AcquisitionTime": ["105737.617500", "105738.617500", "105739.617500", "105740.617500", "105741.617500", "105742.617500", "105743.617500", "105744.617500", "105745.617500", "105746.617500", "105747.617500", "105748.617500", "105749.617500", "105750.617500", "105751.617500", "105752.617500", "105753.617500", "105754.617500", "105755.617500", "105756.617500", "105757.617500", "105758.617500", "105759.617500", "105800.617500", "105801.617500", "105802.617500", "105803.617500", "105804.617500", "105805.617500", "105806.617500", "105807.617500", "105808.617500", "105809.617500", "105810.617500", "105811.617500", "105812.617500", "105813.617500", "105814.617500", "105815.617500", "105816.617500", "105817.617500", "105818.617500", "105819.617500", "105820.617500", "105821.617500", "105822.617500", "105823.617500", "105824.617500", "105825.617500", "105826.617500", "105827.617500", "105828.617500", "105829.617500", "105830.617500", "105831.617500", "105832.617500", "105833.617500", "105834.617500", "105835.617500", "105836.617500", "105837.617500", "105838.617500", "105839.617500", "105840.617500", "105841.617500", "105842.617500", "105843.617500", "105844.617500", "105845.617500", "105846.617500", "105847.617500", "105848.617500", "105849.617500", "105850.617500", "105851.617500", "105852.617500", "105853.617500", "105854.617500", "105855.617500", "105856.617500", "105857.617500", "105858.617500", "105859.617500", "105900.617500", "105901.617500", "105902.617500", "105903.617500", "105904.617500", "105905.617500", "105906.617500", "105907.617500", "105908.617500", "105909.617500", "105910.617500", "105911.617500", "105912.617500", "105913.617500", "105914.617500", "105915.617500", "105916.617500", "105917.617500", "105918.617500", "105919.617500", "105920.617500", "105921.617500", "105922.617500", "105923.617500", "105924.617500", "105925.617500", "105926.617500", "105927.617500", "105928.617500", "105929.617500", "105930.617500", "105931.617500", "105932.617500", "105933.617500", "105934.617500", "105935.617500", "105936.617500", "105937.617500", "105938.617500", "105939.617500", "105940.617500", "105941.617500", "105942.617500", "105943.617500", "105944.617500", "105945.617500", "105946.617500", "105947.617500", "105948.617500", "105949.617500", "105950.617500", "105951.617500", "105952.617500", "105953.617500", "105954.617500", "105955.617500", "105956.617500", "105957.617500", "105958.617500", "105959.617500", "110000.617500", "110001.617500", "110002.617500", "110003.617500", "110004.617500", "110005.617500", "110006.617500", "110007.617500", "110008.617500", "110009.617500", "110010.617500", "110011.617500", "110012.617500", "110013.617500", "110014.617500", "110015.617500", "110016.617500", "110017.617500", "110018.617500", "110019.617500", "110020.617500", "110021.617500", "110022.617500", "110023.617500", "110024.617500", "110025.617500", "110026.617500", "110027.617500", "110028.617500", "110029.617500", "110030.617500", "110031.617500", "110032.617500", "110033.617500", "110034.617500", "110035.617500", "110036.617500", "110037.617500", "110038.617500", "110039.617500", "110040.617500", "110041.617500", "110042.617500", "110043.617500", "110044.617500", "110045.617500", "110046.617500", "110047.617500", "110048.617500", "110049.617500", "110050.617500", "110051.617500", "110052.617500", "110053.617500", "110054.617500", "110055.617500", "110056.617500", "110057.617500", "110058.617500", "110059.617500", "110100.617500", "110101.617500", "110102.617500", "110103.617500", "110104.617500", "110105.617500", "110106.617500", "110107.617500", "110108.617500", "110109.617500", "110110.617500", "110111.617500", "110112.617500", "110113.617500", "110114.617500", "110115.617500", "110116.617500", "110117.617500", "110118.617500", "110119.617500", "110120.617500", "110121.617500", "110122.617500", "110123.617500", "110124.617500", "110125.617500", "110126.617500", "110127.617500", "110128.617500", "110129.617500", "110130.617500", "110131.617500", "110132.617500", "110133.617500", "110134.617500", "110135.617500", "110136.617500", "110137.617500", "110138.617500", "110139.617500", "110140.617500", "110141.617500", "110142.617500", "110143.617500", "110144.617500", "110145.617500", "110146.617500", "110147.617500", "110148.617500", "110149.617500", "110150.617500", "110151.617500", "110152.617500", "110153.617500", "110154.617500", "110155.617500", "110156.617500", "110157.617500", "110158.617500", "110159.617500", "110200.617500", "110201.617500", "110202.617500", "110203.617500", "110204.617500", "110205.617500", "110206.617500", "110207.617500", "110208.617500", "110209.617500", "110210.617500", "110211.617500", "110212.617500", "110213.617500", "110214.617500", "110215.617500", "110216.617500", "110217.617500", "110218.617500", "110219.617500", "110220.617500", "110221.617500", "110222.617500", "110223.617500", "110224.617500", "110225.617500", "110226.617500", "110227.617500", "110228.617500", "110229.617500", "110230.617500", "110231.617500", "110232.617500", "110233.617500", "110234.617500", "110235.617500", "110236.617500", "110237.617500", "110238.617500", "110239.617500", "110240.617500", "110241.617500", "110242.617500", "110243.617500", "110244.617500", "110245.617500", "110246.617500", "110247.617500", "110248.617500", "110249.617500", "110250.617500", "110251.617500", "110252.617500", "110253.617500", "110254.617500", "110255.617500", "110256.617500", "110257.617500", "110258.617500", "110259.617500", "110300.617500", "110301.617500", "110302.617500", "110303.617500", "110304.617500", "110305.617500", "110306.617500", "110307.617500", "110308.617500", "110309.617500", "110310.617500", "110311.617500", "110312.617500", "110313.617500", "110314.617500", "110315.617500", "110316.617500", "110317.617500", "110318.617500", "110319.617500", "110320.617500", "110321.617500", "110322.617500", "110323.617500", "110324.617500", "110325.617500", "110326.617500", "110327.617500", "110328.617500", "110329.617500", "110330.617500", "110331.617500", "110332.617500"],
      "ContentTime": ["105803.034000", "105803.037000", "105803.040000", "105803.043000", "105803.058000", "105803.060000", "105803.063000", "105803.065000", "105803.068000", "105803.070000", "105803.073000", "105803.075000", "105803.077000", "105803.080000", "105803.083000", "105803.085000", "105803.088000", "105803.099000", "105803.101000", "105803.104000", "105803.106000", "105803.109000", "105803.111000", "105822.998000", "105823.002000", "105823.005000", "105823.007000", "105823.010000", "105823.013000", "105823.015000", "105823.018000", "105823.020000", "105823.023000", "105823.025000", "105823.028000", "105823.030000", "105823.033000", "105823.035000", "105823.038000", "105823.049000", "105823.051000", "105823.053000", "105823.056000", "105823.058000", "105842.998000", "105843.002000", "105843.020000", "105843.022000", "105843.025000", "105843.027000", "105843.030000", "105843.032000", "105843.035000", "105843.037000", "105843.040000", "105843.042000", "105843.044000", "105843.047000", "105843.049000", "105843.052000", "105843.055000", "105843.057000", "105843.059000", "105843.062000", "105902.998000", "105903.002000", "105903.005000", "105903.007000", "105903.010000", "105903.012000", "105903.015000", "105903.017000", "105903.020000", "105903.022000", "105903.025000", "105903.027000", "105903.030000", "105903.032000", "105903.034000", "105903.040000", "105903.043000", "105903.045000", "105903.053000", "105903.056000", "105922.998000", "105923.002000", "105923.005000", "105923.007000", "105923.010000", "105923.013000", "105923.016000", "105923.019000", "105923.021000", "105923.024000", "105923.027000", "105923.029000", "105923.032000", "105923.034000", "105923.037000", "105923.039000", "105923.042000", "105923.044000", "105923.046000", "105923.049000", "105942.998000", "105943.001000", "105943.004000", "105943.006000", "105943.009000", "105943.011000", "105943.014000", "105943.016000", "105943.019000", "105943.021000", "105943.024000", "105943.026000", "105943.029000", "105943.031000", "105943.033000", "105943.036000", "105943.038000", "105943.041000", "105943.052000", "105943.054000", "110002.998000", "110003.003000", "110003.005000", "110003.008000", "110003.010000", "110003.013000", "110003.015000", "110003.018000", "110003.021000", "110003.023000", "110003.026000", "110003.028000", "110003.031000", "110003.033000", "110003.036000", "110003.038000", "110003.041000", "110003.043000", "110003.045000", "110003.048000", "110022.998000", "110023.002000", "110023.005000", "110023.007000", "110023.010000", "110023.012000", "110023.015000", "110023.017000", "110023.020000", "110023.022000", "110023.025000", "110023.027000", "110023.030000", "110023.032000", "110023.034000", "110023.037000", "110023.039000", "110023.042000", "110023.044000", "110023.047000", "110042.998000", "110043.002000", "110043.005000", "110043.008000", "110043.010000", "110043.013000", "110043.015000", "110043.018000", "110043.020000", "110043.022000", "110043.025000", "110043.027000", "110043.030000", "110043.032000", "110043.035000", "110043.038000", "110043.040000", "110043.042000", "110043.045000", "110043.047000", "110103.000000", "110103.002000", "110103.005000", "110103.007000", "110103.010000", "110103.013000", "110103.015000", "110103.018000", "110103.021000", "110103.024000", "110103.027000", "110103.031000", "110103.034000", "110103.037000", "110103.039000", "110103.042000", "110103.060000", "110103.063000", "110103.065000", "110103.068000", "110122.998000", "110123.002000", "110123.004000", "110123.007000", "110123.019000", "110123.021000", "110123.024000", "110123.026000", "110123.029000", "110123.031000", "110123.033000", "110123.036000", "110123.039000", "110123.041000", "110123.043000", "110123.046000", "110123.048000", "110123.051000", "110123.053000", "110123.056000", "110143.000000", "110143.003000", "110143.006000", "110143.009000", "110143.012000", "110143.015000", "110143.017000", "110143.020000", "110143.023000", "110143.025000", "110143.028000", "110143.030000", "110143.033000", "110143.035000", "110143.038000", "110143.040000", "110143.043000", "110143.045000", "110143.048000", "110143.051000", "110202.998000", "110203.010000", "110203.012000", "110203.015000", "110203.017000", "110203.020000", "110203.022000", "110203.025000", "110203.027000", "110203.030000", "110203.032000", "110203.035000", "110203.037000", "110203.040000", "110203.042000", "110203.045000", "110203.047000", "110203.050000", "110203.052000", "110203.055000", "110222.998000", "110223.003000", "110223.005000", "110223.007000", "110223.010000", "110223.013000", "110223.016000", "110223.019000", "110223.021000", "110223.024000", "110223.027000", "110223.031000", "110223.034000", "110223.036000", "110223.039000", "110223.041000", "110223.044000", "110223.046000", "110223.049000", "110223.052000", "110242.998000", "110243.002000", "110243.005000", "110243.008000", "110243.010000", "110243.013000", "110243.015000", "110243.018000", "110243.020000", "110243.023000", "110243.025000", "110243.028000", "110243.031000", "110243.033000", "110243.035000", "110243.038000", "110243.040000", "110243.043000", "110243.045000", "110243.048000", "110302.998000", "110303.002000", "110303.005000", "110303.007000", "110303.010000", "110303.012000", "110303.015000", "110303.017000", "110303.020000", "110303.022000", "110303.025000", "110303.027000", "110303.030000", "110303.032000", "110303.035000", "110303.037000", "110303.040000", "110303.042000", "110303.044000", "110303.047000", "110322.998000", "110323.002000", "110323.005000", "110323.007000", "110323.010000", "110323.013000", "110323.016000", "110323.019000", "110323.021000", "110323.024000", "110323.027000", "110323.031000", "110323.033000", "110323.036000", "110323.038000", "110323.041000", "110323.043000", "110323.046000", "110323.048000", "110323.051000", "110334.050000", "110334.053000", "110334.056000", "110334.058000", "110334.061000", "110334.063000", "110334.066000", "110334.068000", "110334.071000", "110334.073000", "110334.076000", "110334.078000"],
      "InstanceCreationTime": ["105803.034000", "105803.037000", "105803.040000", "105803.043000", "105803.058000", "105803.060000", "105803.063000", "105803.065000", "105803.068000", "105803.070000", "105803.073000", "105803.075000", "105803.077000", "105803.080000", "105803.083000", "105803.085000", "105803.088000", "105803.099000", "105803.101000", "105803.104000", "105803.106000", "105803.109000", "105803.111000", "105822.998000", "105823.002000", "105823.005000", "105823.007000", "105823.010000", "105823.013000", "105823.015000", "105823.018000", "105823.020000", "105823.023000", "105823.025000", "105823.028000", "105823.030000", "105823.033000", "105823.035000", "105823.038000", "105823.049000", "105823.051000", "105823.053000", "105823.056000", "105823.058000", "105842.998000", "105843.002000", "105843.020000", "105843.022000", "105843.025000", "105843.027000", "105843.030000", "105843.032000", "105843.035000", "105843.037000", "105843.040000", "105843.042000", "105843.044000", "105843.047000", "105843.049000", "105843.052000", "105843.055000", "105843.057000", "105843.059000", "105843.062000", "105902.998000", "105903.002000", "105903.005000", "105903.007000", "105903.010000", "105903.012000", "105903.015000", "105903.017000", "105903.020000", "105903.022000", "105903.025000", "105903.027000", "105903.030000", "105903.032000", "105903.034000", "105903.040000", "105903.043000", "105903.045000", "105903.053000", "105903.056000", "105922.998000", "105923.002000", "105923.005000", "105923.007000", "105923.010000", "105923.013000", "105923.016000", "105923.019000", "105923.021000", "105923.024000", "105923.027000", "105923.029000", "105923.032000", "105923.034000", "105923.037000", "105923.039000", "105923.042000", "105923.044000", "105923.046000", "105923.049000", "105942.998000", "105943.001000", "105943.004000", "105943.006000", "105943.009000", "105943.011000", "105943.014000", "105943.016000", "105943.019000", "105943.021000", "105943.024000", "105943.026000", "105943.029000", "105943.031000", "105943.033000", "105943.036000", "105943.038000", "105943.041000", "105943.052000", "105943.054000", "110002.998000", "110003.003000", "110003.005000", "110003.008000", "110003.010000", "110003.013000", "110003.015000", "110003.018000", "110003.021000", "110003.023000", "110003.026000", "110003.028000", "110003.031000", "110003.033000", "110003.036000", "110003.038000", "110003.041000", "110003.043000", "110003.045000", "110003.048000", "110022.998000", "110023.002000", "110023.005000", "110023.007000", "110023.010000", "110023.012000", "110023.015000", "110023.017000", "110023.020000", "110023.022000", "110023.025000", "110023.027000", "110023.030000", "110023.032000", "110023.034000", "110023.037000", "110023.039000", "110023.042000", "110023.044000", "110023.047000", "110042.998000", "110043.002000", "110043.005000", "110043.008000", "110043.010000", "110043.013000", "110043.015000", "110043.018000", "110043.020000", "110043.022000", "110043.025000", "110043.027000", "110043.030000", "110043.032000", "110043.035000", "110043.038000", "110043.040000", "110043.042000", "110043.045000", "110043.047000", "110103.000000", "110103.002000", "110103.005000", "110103.007000", "110103.010000", "110103.013000", "110103.015000", "110103.018000", "110103.021000", "110103.024000", "110103.027000", "110103.031000", "110103.034000", "110103.037000", "110103.039000", "110103.042000", "110103.060000", "110103.063000", "110103.065000", "110103.068000", "110122.998000", "110123.002000", "110123.004000", "110123.007000", "110123.019000", "110123.021000", "110123.024000", "110123.026000", "110123.029000", "110123.031000", "110123.033000", "110123.036000", "110123.039000", "110123.041000", "110123.043000", "110123.046000", "110123.048000", "110123.051000", "110123.053000", "110123.056000", "110143.000000", "110143.003000", "110143.006000", "110143.009000", "110143.012000", "110143.015000", "110143.017000", "110143.020000", "110143.023000", "110143.025000", "110143.028000", "110143.030000", "110143.033000", "110143.035000", "110143.038000", "110143.040000", "110143.043000", "110143.045000", "110143.048000", "110143.051000", "110202.998000", "110203.010000", "110203.012000", "110203.015000", "110203.017000", "110203.020000", "110203.022000", "110203.025000", "110203.027000", "110203.030000", "110203.032000", "110203.035000", "110203.037000", "110203.040000", "110203.042000", "110203.045000", "110203.047000", "110203.050000", "110203.052000", "110203.055000", "110222.998000", "110223.003000", "110223.005000", "110223.007000", "110223.010000", "110223.013000", "110223.016000", "110223.019000", "110223.021000", "110223.024000", "110223.027000", "110223.031000", "110223.034000", "110223.036000", "110223.039000", "110223.041000", "110223.044000", "110223.046000", "110223.049000", "110223.052000", "110242.998000", "110243.002000", "110243.005000", "110243.008000", "110243.010000", "110243.013000", "110243.015000", "110243.018000", "110243.020000", "110243.023000", "110243.025000", "110243.028000", "110243.031000", "110243.033000", "110243.035000", "110243.038000", "110243.040000", "110243.043000", "110243.045000", "110243.048000", "110302.998000", "110303.002000", "110303.005000", "110303.007000", "110303.010000", "110303.012000", "110303.015000", "110303.017000", "110303.020000", "110303.022000", "110303.025000", "110303.027000", "110303.030000", "110303.032000", "110303.035000", "110303.037000", "110303.040000", "110303.042000", "110303.044000", "110303.047000", "110322.998000", "110323.002000", "110323.005000", "110323.007000", "110323.010000", "110323.013000", "110323.016000", "110323.019000", "110323.021000", "110323.024000", "110323.027000", "110323.031000", "110323.033000", "110323.036000", "110323.038000", "110323.041000", "110323.043000", "110323.046000", "110323.048000", "110323.051000", "110334.050000", "110334.053000", "110334.056000", "110334.058000", "110334.061000", "110334.063000", "110334.066000", "110334.068000", "110334.071000", "110334.073000", "110334.076000", "110334.078000"],
      "InstanceNumber": [1, 2, 3, 4, 5, 6, 7, 8, 9, 10, 11, 12, 13, 14, 15, 16, 17, 18, 19, 20, 21, 22, 23, 24, 25, 26, 27, 28, 29, 30, 31, 32, 33, 34, 35, 36, 37, 38, 39, 40, 41, 42, 43, 44, 45, 46, 47, 48, 49, 50, 51, 52, 53, 54, 55, 56, 57, 58, 59, 60, 61, 62, 63, 64, 65, 66, 67, 68, 69, 70, 71, 72, 73, 74, 75, 76, 77, 78, 79, 80, 81, 82, 83, 84, 85, 86, 87, 88, 89, 90, 91, 92, 93, 94, 95, 96, 97, 98, 99, 100, 101, 102, 103, 104, 105, 106, 107, 108, 109, 110, 111, 112, 113, 114, 115, 116, 117, 118, 119, 120, 121, 122, 123, 124, 125, 126, 127, 128, 129, 130, 131, 132, 133, 134, 135, 136, 137, 138, 139, 140, 141, 142, 143, 144, 145, 146, 147, 148, 149, 150, 151, 152, 153, 154, 155, 156, 157, 158, 159, 160, 161, 162, 163, 164, 165, 166, 167, 168, 169, 170, 171, 172, 173, 174, 175, 176, 177, 178, 179, 180, 181, 182, 183, 184, 185, 186, 187, 188, 189, 190, 191, 192, 193, 194, 195, 196, 197, 198, 199, 200, 201, 202, 203, 204, 205, 206, 207, 208, 209, 210, 211, 212, 213, 214, 215, 216, 217, 218, 219, 220, 221, 222, 223, 224, 225, 226, 227, 228, 229, 230, 231, 232, 233, 234, 235, 236, 237, 238, 239, 240, 241, 242, 243, 244, 245, 246, 247, 248, 249, 250, 251, 252, 253, 254, 255, 256, 257, 258, 259, 260, 261, 262, 263, 264, 265, 266, 267, 268, 269, 270, 271, 272, 273, 274, 275, 276, 277, 278, 279, 280, 281, 282, 283, 284, 285, 286, 287, 288, 289, 290, 291, 292, 293, 294, 295, 296, 297, 298, 299, 300, 301, 302, 303, 304, 305, 306, 307, 308, 309, 310, 311, 312, 313, 314, 315, 316, 317, 318, 319, 320, 321, 322, 323, 324, 325, 326, 327, 328, 329, 330, 331, 332, 333, 334, 335, 336, 337, 338, 339, 340, 341, 342, 343, 344, 345, 346, 347, 348, 349, 350, 351, 352, 353, 354, 355, 356],
      "LargestImagePixelValue": [10684, 10418, 10224, 10266, 10150, 10037, 10164, 10507, 10244, 11605, 11075, 11159, 10440, 10958, 11663, 12579, 11246, 10438, 10538, 10250, 10099, 10104, 10186, 10186, 10214, 10283, 10296, 10249, 10794, 10598, 11078, 10733, 10309, 11461, 11131, 10258, 10019, 10180, 9917, 9895, 9880, 10090, 10027, 10052, 10069, 11196, 10410, 10438, 10565, 10280, 10083, 9993, 9951, 10000, 10001, 10072, 10070, 11321, 10822, 11070, 10203, 10669, 10373, 10065, 10066, 9968, 10011, 10796, 10268, 11237, 10532, 10488, 10654, 10540, 10257, 9987, 9918, 9976, 9982, 9925, 10771, 10939, 11274, 11169, 10932, 10486, 10024, 10326, 10239, 10251, 10012, 10262, 10246, 10610, 10275, 11462, 11207, 10389, 11073, 10499, 10709, 10257, 10179, 10040, 10185, 11287, 10141, 10350, 10047, 10054, 10993, 11111, 10081, 10993, 10206, 10148, 10024, 10061, 10186, 10089, 10171, 11030, 10994, 10153, 10816, 10382, 10453, 10151, 9991, 9999, 9981, 9955, 10063, 10228, 10432, 10310, 10266, 11812, 10782, 10864, 10607, 10130, 10092, 10013, 10074, 10205, 11271, 11199, 10311, 11124, 10913, 10920, 10832, 10669, 10088, 9959, 10005, 10139, 11230, 11053, 10028, 11412, 10785, 10831, 10444, 9860, 9898, 9863, 9936, 9908, 10021, 11198, 10156, 10273, 10622, 10768, 11014, 10702, 10274, 10314, 10214, 10035, 9854, 9954, 10018, 10005, 11481, 10283, 11328, 10026, 10909, 10410, 10287, 11253, 11287, 11184, 10972, 10088, 10245, 10175, 10079, 9806, 9892, 9951, 10724, 9785, 10679, 11005, 9906, 9957, 10470, 10362, 9921, 11280, 11102, 10585, 10431, 10036, 10129, 11019, 10071, 9999, 9859, 10754, 11230, 10968, 9931, 11459, 10598, 10652, 10550, 11201, 10464, 10372, 10349, 10586, 10172, 10064, 10038, 10075, 10050, 9928, 9996, 10571, 11206, 10062, 11370, 10520, 10815, 10682, 10618, 10474, 9956, 10152, 9910, 9947, 11205, 11420, 10151, 11104, 11293, 10805, 10973, 10652, 9874, 9865, 9870, 9939, 10051, 10513, 11385, 11090, 10716, 10214, 10014, 10111, 10765, 10295, 11026, 11372, 11140, 10858, 10131, 10063, 10093, 11488, 10554, 11550, 11261, 10122, 10041, 10262, 10717, 10240, 11200, 11060, 10725, 10339, 10087, 9892, 9903, 10025, 10453, 11373, 11479, 10592, 10716, 10171, 9993, 10100, 10033, 11035, 10869, 10068, 10120, 11621, 10556, 10200, 10039, 9932, 10108, 10095, 10069, 10684, 10482, 10918, 10025, 11471, 11631, 10108, 11842, 10651, 10769, 10393, 10083, 10162, 10045, 10067, 10069, 10027, 10788, 11454, 9987, 11327, 11210, 11123, 11140, 10875, 10843, 10509, 9941, 10008, 10041, 10082, 10051, 10161],
