{
  "AcquisitionMatrixPE": 106,
  "AcquisitionNumber": 1,
  "AcquisitionTime": "11:05:13.780000",
  "BandwidthPerPixelPhaseEncode": 16.846,
  "BaseResolution": 106,
  "BodyPartExamined": "BRAIN",
  "CoilCombinationMethod": "Sum of Squares",
  "ConsistencyInfo": "N4_VE11C_LATEST_20160120",
  "ConversionSoftware": "dcm2niix",
  "ConversionSoftwareVersion": "v1.0.20220720",
  "DerivedVendorReportedEchoSpacing": 0.000560012,
  "DeviceSerialNumber": "166108",
  "DwellTime": 1.8e-06,
  "EchoTime": 0.0352,
  "EchoTrainLength": 106,
  "EffectiveEchoSpacing": 0.000560012,
  "FlipAngle": 60,
  "HeudiconvVersion": "1.3.0",
  "ImageComments": "Unaliased MB4/PE3/LB",
  "ImageOrientationPatientDICOM": [1, 0, 0, 0, 0.961741, -0.273959],
  "ImageOrientationText": "Tra>Cor(-15.9)",
  "ImageType": [
    "ORIGINAL",
    "PRIMARY",
    "M",
    "MB",
    "ND",
    "MOSAIC"
],
  "ImagingFrequency": 123.244,
  "InPlanePhaseEncodingDirectionDICOM": "COL",
  "InstitutionAddress": "Bedford Way 26,London,London,GB,WC1H 0AP",
  "InstitutionName": "University College",
  "InstitutionalDepartmentName": "Department",
  "MRAcquisitionType": "2D",
  "MagneticFieldStrength": 3,
  "Manufacturer": "Siemens",
  "ManufacturersModelName": "Prisma",
  "MatrixCoilMode": "SENSE",
  "Modality": "MR",
  "MultibandAccelerationFactor": 4,
  "NonlinearGradientCorrection": false,
  "PartialFourier": 1,
  "PatientPosition": "HFS",
  "PercentPhaseFOV": 100,
  "PercentSampling": 100,
  "PhaseEncodingDirection": "j-",
  "PhaseEncodingSteps": 106,
  "PhaseResolution": 1,
  "PixelBandwidth": 2620,
  "ProcedureStepDescription": "Egor^MovieProject2",
  "ProtocolName": "func-bold_task-pRF_run-02",
  "PulseSequenceDetails": "%CustomerSeq%\\cmrr_mbep2d_bold",
  "ReceiveCoilActiveElements": "HEA;HEP",
  "ReceiveCoilName": "Head_32",
  "ReconMatrixPE": 106,
  "RepetitionTime": 1,
  "SAR": 0.0803932,
  "ScanOptions": "FS\\EXT",
  "ScanningSequence": "EP",
  "SequenceName": "epfid2d1_106",
  "SequenceVariant": "SK\\SS",
  "SeriesDescription": "func-bold_task-pRF_run-02",
  "SeriesNumber": 12,
  "ShimSetting": [-1536, 601, 7361, 75, -109, 119, 254, -40],
  "SliceThickness": 2,
  "SliceTiming": [0, 0.41, 0.8175, 0.245, 0.655, 0.0825, 0.49, 0.9, 0.3275, 0.735, 0.165, 0.5725, 0, 0.41, 0.8175, 0.245, 0.655, 0.0825, 0.49, 0.9, 0.3275, 0.735, 0.165, 0.5725, 0, 0.41, 0.8175, 0.245, 0.655, 0.0825, 0.49, 0.9, 0.3275, 0.735, 0.165, 0.5725, 0, 0.41, 0.8175, 0.245, 0.655, 0.0825, 0.49, 0.9, 0.3275, 0.735, 0.165, 0.5725],
  "SoftwareVersions": "syngo MR E11",
  "SpacingBetweenSlices": 2,
  "StationName": "AWP166108",
  "TaskName": "retinotopy",
  "TotalReadoutTime": 0.0588013,
  "TxRefAmp": 263.919,
  "WipMemBlock": "9bef32bd-2661-430a-a842-6eb4e2f23c71||Sequence: R016 ve11c/master r/e634e98; Dec 19 2017 11:00:25 by eja",
  "dcmmeta_affine": [
    [-2.0, 0.0, 0.0, 106.0],
    [0.0, 1.9234826564788818, -0.547918438911438, -79.74260711669922],
    [0.0, 0.547918438911438, 1.9234826564788818, -45.934566497802734],
    [0.0, 0.0, 0.0, 1.0]
],
  "dcmmeta_reorient_transform": [
    [0.0, -1.0, 0.0, 105.0],
    [1.0, 0.0, 0.0, 0.0],
    [0.0, 0.0, 1.0, 0.0],
    [0.0, 0.0, 0.0, 1.0]
],
  "dcmmeta_shape": [106, 106, 48, 356],
  "dcmmeta_slice_dim": 2,
  "dcmmeta_version": 0.6,
  "global": {
    "const": {
      "AcquisitionMatrix": [106, 0, 0, 106],
      "AngioFlag": "N",
      "BitsAllocated": 16,
      "BitsStored": 16,
      "BodyPartExamined": "BRAIN",
      "CardiacNumberOfImages": 1,
      "Columns": 742,
      "EchoNumbers": 1,
      "EchoTime": 35.2,
      "EchoTrainLength": 106,
      "FlipAngle": 60.0,
      "HighBit": 15,
      "ImageOrientationPatient": [1.0, 0.0, 0.0, 0.0, 0.96174130993141, -0.2739592173507],
      "ImagePositionPatient": [-742.0, -733.89054394298, 185.83493303033],
      "ImageType": [
        "ORIGINAL",
        "PRIMARY",
        "M",
        "MB",
        "ND",
        "MOSAIC"
],
      "ImagedNucleus": "1H",
      "ImagingFrequency": 123.243634,
      "InPlanePhaseEncodingDirection": "COL",
      "MRAcquisitionType": "2D",
      "MagneticFieldStrength": 3.0,
      "Manufacturer": "SIEMENS",
      "ManufacturerModelName": "Prisma",
      "Modality": "MR",
      "NominalInterval": 0,
      "NumberOfAverages": 1.0,
      "NumberOfPhaseEncodingSteps": 106,
      "PercentPhaseFieldOfView": 100.0,
      "PercentSampling": 100.0,
      "PerformedProcedureStepStartTime": "101421.254000",
      "PhotometricInterpretation": "MONOCHROME2",
      "PixelBandwidth": 2620.0,
      "PixelRepresentation": 0,
      "PixelSpacing": [2.0, 2.0],
      "ProtocolName": "func-bold_task-pRF_run-02",
      "RepetitionTime": 1000.0,
      "Rows": 742,
      "SAR": 0.08039319494877,
      "SamplesPerPixel": 1,
      "ScanOptions": [
        "FS",
        "EXT"
],
      "ScanningSequence": "EP",
      "SequenceName": "epfid2d1_106",
      "SequenceVariant": [
        "SK",
        "SS"
],
      "SeriesDescription": "func-bold_task-pRF_run-02",
      "SeriesNumber": 12,
      "SeriesTime": "110548.887000",
      "SliceLocation": -22.330947116101,
      "SliceThickness": 2.0,
      "SmallestImagePixelValue": 0,
      "SoftwareVersions": "syngo MR E11",
      "SpacingBetweenSlices": 1.9999999875966,
      "SpecificCharacterSet": "ISO_IR 100",
      "StudyID": "1",
      "StudyTime": "101421.196000",
      "TransmitCoilName": "Body",
      "VariableFlipAngleFlag": "N",
      "WindowCenterWidthExplanation": "Algo1",
      "dBdt": 0.0},
    "slices": {}
  },
  "time": {
    "samples": {
      "AcquisitionNumber": [1, 2, 3, 4, 5, 6, 7, 8, 9, 10, 11, 12, 13, 14, 15, 16, 17, 18, 19, 20, 21, 22, 23, 24, 25, 26, 27, 28, 29, 30, 31, 32, 33, 34, 35, 36, 37, 38, 39, 40, 41, 42, 43, 44, 45, 46, 47, 48, 49, 50, 51, 52, 53, 54, 55, 56, 57, 58, 59, 60, 61, 62, 63, 64, 65, 66, 67, 68, 69, 70, 71, 72, 73, 74, 75, 76, 77, 78, 79, 80, 81, 82, 83, 84, 85, 86, 87, 88, 89, 90, 91, 92, 93, 94, 95, 96, 97, 98, 99, 100, 101, 102, 103, 104, 105, 106, 107, 108, 109, 110, 111, 112, 113, 114, 115, 116, 117, 118, 119, 120, 121, 122, 123, 124, 125, 126, 127, 128, 129, 130, 131, 132, 133, 134, 135, 136, 137, 138, 139, 140, 141, 142, 143, 144, 145, 146, 147, 148, 149, 150, 151, 152, 153, 154, 155, 156, 157, 158, 159, 160, 161, 162, 163, 164, 165, 166, 167, 168, 169, 170, 171, 172, 173, 174, 175, 176, 177, 178, 179, 180, 181, 182, 183, 184, 185, 186, 187, 188, 189, 190, 191, 192, 193, 194, 195, 196, 197, 198, 199, 200, 201, 202, 203, 204, 205, 206, 207, 208, 209, 210, 211, 212, 213, 214, 215, 216, 217, 218, 219, 220, 221, 222, 223, 224, 225, 226, 227, 228, 229, 230, 231, 232, 233, 234, 235, 236, 237, 238, 239, 240, 241, 242, 243, 244, 245, 246, 247, 248, 249, 250, 251, 252, 253, 254, 255, 256, 257, 258, 259, 260, 261, 262, 263, 264, 265, 266, 267, 268, 269, 270, 271, 272, 273, 274, 275, 276, 277, 278, 279, 280, 281, 282, 283, 284, 285, 286, 287, 288, 289, 290, 291, 292, 293, 294, 295, 296, 297, 298, 299, 300, 301, 302, 303, 304, 305, 306, 307, 308, 309, 310, 311, 312, 313, 314, 315, 316, 317, 318, 319, 320, 321, 322, 323, 324, 325, 326, 327, 328, 329, 330, 331, 332, 333, 334, 335, 336, 337, 338, 339, 340, 341, 342, 343, 344, 345, 346, 347, 348, 349, 350, 351, 352, 353, 354, 355, 356],
      "AcquisitionTime": ["110513.780000", "110514.780000", "110515.780000", "110516.780000", "110517.780000", "110518.780000", "110519.780000", "110520.780000", "110521.780000", "110522.780000", "110523.780000", "110524.780000", "110525.780000", "110526.780000", "110527.780000", "110528.780000", "110529.780000", "110530.780000", "110531.780000", "110532.780000", "110533.780000", "110534.780000", "110535.780000", "110536.780000", "110537.780000", "110538.780000", "110539.780000", "110540.780000", "110541.780000", "110542.780000", "110543.780000", "110544.780000", "110545.780000", "110546.780000", "110547.780000", "110548.780000", "110549.780000", "110550.780000", "110551.780000", "110552.780000", "110553.780000", "110554.780000", "110555.780000", "110556.780000", "110557.780000", "110558.780000", "110559.780000", "110600.780000", "110601.780000", "110602.780000", "110603.780000", "110604.780000", "110605.780000", "110606.780000", "110607.780000", "110608.780000", "110609.780000", "110610.780000", "110611.780000", "110612.780000", "110613.780000", "110614.780000", "110615.780000", "110616.780000", "110617.780000", "110618.780000", "110619.780000", "110620.780000", "110621.780000", "110622.780000", "110623.780000", "110624.780000", "110625.780000", "110626.780000", "110627.780000", "110628.780000", "110629.780000", "110630.780000", "110631.780000", "110632.780000", "110633.780000", "110634.780000", "110635.780000", "110636.780000", "110637.780000", "110638.780000", "110639.780000", "110640.780000", "110641.780000", "110642.780000", "110643.780000", "110644.780000", "110645.780000", "110646.780000", "110647.780000", "110648.780000", "110649.780000", "110650.780000", "110651.780000", "110652.780000", "110653.780000", "110654.780000", "110655.780000", "110656.780000", "110657.780000", "110658.780000", "110659.780000", "110700.780000", "110701.780000", "110702.780000", "110703.780000", "110704.780000", "110705.780000", "110706.780000", "110707.780000", "110708.780000", "110709.780000", "110710.780000", "110711.780000", "110712.780000", "110713.780000", "110714.780000", "110715.780000", "110716.780000", "110717.780000", "110718.780000", "110719.780000", "110720.780000", "110721.780000", "110722.780000", "110723.780000", "110724.780000", "110725.780000", "110726.780000", "110727.780000", "110728.780000", "110729.780000", "110730.780000", "110731.780000", "110732.780000", "110733.780000", "110734.780000", "110735.780000", "110736.780000", "110737.780000", "110738.780000", "110739.780000", "110740.780000", "110741.780000", "110742.780000", "110743.780000", "110744.780000", "110745.780000", "110746.780000", "110747.780000", "110748.780000", "110749.780000", "110750.780000", "110751.780000", "110752.780000", "110753.780000", "110754.780000", "110755.780000", "110756.780000", "110757.780000", "110758.780000", "110759.780000", "110800.780000", "110801.780000", "110802.780000", "110803.780000", "110804.780000", "110805.780000", "110806.780000", "110807.780000", "110808.780000", "110809.780000", "110810.780000", "110811.780000", "110812.780000", "110813.780000", "110814.780000", "110815.780000", "110816.780000", "110817.780000", "110818.780000", "110819.780000", "110820.780000", "110821.780000", "110822.780000", "110823.780000", "110824.780000", "110825.780000", "110826.780000", "110827.780000", "110828.780000", "110829.780000", "110830.780000", "110831.780000", "110832.780000", "110833.780000", "110834.780000", "110835.780000", "110836.780000", "110837.780000", "110838.780000", "110839.780000", "110840.780000", "110841.780000", "110842.780000", "110843.780000", "110844.780000", "110845.780000", "110846.780000", "110847.780000", "110848.780000", "110849.780000", "110850.780000", "110851.780000", "110852.780000", "110853.780000", "110854.780000", "110855.780000", "110856.780000", "110857.780000", "110858.780000", "110859.780000", "110900.780000", "110901.780000", "110902.780000", "110903.780000", "110904.780000", "110905.780000", "110906.780000", "110907.780000", "110908.780000", "110909.780000", "110910.780000", "110911.780000", "110912.780000", "110913.780000", "110914.780000", "110915.780000", "110916.780000", "110917.780000", "110918.780000", "110919.780000", "110920.780000", "110921.780000", "110922.780000", "110923.780000", "110924.780000", "110925.780000", "110926.780000", "110927.780000", "110928.780000", "110929.780000", "110930.780000", "110931.780000", "110932.780000", "110933.780000", "110934.780000", "110935.780000", "110936.780000", "110937.780000", "110938.780000", "110939.780000", "110940.780000", "110941.780000", "110942.780000", "110943.780000", "110944.780000", "110945.780000", "110946.780000", "110947.780000", "110948.780000", "110949.780000", "110950.780000", "110951.780000", "110952.780000", "110953.780000", "110954.780000", "110955.780000", "110956.780000", "110957.780000", "110958.780000", "110959.780000", "111000.780000", "111001.780000", "111002.780000", "111003.780000", "111004.780000", "111005.780000", "111006.780000", "111007.780000", "111008.780000", "111009.780000", "111010.780000", "111011.780000", "111012.780000", "111013.780000", "111014.780000", "111015.780000", "111016.780000", "111017.780000", "111018.780000", "111019.780000", "111020.780000", "111021.780000", "111022.780000", "111023.780000", "111024.780000", "111025.780000", "111026.780000", "111027.780000", "111028.780000", "111029.780000", "111030.780000", "111031.780000", "111032.780000", "111033.780000", "111034.780000", "111035.780000", "111036.780000", "111037.780000", "111038.780000", "111039.780000", "111040.780000", "111041.780000", "111042.780000", "111043.780000", "111044.780000", "111045.780000", "111046.780000", "111047.780000", "111048.780000", "111049.780000", "111050.780000", "111051.780000", "111052.780000", "111053.780000", "111054.780000", "111055.780000", "111056.780000", "111057.780000", "111058.780000", "111059.780000", "111100.780000", "111101.780000", "111102.780000", "111103.780000", "111104.780000", "111105.780000", "111106.780000", "111107.780000", "111108.780000"],
      "ContentTime": ["110548.889000", "110548.892000", "110548.895000", "110548.897000", "110548.900000", "110548.902000", "110548.905000", "110548.908000", "110548.910000", "110548.921000", "110548.923000", "110548.926000", "110548.928000", "110548.931000", "110548.933000", "110548.936000", "110548.938000", "110548.941000", "110548.944000", "110548.946000", "110548.949000", "110548.951000", "110548.954000", "110548.956000", "110548.959000", "110548.961000", "110548.964000", "110548.966000", "110548.969000", "110549.000000", "110549.002000", "110549.005000", "110549.007000", "110549.010000", "110608.859000", "110608.862000", "110608.864000", "110608.867000", "110608.869000", "110608.872000", "110608.874000", "110608.877000", "110608.879000", "110608.882000", "110608.884000", "110608.887000", "110608.889000", "110608.892000", "110608.894000", "110608.897000", "110608.899000", "110608.902000", "110608.904000", "110608.907000", "110628.859000", "110628.862000", "110628.864000", "110628.867000", "110628.870000", "110628.872000", "110628.875000", "110628.878000", "110628.880000", "110628.883000", "110628.885000", "110628.888000", "110628.890000", "110628.893000", "110628.905000", "110628.908000", "110628.910000", "110628.913000", "110628.915000", "110628.918000", "110648.860000", "110648.862000", "110648.865000", "110648.867000", "110648.870000", "110648.872000", "110648.884000", "110648.886000", "110648.889000", "110648.891000", "110648.894000", "110648.896000", "110648.899000", "110648.901000", "110648.904000", "110648.906000", "110648.909000", "110648.911000", "110648.914000", "110648.916000", "110708.859000", "110708.861000", "110708.864000", "110708.866000", "110708.869000", "110708.871000", "110708.874000", "110708.876000", "110708.879000", "110708.881000", "110708.884000", "110708.886000", "110708.889000", "110708.891000", "110708.897000", "110708.900000", "110708.902000", "110708.905000", "110708.907000", "110708.910000", "110728.858000", "110728.861000", "110728.863000", "110728.866000", "110728.869000", "110728.871000", "110728.874000", "110728.876000", "110728.879000", "110728.881000", "110728.884000", "110728.886000", "110728.889000", "110728.891000", "110728.894000", "110728.896000", "110728.899000", "110728.901000", "110728.904000", "110728.906000", "110748.858000", "110748.861000", "110748.864000", "110748.866000", "110748.869000", "110748.871000", "110748.874000", "110748.876000", "110748.879000", "110748.881000", "110748.884000", "110748.886000", "110748.889000", "110748.891000", "110748.894000", "110748.896000", "110748.899000", "110748.901000", "110748.904000", "110748.906000", "110808.858000", "110808.861000", "110808.864000", "110808.866000", "110808.869000", "110808.871000", "110808.874000", "110808.877000", "110808.879000", "110808.882000", "110808.884000", "110808.887000", "110808.889000", "110808.892000", "110808.894000", "110808.897000", "110808.899000", "110808.902000", "110808.904000", "110808.907000", "110828.859000", "110828.862000", "110828.864000", "110828.867000", "110828.870000", "110828.872000", "110828.875000", "110828.878000", "110828.880000", "110828.882000", "110828.885000", "110828.888000", "110828.890000", "110828.893000", "110828.895000", "110828.898000", "110828.900000", "110828.903000", "110828.905000", "110828.908000", "110848.861000", "110848.864000", "110848.866000", "110848.869000", "110848.872000", "110848.874000", "110848.877000", "110848.879000", "110848.882000", "110848.884000", "110848.887000", "110848.889000", "110848.892000", "110848.894000", "110848.897000", "110848.899000", "110848.902000", "110848.904000", "110848.907000", "110848.909000", "110908.858000", "110908.954000", "110908.956000", "110908.959000", "110908.962000", "110908.964000", "110908.967000", "110908.969000", "110908.972000", "110908.974000", "110908.976000", "110908.979000", "110908.982000", "110908.984000", "110908.986000", "110908.989000", "110908.992000", "110908.994000", "110908.997000", "110909.000000", "110928.858000", "110928.861000", "110928.864000", "110928.867000", "110928.869000", "110928.871000", "110928.874000", "110928.877000", "110928.879000", "110928.882000", "110928.884000", "110928.887000", "110928.900000", "110928.902000", "110928.905000", "110928.907000", "110928.910000", "110928.912000", "110928.915000", "110928.917000", "110948.858000", "110948.861000", "110948.863000", "110948.866000", "110948.869000", "110948.871000", "110948.874000", "110948.876000", "110948.879000", "110948.881000", "110948.884000", "110948.886000", "110948.889000", "110948.891000", "110948.894000", "110948.896000", "110948.899000", "110948.901000", "110948.904000", "110948.906000", "111008.858000", "111008.861000", "111008.864000", "111008.866000", "111008.869000", "111008.871000", "111008.874000", "111008.877000", "111008.879000", "111008.882000", "111008.884000", "111008.887000", "111008.889000", "111008.892000", "111008.894000", "111008.897000", "111008.899000", "111008.902000", "111008.904000", "111008.907000", "111028.858000", "111028.861000", "111028.864000", "111028.866000", "111028.869000", "111028.871000", "111028.874000", "111028.876000", "111028.879000", "111028.881000", "111028.884000", "111028.886000", "111028.889000", "111028.891000", "111028.894000", "111028.897000", "111028.899000", "111028.901000", "111028.904000", "111028.906000", "111048.859000", "111048.862000", "111048.865000", "111048.868000", "111048.870000", "111048.873000", "111048.875000", "111048.878000", "111048.880000", "111048.883000", "111048.885000", "111048.888000", "111048.890000", "111048.893000", "111048.895000", "111048.898000", "111048.900000", "111048.903000", "111048.905000", "111048.908000", "111108.859000", "111108.862000", "111108.865000", "111108.868000", "111108.870000", "111108.873000", "111108.875000", "111108.885000", "111108.888000", "111108.890000", "111108.893000", "111108.895000", "111108.898000", "111108.900000", "111108.903000", "111108.905000", "111108.908000", "111108.911000", "111108.913000", "111108.916000", "111110.700000", "111110.702000"],
      "InstanceCreationTime": ["110548.889000", "110548.892000", "110548.895000", "110548.897000", "110548.900000", "110548.902000", "110548.905000", "110548.908000", "110548.910000", "110548.921000", "110548.923000", "110548.926000", "110548.928000", "110548.931000", "110548.933000", "110548.936000", "110548.938000", "110548.941000", "110548.944000", "110548.946000", "110548.949000", "110548.951000", "110548.954000", "110548.956000", "110548.959000", "110548.961000", "110548.964000", "110548.966000", "110548.969000", "110549.000000", "110549.002000", "110549.005000", "110549.007000", "110549.010000", "110608.859000", "110608.862000", "110608.864000", "110608.867000", "110608.869000", "110608.872000", "110608.874000", "110608.877000", "110608.879000", "110608.882000", "110608.884000", "110608.887000", "110608.889000", "110608.892000", "110608.894000", "110608.897000", "110608.899000", "110608.902000", "110608.904000", "110608.907000", "110628.859000", "110628.862000", "110628.864000", "110628.867000", "110628.870000", "110628.872000", "110628.875000", "110628.878000", "110628.880000", "110628.883000", "110628.885000", "110628.888000", "110628.890000", "110628.893000", "110628.905000", "110628.908000", "110628.910000", "110628.913000", "110628.915000", "110628.918000", "110648.860000", "110648.862000", "110648.865000", "110648.867000", "110648.870000", "110648.872000", "110648.884000", "110648.886000", "110648.889000", "110648.891000", "110648.894000", "110648.896000", "110648.899000", "110648.901000", "110648.904000", "110648.906000", "110648.909000", "110648.911000", "110648.914000", "110648.916000", "110708.859000", "110708.861000", "110708.864000", "110708.866000", "110708.869000", "110708.871000", "110708.874000", "110708.876000", "110708.879000", "110708.881000", "110708.884000", "110708.886000", "110708.889000", "110708.891000", "110708.897000", "110708.900000", "110708.902000", "110708.905000", "110708.907000", "110708.910000", "110728.858000", "110728.861000", "110728.863000", "110728.866000", "110728.869000", "110728.871000", "110728.874000", "110728.876000", "110728.879000", "110728.881000", "110728.884000", "110728.886000", "110728.889000", "110728.891000", "110728.894000", "110728.896000", "110728.899000", "110728.901000", "110728.904000", "110728.906000", "110748.858000", "110748.861000", "110748.864000", "110748.866000", "110748.869000", "110748.871000", "110748.874000", "110748.876000", "110748.879000", "110748.881000", "110748.884000", "110748.886000", "110748.889000", "110748.891000", "110748.894000", "110748.896000", "110748.899000", "110748.901000", "110748.904000", "110748.906000", "110808.858000", "110808.861000", "110808.864000", "110808.866000", "110808.869000", "110808.871000", "110808.874000", "110808.877000", "110808.879000", "110808.882000", "110808.884000", "110808.887000", "110808.889000", "110808.892000", "110808.894000", "110808.897000", "110808.899000", "110808.902000", "110808.904000", "110808.907000", "110828.859000", "110828.862000", "110828.864000", "110828.867000", "110828.870000", "110828.872000", "110828.875000", "110828.878000", "110828.880000", "110828.882000", "110828.885000", "110828.888000", "110828.890000", "110828.893000", "110828.895000", "110828.898000", "110828.900000", "110828.903000", "110828.905000", "110828.908000", "110848.861000", "110848.864000", "110848.866000", "110848.869000", "110848.872000", "110848.874000", "110848.877000", "110848.879000", "110848.882000", "110848.884000", "110848.887000", "110848.889000", "110848.892000", "110848.894000", "110848.897000", "110848.899000", "110848.902000", "110848.904000", "110848.907000", "110848.909000", "110908.858000", "110908.954000", "110908.956000", "110908.959000", "110908.962000", "110908.964000", "110908.967000", "110908.969000", "110908.972000", "110908.974000", "110908.976000", "110908.979000", "110908.982000", "110908.984000", "110908.986000", "110908.989000", "110908.992000", "110908.994000", "110908.997000", "110909.000000", "110928.858000", "110928.861000", "110928.864000", "110928.867000", "110928.869000", "110928.871000", "110928.874000", "110928.877000", "110928.879000", "110928.882000", "110928.884000", "110928.887000", "110928.900000", "110928.902000", "110928.905000", "110928.907000", "110928.910000", "110928.912000", "110928.915000", "110928.917000", "110948.858000", "110948.861000", "110948.863000", "110948.866000", "110948.869000", "110948.871000", "110948.874000", "110948.876000", "110948.879000", "110948.881000", "110948.884000", "110948.886000", "110948.889000", "110948.891000", "110948.894000", "110948.896000", "110948.899000", "110948.901000", "110948.904000", "110948.906000", "111008.858000", "111008.861000", "111008.864000", "111008.866000", "111008.869000", "111008.871000", "111008.874000", "111008.877000", "111008.879000", "111008.882000", "111008.884000", "111008.887000", "111008.889000", "111008.892000", "111008.894000", "111008.897000", "111008.899000", "111008.902000", "111008.904000", "111008.907000", "111028.858000", "111028.861000", "111028.864000", "111028.866000", "111028.869000", "111028.871000", "111028.874000", "111028.876000", "111028.879000", "111028.881000", "111028.884000", "111028.886000", "111028.889000", "111028.891000", "111028.894000", "111028.897000", "111028.899000", "111028.901000", "111028.904000", "111028.906000", "111048.859000", "111048.862000", "111048.865000", "111048.868000", "111048.870000", "111048.873000", "111048.875000", "111048.878000", "111048.880000", "111048.883000", "111048.885000", "111048.888000", "111048.890000", "111048.893000", "111048.895000", "111048.898000", "111048.900000", "111048.903000", "111048.905000", "111048.908000", "111108.859000", "111108.862000", "111108.865000", "111108.868000", "111108.870000", "111108.873000", "111108.875000", "111108.885000", "111108.888000", "111108.890000", "111108.893000", "111108.895000", "111108.898000", "111108.900000", "111108.903000", "111108.905000", "111108.908000", "111108.911000", "111108.913000", "111108.916000", "111110.700000", "111110.702000"],
      "InstanceNumber": [1, 2, 3, 4, 5, 6, 7, 8, 9, 10, 11, 12, 13, 14, 15, 16, 17, 18, 19, 20, 21, 22, 23, 24, 25, 26, 27, 28, 29, 30, 31, 32, 33, 34, 35, 36, 37, 38, 39, 40, 41, 42, 43, 44, 45, 46, 47, 48, 49, 50, 51, 52, 53, 54, 55, 56, 57, 58, 59, 60, 61, 62, 63, 64, 65, 66, 67, 68, 69, 70, 71, 72, 73, 74, 75, 76, 77, 78, 79, 80, 81, 82, 83, 84, 85, 86, 87, 88, 89, 90, 91, 92, 93, 94, 95, 96, 97, 98, 99, 100, 101, 102, 103, 104, 105, 106, 107, 108, 109, 110, 111, 112, 113, 114, 115, 116, 117, 118, 119, 120, 121, 122, 123, 124, 125, 126, 127, 128, 129, 130, 131, 132, 133, 134, 135, 136, 137, 138, 139, 140, 141, 142, 143, 144, 145, 146, 147, 148, 149, 150, 151, 152, 153, 154, 155, 156, 157, 158, 159, 160, 161, 162, 163, 164, 165, 166, 167, 168, 169, 170, 171, 172, 173, 174, 175, 176, 177, 178, 179, 180, 181, 182, 183, 184, 185, 186, 187, 188, 189, 190, 191, 192, 193, 194, 195, 196, 197, 198, 199, 200, 201, 202, 203, 204, 205, 206, 207, 208, 209, 210, 211, 212, 213, 214, 215, 216, 217, 218, 219, 220, 221, 222, 223, 224, 225, 226, 227, 228, 229, 230, 231, 232, 233, 234, 235, 236, 237, 238, 239, 240, 241, 242, 243, 244, 245, 246, 247, 248, 249, 250, 251, 252, 253, 254, 255, 256, 257, 258, 259, 260, 261, 262, 263, 264, 265, 266, 267, 268, 269, 270, 271, 272, 273, 274, 275, 276, 277, 278, 279, 280, 281, 282, 283, 284, 285, 286, 287, 288, 289, 290, 291, 292, 293, 294, 295, 296, 297, 298, 299, 300, 301, 302, 303, 304, 305, 306, 307, 308, 309, 310, 311, 312, 313, 314, 315, 316, 317, 318, 319, 320, 321, 322, 323, 324, 325, 326, 327, 328, 329, 330, 331, 332, 333, 334, 335, 336, 337, 338, 339, 340, 341, 342, 343, 344, 345, 346, 347, 348, 349, 350, 351, 352, 353, 354, 355, 356],
      "LargestImagePixelValue": [10062, 9872, 9967, 9794, 10211, 9662, 9507, 9479, 9846, 10094, 9551, 9695, 9634, 9385, 9448, 9446, 9527, 9974, 10134, 10448, 9908, 10617, 10139, 10727, 10015, 9930, 9810, 9282, 9297, 9407, 9333, 9674, 9853, 9891, 9508, 10822, 9730, 9862, 9509, 9253, 9411, 9538, 10835, 11362, 11526, 11415, 10822, 9269, 11943, 10811, 10544, 10418, 9732, 9268, 9760, 9448, 11256, 11301, 9352, 11006, 11789, 11324, 12402, 11087, 10114, 9820, 9302, 9993, 10157, 9607, 10439, 9746, 10564, 11398, 10842, 11878, 9961, 10357, 10176, 10067, 10334, 10696, 9701, 10075, 11414, 10538, 9337, 10297, 9684, 9751, 9652, 9757, 10113, 9659, 9581, 10085, 11288, 11719, 12397, 10185, 11162, 11982, 12466, 10158, 10756, 10321, 9343, 9988, 9884, 9556, 9841, 9825, 12343, 10957, 10656, 10250, 10640, 10509, 10537, 10573, 10563, 9433, 10133, 10474, 11637, 9793, 9673, 11900, 9904, 10903, 13008, 10274, 10087, 9849, 9440, 10315, 9690, 10195, 12426, 9864, 12621, 12301, 10596, 10617, 10964, 10481, 10295, 9716, 9931, 9919, 10192, 10406, 11471, 12490, 12672, 9903, 11203, 12757, 11211, 10527, 10266, 10673, 10317, 10425, 10747, 10511, 10573, 10399, 10176, 9469, 10294, 9973, 10180, 10195, 10246, 11090, 12166, 9734, 12385, 10407, 10355, 10028, 9589, 9764, 10328, 10240, 11124, 11193, 11007, 11427, 11957, 11347, 9902, 11422, 11676, 12025, 10068, 10680, 9996, 9850, 9762, 9713, 9444, 9813, 9964, 9775, 9710, 9990, 10126, 10608, 10478, 11778, 9890, 11643, 10343, 10808, 10088, 9901, 9868, 9955, 10046, 9491, 9543, 9945, 9834, 9960, 9990, 10300, 10028, 10727, 11574, 11619, 9641, 11193, 9516, 9550, 11871, 11570, 10729, 10843, 10319, 9390, 9793, 10219, 9640, 9798, 9853, 9755, 9745, 10029, 10955, 11899, 9729, 10564, 10129, 10225, 9902, 9892, 10577, 10657, 10501, 10684, 12252, 10615, 10694, 10817, 10822, 10438, 10775, 10582, 10401, 9617, 9543, 9499, 9646, 10432, 9797, 9829, 11786, 11721, 11327, 12058, 10041, 11163, 12282, 10333, 10409, 10767, 11136, 10070, 10086, 10081, 10251, 9785, 10204, 10178, 10137, 9991, 9916, 9996, 10022, 10048, 10001, 10143, 11309, 10138, 9933, 10426, 10194, 10970, 10252, 10027, 10006, 9938, 9985, 10953, 11198, 11131, 10997, 9798, 9721, 9287, 9555, 9767, 10628, 11737, 11672, 10437, 10726, 10095, 10443, 12577, 9804, 9912, 9498, 9942, 10810, 11596, 12100, 11830, 11428, 10599, 10661, 10873, 10199, 10386, 12305, 10541, 10989, 11891, 12119, 11809, 11910, 12015, 11657, 11163],
