{
  "AcquisitionMatrixPE": 106,
  "AcquisitionNumber": 1,
  "AcquisitionTime": "11:12:52.652500",
  "BandwidthPerPixelPhaseEncode": 16.846,
  "BaseResolution": 106,
  "BodyPartExamined": "BRAIN",
  "CoilCombinationMethod": "Sum of Squares",
  "ConsistencyInfo": "N4_VE11C_LATEST_20160120",
  "ConversionSoftware": "dcm2niix",
  "ConversionSoftwareVersion": "v1.0.20220720",
  "DerivedVendorReportedEchoSpacing": 0.000560012,
  "DeviceSerialNumber": "166108",
  "DwellTime": 1.8e-06,
  "EchoTime": 0.0352,
  "EchoTrainLength": 106,
  "EffectiveEchoSpacing": 0.000560012,
  "FlipAngle": 60,
  "HeudiconvVersion": "1.3.0",
  "ImageComments": "Unaliased MB4/PE3/LB",
  "ImageOrientationPatientDICOM": [1, 0, 0, 0, 0.961741, -0.273959],
  "ImageOrientationText": "Tra>Cor(-15.9)",
  "ImageType": [
    "ORIGINAL",
    "PRIMARY",
    "M",
    "MB",
    "ND",
    "MOSAIC"
],
  "ImagingFrequency": 123.244,
  "InPlanePhaseEncodingDirectionDICOM": "COL",
  "InstitutionAddress": "Bedford Way 26,London,London,GB,WC1H 0AP",
  "InstitutionName": "University College",
  "InstitutionalDepartmentName": "Department",
  "MRAcquisitionType": "2D",
  "MagneticFieldStrength": 3,
  "Manufacturer": "Siemens",
  "ManufacturersModelName": "Prisma",
  "MatrixCoilMode": "SENSE",
  "Modality": "MR",
  "MultibandAccelerationFactor": 4,
  "NonlinearGradientCorrection": false,
  "PartialFourier": 1,
  "PatientPosition": "HFS",
  "PercentPhaseFOV": 100,
  "PercentSampling": 100,
  "PhaseEncodingDirection": "j-",
  "PhaseEncodingSteps": 106,
  "PhaseResolution": 1,
  "PixelBandwidth": 2620,
  "ProcedureStepDescription": "Egor^MovieProject2",
  "ProtocolName": "func-bold_task-pRF_run-03",
  "PulseSequenceDetails": "%CustomerSeq%\\cmrr_mbep2d_bold",
  "ReceiveCoilActiveElements": "HEA;HEP",
  "ReceiveCoilName": "Head_32",
  "ReconMatrixPE": 106,
  "RepetitionTime": 1,
  "SAR": 0.0803932,
  "ScanOptions": "FS\\EXT",
  "ScanningSequence": "EP",
  "SequenceName": "epfid2d1_106",
  "SequenceVariant": "SK\\SS",
  "SeriesDescription": "func-bold_task-pRF_run-03",
  "SeriesNumber": 14,
  "ShimSetting": [-1536, 601, 7361, 75, -109, 119, 254, -40],
  "SliceThickness": 2,
  "SliceTiming": [0, 0.41, 0.8175, 0.245, 0.655, 0.0825, 0.49, 0.9, 0.3275, 0.735, 0.165, 0.5725, 0, 0.41, 0.8175, 0.245, 0.655, 0.0825, 0.49, 0.9, 0.3275, 0.735, 0.165, 0.5725, 0, 0.41, 0.8175, 0.245, 0.655, 0.0825, 0.49, 0.9, 0.3275, 0.735, 0.165, 0.5725, 0, 0.41, 0.8175, 0.245, 0.655, 0.0825, 0.49, 0.9, 0.3275, 0.735, 0.165, 0.5725],
  "SoftwareVersions": "syngo MR E11",
  "SpacingBetweenSlices": 2,
  "StationName": "AWP166108",
  "TaskName": "retinotopy",
  "TotalReadoutTime": 0.0588013,
  "TxRefAmp": 263.919,
  "WipMemBlock": "fdbe5269-5c31-4917-95c2-a483f945edf9||Sequence: R016 ve11c/master r/e634e98; Dec 19 2017 11:00:25 by eja",
  "dcmmeta_affine": [
    [-2.0, 0.0, 0.0, 106.0],
    [0.0, 1.9234826564788818, -0.547918438911438, -79.74260711669922],
    [0.0, 0.547918438911438, 1.9234826564788818, -45.934566497802734],
    [0.0, 0.0, 0.0, 1.0]
],
  "dcmmeta_reorient_transform": [
    [0.0, -1.0, 0.0, 105.0],
    [1.0, 0.0, 0.0, 0.0],
    [0.0, 0.0, 1.0, 0.0],
    [0.0, 0.0, 0.0, 1.0]
],
  "dcmmeta_shape": [106, 106, 48, 356],
  "dcmmeta_slice_dim": 2,
  "dcmmeta_version": 0.6,
  "global": {
    "const": {
      "AcquisitionMatrix": [106, 0, 0, 106],
      "AngioFlag": "N",
      "BitsAllocated": 16,
      "BitsStored": 16,
      "BodyPartExamined": "BRAIN",
      "CardiacNumberOfImages": 1,
      "Columns": 742,
      "EchoNumbers": 1,
      "EchoTime": 35.2,
      "EchoTrainLength": 106,
      "FlipAngle": 60.0,
      "HighBit": 15,
      "ImageOrientationPatient": [1.0, 0.0, 0.0, 0.0, 0.96174130993141, -0.2739592173507],
      "ImagePositionPatient": [-742.0, -733.89054394298, 185.83493303033],
      "ImageType": [
        "ORIGINAL",
        "PRIMARY",
        "M",
        "MB",
        "ND",
        "MOSAIC"
],
      "ImagedNucleus": "1H",
      "ImagingFrequency": 123.243639,
      "InPlanePhaseEncodingDirection": "COL",
      "MRAcquisitionType": "2D",
      "MagneticFieldStrength": 3.0,
      "Manufacturer": "SIEMENS",
      "ManufacturerModelName": "Prisma",
      "Modality": "MR",
      "NominalInterval": 0,
      "NumberOfAverages": 1.0,
      "NumberOfPhaseEncodingSteps": 106,
      "PercentPhaseFieldOfView": 100.0,
      "PercentSampling": 100.0,
      "PerformedProcedureStepStartTime": "101421.254000",
      "PhotometricInterpretation": "MONOCHROME2",
      "PixelBandwidth": 2620.0,
      "PixelRepresentation": 0,
      "PixelSpacing": [2.0, 2.0],
      "ProtocolName": "func-bold_task-pRF_run-03",
      "RepetitionTime": 1000.0,
      "Rows": 742,
      "SAR": 0.08039319494877,
      "SamplesPerPixel": 1,
      "ScanOptions": [
        "FS",
        "EXT"
],
      "ScanningSequence": "EP",
      "SequenceName": "epfid2d1_106",
      "SequenceVariant": [
        "SK",
        "SS"
],
      "SeriesDescription": "func-bold_task-pRF_run-03",
      "SeriesNumber": 14,
      "SeriesTime": "111328.954000",
      "SliceLocation": -22.330947116101,
      "SliceThickness": 2.0,
      "SmallestImagePixelValue": 0,
      "SoftwareVersions": "syngo MR E11",
      "SpacingBetweenSlices": 1.9999999875966,
      "SpecificCharacterSet": "ISO_IR 100",
      "StudyID": "1",
      "StudyTime": "101421.196000",
      "TransmitCoilName": "Body",
      "VariableFlipAngleFlag": "N",
      "WindowCenterWidthExplanation": "Algo1",
      "dBdt": 0.0},
    "slices": {}
  },
  "time": {
    "samples": {
      "AcquisitionNumber": [1, 2, 3, 4, 5, 6, 7, 8, 9, 10, 11, 12, 13, 14, 15, 16, 17, 18, 19, 20, 21, 22, 23, 24, 25, 26, 27, 28, 29, 30, 31, 32, 33, 34, 35, 36, 37, 38, 39, 40, 41, 42, 43, 44, 45, 46, 47, 48, 49, 50, 51, 52, 53, 54, 55, 56, 57, 58, 59, 60, 61, 62, 63, 64, 65, 66, 67, 68, 69, 70, 71, 72, 73, 74, 75, 76, 77, 78, 79, 80, 81, 82, 83, 84, 85, 86, 87, 88, 89, 90, 91, 92, 93, 94, 95, 96, 97, 98, 99, 100, 101, 102, 103, 104, 105, 106, 107, 108, 109, 110, 111, 112, 113, 114, 115, 116, 117, 118, 119, 120, 121, 122, 123, 124, 125, 126, 127, 128, 129, 130, 131, 132, 133, 134, 135, 136, 137, 138, 139, 140, 141, 142, 143, 144, 145, 146, 147, 148, 149, 150, 151, 152, 153, 154, 155, 156, 157, 158, 159, 160, 161, 162, 163, 164, 165, 166, 167, 168, 169, 170, 171, 172, 173, 174, 175, 176, 177, 178, 179, 180, 181, 182, 183, 184, 185, 186, 187, 188, 189, 190, 191, 192, 193, 194, 195, 196, 197, 198, 199, 200, 201, 202, 203, 204, 205, 206, 207, 208, 209, 210, 211, 212, 213, 214, 215, 216, 217, 218, 219, 220, 221, 222, 223, 224, 225, 226, 227, 228, 229, 230, 231, 232, 233, 234, 235, 236, 237, 238, 239, 240, 241, 242, 243, 244, 245, 246, 247, 248, 249, 250, 251, 252, 253, 254, 255, 256, 257, 258, 259, 260, 261, 262, 263, 264, 265, 266, 267, 268, 269, 270, 271, 272, 273, 274, 275, 276, 277, 278, 279, 280, 281, 282, 283, 284, 285, 286, 287, 288, 289, 290, 291, 292, 293, 294, 295, 296, 297, 298, 299, 300, 301, 302, 303, 304, 305, 306, 307, 308, 309, 310, 311, 312, 313, 314, 315, 316, 317, 318, 319, 320, 321, 322, 323, 324, 325, 326, 327, 328, 329, 330, 331, 332, 333, 334, 335, 336, 337, 338, 339, 340, 341, 342, 343, 344, 345, 346, 347, 348, 349, 350, 351, 352, 353, 354, 355, 356],
      "AcquisitionTime": ["111252.652500", "111253.652500", "111254.652500", "111255.652500", "111256.652500", "111257.652500", "111258.652500", "111259.652500", "111300.652500", "111301.652500", "111302.652500", "111303.652500", "111304.652500", "111305.652500", "111306.652500", "111307.652500", "111308.652500", "111309.652500", "111310.652500", "111311.652500", "111312.652500", "111313.652500", "111314.652500", "111315.652500", "111316.652500", "111317.652500", "111318.652500", "111319.652500", "111320.652500", "111321.652500", "111322.652500", "111323.652500", "111324.652500", "111325.652500", "111326.652500", "111327.652500", "111328.652500", "111329.652500", "111330.652500", "111331.652500", "111332.652500", "111333.652500", "111334.652500", "111335.652500", "111336.652500", "111337.652500", "111338.652500", "111339.652500", "111340.652500", "111341.652500", "111342.652500", "111343.652500", "111344.652500", "111345.652500", "111346.652500", "111347.652500", "111348.652500", "111349.652500", "111350.652500", "111351.652500", "111352.652500", "111353.652500", "111354.652500", "111355.652500", "111356.652500", "111357.652500", "111358.652500", "111359.652500", "111400.652500", "111401.652500", "111402.652500", "111403.652500", "111404.652500", "111405.652500", "111406.652500", "111407.652500", "111408.652500", "111409.652500", "111410.652500", "111411.652500", "111412.652500", "111413.652500", "111414.652500", "111415.652500", "111416.652500", "111417.652500", "111418.652500", "111419.652500", "111420.652500", "111421.652500", "111422.652500", "111423.652500", "111424.652500", "111425.652500", "111426.652500", "111427.652500", "111428.652500", "111429.652500", "111430.652500", "111431.652500", "111432.652500", "111433.652500", "111434.652500", "111435.652500", "111436.652500", "111437.652500", "111438.652500", "111439.652500", "111440.652500", "111441.652500", "111442.652500", "111443.652500", "111444.652500", "111445.652500", "111446.652500", "111447.652500", "111448.652500", "111449.652500", "111450.652500", "111451.652500", "111452.652500", "111453.652500", "111454.652500", "111455.652500", "111456.652500", "111457.652500", "111458.652500", "111459.652500", "111500.652500", "111501.652500", "111502.652500", "111503.652500", "111504.652500", "111505.652500", "111506.652500", "111507.652500", "111508.652500", "111509.652500", "111510.652500", "111511.652500", "111512.652500", "111513.652500", "111514.652500", "111515.652500", "111516.652500", "111517.652500", "111518.652500", "111519.652500", "111520.652500", "111521.652500", "111522.652500", "111523.652500", "111524.652500", "111525.652500", "111526.652500", "111527.652500", "111528.652500", "111529.652500", "111530.652500", "111531.652500", "111532.652500", "111533.652500", "111534.652500", "111535.652500", "111536.652500", "111537.652500", "111538.652500", "111539.652500", "111540.652500", "111541.652500", "111542.652500", "111543.652500", "111544.652500", "111545.652500", "111546.652500", "111547.652500", "111548.652500", "111549.652500", "111550.652500", "111551.652500", "111552.652500", "111553.652500", "111554.652500", "111555.652500", "111556.652500", "111557.652500", "111558.652500", "111559.652500", "111600.652500", "111601.652500", "111602.652500", "111603.652500", "111604.652500", "111605.652500", "111606.652500", "111607.652500", "111608.652500", "111609.652500", "111610.652500", "111611.652500", "111612.652500", "111613.652500", "111614.652500", "111615.652500", "111616.652500", "111617.652500", "111618.652500", "111619.652500", "111620.652500", "111621.652500", "111622.652500", "111623.652500", "111624.652500", "111625.652500", "111626.652500", "111627.652500", "111628.652500", "111629.652500", "111630.652500", "111631.652500", "111632.652500", "111633.652500", "111634.652500", "111635.652500", "111636.652500", "111637.652500", "111638.652500", "111639.652500", "111640.652500", "111641.652500", "111642.652500", "111643.652500", "111644.652500", "111645.652500", "111646.652500", "111647.652500", "111648.652500", "111649.652500", "111650.652500", "111651.652500", "111652.652500", "111653.652500", "111654.652500", "111655.652500", "111656.652500", "111657.652500", "111658.652500", "111659.652500", "111700.652500", "111701.652500", "111702.652500", "111703.652500", "111704.652500", "111705.652500", "111706.652500", "111707.652500", "111708.652500", "111709.652500", "111710.652500", "111711.652500", "111712.652500", "111713.652500", "111714.652500", "111715.652500", "111716.652500", "111717.652500", "111718.652500", "111719.652500", "111720.652500", "111721.652500", "111722.652500", "111723.652500", "111724.652500", "111725.652500", "111726.652500", "111727.652500", "111728.652500", "111729.652500", "111730.652500", "111731.652500", "111732.652500", "111733.652500", "111734.652500", "111735.652500", "111736.652500", "111737.652500", "111738.652500", "111739.652500", "111740.652500", "111741.652500", "111742.652500", "111743.652500", "111744.652500", "111745.652500", "111746.652500", "111747.652500", "111748.652500", "111749.652500", "111750.652500", "111751.652500", "111752.652500", "111753.652500", "111754.652500", "111755.652500", "111756.652500", "111757.652500", "111758.652500", "111759.652500", "111800.652500", "111801.652500", "111802.652500", "111803.652500", "111804.652500", "111805.652500", "111806.652500", "111807.652500", "111808.652500", "111809.652500", "111810.652500", "111811.652500", "111812.652500", "111813.652500", "111814.652500", "111815.652500", "111816.652500", "111817.652500", "111818.652500", "111819.652500", "111820.652500", "111821.652500", "111822.652500", "111823.652500", "111824.652500", "111825.652500", "111826.652500", "111827.652500", "111828.652500", "111829.652500", "111830.652500", "111831.652500", "111832.652500", "111833.652500", "111834.652500", "111835.652500", "111836.652500", "111837.652500", "111838.652500", "111839.652500", "111840.652500", "111841.652500", "111842.652500", "111843.652500", "111844.652500", "111845.652500", "111846.652500", "111847.652500"],
      "ContentTime": ["111328.957000", "111328.960000", "111328.962000", "111328.965000", "111328.967000", "111328.970000", "111328.972000", "111328.975000", "111328.977000", "111328.980000", "111328.982000", "111328.985000", "111328.987000", "111328.990000", "111328.992000", "111328.995000", "111328.997000", "111329.001000", "111329.003000", "111329.006000", "111329.008000", "111329.017000", "111329.020000", "111329.022000", "111329.025000", "111329.027000", "111329.030000", "111329.044000", "111329.046000", "111329.049000", "111329.051000", "111329.054000", "111329.056000", "111329.059000", "111329.061000", "111348.922000", "111348.924000", "111348.932000", "111348.935000", "111348.937000", "111348.940000", "111348.942000", "111348.945000", "111348.947000", "111348.950000", "111348.952000", "111348.955000", "111348.957000", "111348.960000", "111348.962000", "111348.965000", "111348.968000", "111348.970000", "111348.973000", "111348.975000", "111408.922000", "111408.924000", "111408.927000", "111408.929000", "111408.932000", "111408.934000", "111408.937000", "111408.939000", "111408.942000", "111408.944000", "111408.946000", "111408.949000", "111408.952000", "111408.954000", "111408.956000", "111408.959000", "111408.961000", "111408.964000", "111408.966000", "111408.969000", "111428.921000", "111428.924000", "111428.927000", "111428.929000", "111428.932000", "111428.934000", "111428.937000", "111428.939000", "111428.942000", "111428.944000", "111428.947000", "111428.949000", "111428.952000", "111428.954000", "111428.957000", "111428.959000", "111428.970000", "111428.973000", "111428.975000", "111428.978000", "111448.921000", "111448.924000", "111448.927000", "111448.929000", "111448.932000", "111448.934000", "111448.937000", "111448.939000", "111448.942000", "111448.944000", "111448.946000", "111448.949000", "111448.952000", "111448.954000", "111448.957000", "111448.959000", "111448.962000", "111448.975000", "111448.977000", "111448.980000", "111508.921000", "111508.924000", "111508.927000", "111508.929000", "111508.932000", "111508.934000", "111508.937000", "111508.939000", "111508.942000", "111508.944000", "111508.947000", "111508.949000", "111508.952000", "111508.954000", "111508.957000", "111508.959000", "111508.962000", "111508.964000", "111508.967000", "111508.969000", "111528.922000", "111528.925000", "111528.927000", "111528.930000", "111528.933000", "111528.935000", "111528.938000", "111528.940000", "111528.943000", "111528.945000", "111528.947000", "111528.950000", "111528.953000", "111528.955000", "111528.958000", "111528.960000", "111528.963000", "111528.965000", "111528.968000", "111528.970000", "111548.922000", "111548.925000", "111548.927000", "111548.930000", "111548.933000", "111548.935000", "111548.937000", "111548.940000", "111548.943000", "111548.945000", "111548.948000", "111548.950000", "111548.953000", "111548.955000", "111548.958000", "111548.960000", "111548.963000", "111548.965000", "111548.968000", "111548.970000", "111608.921000", "111608.924000", "111608.927000", "111608.929000", "111608.932000", "111608.934000", "111608.937000", "111608.939000", "111608.942000", "111608.944000", "111608.947000", "111608.949000", "111608.952000", "111608.954000", "111608.957000", "111608.959000", "111608.962000", "111608.964000", "111608.967000", "111608.969000", "111628.921000", "111628.924000", "111628.926000", "111628.929000", "111628.932000", "111628.934000", "111628.937000", "111628.939000", "111628.942000", "111628.944000", "111628.947000", "111628.949000", "111628.952000", "111628.954000", "111628.956000", "111628.959000", "111628.962000", "111628.964000", "111628.966000", "111628.969000", "111648.922000", "111648.924000", "111648.927000", "111648.929000", "111648.932000", "111648.934000", "111648.937000", "111648.939000", "111648.942000", "111648.944000", "111648.947000", "111648.949000", "111648.952000", "111648.954000", "111648.957000", "111648.959000", "111648.962000", "111648.965000", "111648.967000", "111648.970000", "111708.922000", "111708.924000", "111708.927000", "111708.929000", "111708.932000", "111708.934000", "111708.937000", "111708.939000", "111708.942000", "111708.944000", "111708.947000", "111708.949000", "111708.952000", "111708.954000", "111708.957000", "111708.959000", "111708.962000", "111708.964000", "111708.967000", "111708.969000", "111728.921000", "111728.924000", "111728.927000", "111728.929000", "111728.932000", "111728.934000", "111728.937000", "111728.939000", "111728.942000", "111728.944000", "111728.947000", "111728.949000", "111728.952000", "111728.954000", "111728.957000", "111728.959000", "111728.962000", "111728.964000", "111728.967000", "111728.969000", "111748.922000", "111748.925000", "111748.928000", "111748.930000", "111748.933000", "111748.935000", "111748.938000", "111748.940000", "111748.943000", "111748.945000", "111748.948000", "111748.950000", "111748.953000", "111748.955000", "111748.958000", "111748.960000", "111748.963000", "111748.965000", "111748.968000", "111748.970000", "111808.923000", "111808.925000", "111808.928000", "111808.930000", "111808.933000", "111808.935000", "111808.938000", "111808.940000", "111808.943000", "111808.945000", "111808.948000", "111808.950000", "111808.953000", "111808.970000", "111808.972000", "111808.975000", "111808.977000", "111808.980000", "111808.982000", "111808.985000", "111828.921000", "111828.987000", "111828.990000", "111828.992000", "111828.995000", "111828.997000", "111829.000000", "111829.002000", "111829.005000", "111829.007000", "111829.010000", "111829.012000", "111829.015000", "111829.017000", "111829.020000", "111829.022000", "111829.025000", "111829.027000", "111829.030000", "111829.032000", "111848.922000", "111848.924000", "111848.927000", "111848.929000", "111848.932000", "111848.934000", "111848.937000", "111848.940000", "111848.942000", "111848.945000", "111848.947000", "111848.950000", "111848.952000", "111848.955000", "111848.957000", "111848.960000", "111848.962000", "111848.965000", "111848.967000", "111848.970000", "111849.543000"],
      "InstanceCreationTime": ["111328.957000", "111328.960000", "111328.962000", "111328.965000", "111328.967000", "111328.970000", "111328.972000", "111328.975000", "111328.977000", "111328.980000", "111328.982000", "111328.985000", "111328.987000", "111328.990000", "111328.992000", "111328.995000", "111328.997000", "111329.001000", "111329.003000", "111329.006000", "111329.008000", "111329.017000", "111329.020000", "111329.022000", "111329.025000", "111329.027000", "111329.030000", "111329.044000", "111329.046000", "111329.049000", "111329.051000", "111329.054000", "111329.056000", "111329.059000", "111329.061000", "111348.922000", "111348.924000", "111348.932000", "111348.935000", "111348.937000", "111348.940000", "111348.942000", "111348.945000", "111348.947000", "111348.950000", "111348.952000", "111348.955000", "111348.957000", "111348.960000", "111348.962000", "111348.965000", "111348.968000", "111348.970000", "111348.973000", "111348.975000", "111408.922000", "111408.924000", "111408.927000", "111408.929000", "111408.932000", "111408.934000", "111408.937000", "111408.939000", "111408.942000", "111408.944000", "111408.946000", "111408.949000", "111408.952000", "111408.954000", "111408.956000", "111408.959000", "111408.961000", "111408.964000", "111408.966000", "111408.969000", "111428.921000", "111428.924000", "111428.927000", "111428.929000", "111428.932000", "111428.934000", "111428.937000", "111428.939000", "111428.942000", "111428.944000", "111428.947000", "111428.949000", "111428.952000", "111428.954000", "111428.957000", "111428.959000", "111428.970000", "111428.973000", "111428.975000", "111428.978000", "111448.921000", "111448.924000", "111448.927000", "111448.929000", "111448.932000", "111448.934000", "111448.937000", "111448.939000", "111448.942000", "111448.944000", "111448.946000", "111448.949000", "111448.952000", "111448.954000", "111448.957000", "111448.959000", "111448.962000", "111448.975000", "111448.977000", "111448.980000", "111508.921000", "111508.924000", "111508.927000", "111508.929000", "111508.932000", "111508.934000", "111508.937000", "111508.939000", "111508.942000", "111508.944000", "111508.947000", "111508.949000", "111508.952000", "111508.954000", "111508.957000", "111508.959000", "111508.962000", "111508.964000", "111508.967000", "111508.969000", "111528.922000", "111528.925000", "111528.927000", "111528.930000", "111528.933000", "111528.935000", "111528.938000", "111528.940000", "111528.943000", "111528.945000", "111528.947000", "111528.950000", "111528.953000", "111528.955000", "111528.958000", "111528.960000", "111528.963000", "111528.965000", "111528.968000", "111528.970000", "111548.922000", "111548.925000", "111548.927000", "111548.930000", "111548.933000", "111548.935000", "111548.937000", "111548.940000", "111548.943000", "111548.945000", "111548.948000", "111548.950000", "111548.953000", "111548.955000", "111548.958000", "111548.960000", "111548.963000", "111548.965000", "111548.968000", "111548.970000", "111608.921000", "111608.924000", "111608.927000", "111608.929000", "111608.932000", "111608.934000", "111608.937000", "111608.939000", "111608.942000", "111608.944000", "111608.947000", "111608.949000", "111608.952000", "111608.954000", "111608.957000", "111608.959000", "111608.962000", "111608.964000", "111608.967000", "111608.969000", "111628.921000", "111628.924000", "111628.926000", "111628.929000", "111628.932000", "111628.934000", "111628.937000", "111628.939000", "111628.942000", "111628.944000", "111628.947000", "111628.949000", "111628.952000", "111628.954000", "111628.956000", "111628.959000", "111628.962000", "111628.964000", "111628.966000", "111628.969000", "111648.922000", "111648.924000", "111648.927000", "111648.929000", "111648.932000", "111648.934000", "111648.937000", "111648.939000", "111648.942000", "111648.944000", "111648.947000", "111648.949000", "111648.952000", "111648.954000", "111648.957000", "111648.959000", "111648.962000", "111648.965000", "111648.967000", "111648.970000", "111708.922000", "111708.924000", "111708.927000", "111708.929000", "111708.932000", "111708.934000", "111708.937000", "111708.939000", "111708.942000", "111708.944000", "111708.947000", "111708.949000", "111708.952000", "111708.954000", "111708.957000", "111708.959000", "111708.962000", "111708.964000", "111708.967000", "111708.969000", "111728.921000", "111728.924000", "111728.927000", "111728.929000", "111728.932000", "111728.934000", "111728.937000", "111728.939000", "111728.942000", "111728.944000", "111728.947000", "111728.949000", "111728.952000", "111728.954000", "111728.957000", "111728.959000", "111728.962000", "111728.964000", "111728.967000", "111728.969000", "111748.922000", "111748.925000", "111748.928000", "111748.930000", "111748.933000", "111748.935000", "111748.938000", "111748.940000", "111748.943000", "111748.945000", "111748.948000", "111748.950000", "111748.953000", "111748.955000", "111748.958000", "111748.960000", "111748.963000", "111748.965000", "111748.968000", "111748.970000", "111808.923000", "111808.925000", "111808.928000", "111808.930000", "111808.933000", "111808.935000", "111808.938000", "111808.940000", "111808.943000", "111808.945000", "111808.948000", "111808.950000", "111808.953000", "111808.970000", "111808.972000", "111808.975000", "111808.977000", "111808.980000", "111808.982000", "111808.985000", "111828.921000", "111828.987000", "111828.990000", "111828.992000", "111828.995000", "111828.997000", "111829.000000", "111829.002000", "111829.005000", "111829.007000", "111829.010000", "111829.012000", "111829.015000", "111829.017000", "111829.020000", "111829.022000", "111829.025000", "111829.027000", "111829.030000", "111829.032000", "111848.922000", "111848.924000", "111848.927000", "111848.929000", "111848.932000", "111848.934000", "111848.937000", "111848.940000", "111848.942000", "111848.945000", "111848.947000", "111848.950000", "111848.952000", "111848.955000", "111848.957000", "111848.960000", "111848.962000", "111848.965000", "111848.967000", "111848.970000", "111849.543000"],
      "InstanceNumber": [1, 2, 3, 4, 5, 6, 7, 8, 9, 10, 11, 12, 13, 14, 15, 16, 17, 18, 19, 20, 21, 22, 23, 24, 25, 26, 27, 28, 29, 30, 31, 32, 33, 34, 35, 36, 37, 38, 39, 40, 41, 42, 43, 44, 45, 46, 47, 48, 49, 50, 51, 52, 53, 54, 55, 56, 57, 58, 59, 60, 61, 62, 63, 64, 65, 66, 67, 68, 69, 70, 71, 72, 73, 74, 75, 76, 77, 78, 79, 80, 81, 82, 83, 84, 85, 86, 87, 88, 89, 90, 91, 92, 93, 94, 95, 96, 97, 98, 99, 100, 101, 102, 103, 104, 105, 106, 107, 108, 109, 110, 111, 112, 113, 114, 115, 116, 117, 118, 119, 120, 121, 122, 123, 124, 125, 126, 127, 128, 129, 130, 131, 132, 133, 134, 135, 136, 137, 138, 139, 140, 141, 142, 143, 144, 145, 146, 147, 148, 149, 150, 151, 152, 153, 154, 155, 156, 157, 158, 159, 160, 161, 162, 163, 164, 165, 166, 167, 168, 169, 170, 171, 172, 173, 174, 175, 176, 177, 178, 179, 180, 181, 182, 183, 184, 185, 186, 187, 188, 189, 190, 191, 192, 193, 194, 195, 196, 197, 198, 199, 200, 201, 202, 203, 204, 205, 206, 207, 208, 209, 210, 211, 212, 213, 214, 215, 216, 217, 218, 219, 220, 221, 222, 223, 224, 225, 226, 227, 228, 229, 230, 231, 232, 233, 234, 235, 236, 237, 238, 239, 240, 241, 242, 243, 244, 245, 246, 247, 248, 249, 250, 251, 252, 253, 254, 255, 256, 257, 258, 259, 260, 261, 262, 263, 264, 265, 266, 267, 268, 269, 270, 271, 272, 273, 274, 275, 276, 277, 278, 279, 280, 281, 282, 283, 284, 285, 286, 287, 288, 289, 290, 291, 292, 293, 294, 295, 296, 297, 298, 299, 300, 301, 302, 303, 304, 305, 306, 307, 308, 309, 310, 311, 312, 313, 314, 315, 316, 317, 318, 319, 320, 321, 322, 323, 324, 325, 326, 327, 328, 329, 330, 331, 332, 333, 334, 335, 336, 337, 338, 339, 340, 341, 342, 343, 344, 345, 346, 347, 348, 349, 350, 351, 352, 353, 354, 355, 356],
      "LargestImagePixelValue": [9858, 10725, 9992, 9542, 9408, 10352, 10588, 10014, 9794, 9410, 9342, 9383, 9282, 9800, 10261, 10246, 9997, 10003, 9461, 9364, 9430, 9469, 9569, 9282, 9929, 10529, 10305, 9715, 9396, 9285, 9502, 10330, 10867, 9429, 9311, 10100, 10461, 10268, 9940, 9866, 9425, 9550, 9535, 9532, 9542, 9705, 10178, 10291, 10271, 10236, 9798, 9678, 9627, 11165, 9570, 9572, 9660, 10365, 10434, 10043, 9635, 9587, 9678, 9575, 9506, 9550, 9773, 10491, 10259, 10125, 9876, 9564, 9531, 9866, 9574, 9643, 10418, 10446, 10067, 10130, 10378, 10037, 10004, 9483, 9483, 9551, 9436, 9456, 9552, 10387, 9418, 9491, 9849, 10977, 10846, 10251, 9595, 9637, 9777, 10786, 9549, 9420, 9442, 10986, 10769, 10330, 9636, 9553, 9667, 10090, 10435, 9506, 9513, 10624, 11207, 10862, 10397, 9616, 9723, 9647, 9636, 9771, 9667, 9733, 10251, 11884, 11609, 9638, 9544, 9861, 9971, 9598, 10052, 9587, 9476, 9610, 9577, 9613, 9728, 10473, 10822, 10400, 10727, 10829, 10592, 10192, 11002, 11235, 10900, 10725, 11160, 11025, 10855, 11255, 11175, 10623, 10023, 10787, 11049, 10770, 11236, 11079, 10931, 10722, 10975, 10882, 9830, 9711, 10562, 10403, 10407, 10828, 10422, 9549, 9530, 9519, 9602, 11004, 9641, 9622, 9484, 9651, 9512, 9415, 9559, 9583, 9447, 9490, 9485, 10198, 10411, 11056, 11165, 11347, 11256, 11097, 10760, 10893, 10869, 9838, 9622, 9604, 9700, 10890, 10536, 11589, 12069, 12033, 11927, 11529, 11558, 11367, 11560, 11474, 9818, 9715, 9772, 9868, 9569, 9593, 11326, 12450, 10559, 9901, 9529, 9438, 9858, 10330, 11455, 12235, 12334, 12190, 11703, 11601, 11575, 11300, 10907, 10835, 10080, 9270, 9488, 9742, 10184, 11851, 11621, 11491, 11552, 10586, 9906, 11801, 11875, 9611, 9102, 11700, 11829, 10087, 10110, 11368, 11477, 10354, 9817, 10119, 10280, 12225, 11949, 11681, 10994, 11149, 11219, 9854, 9046, 9917, 11702, 10503, 10665, 11863, 12049, 11190, 11299, 10904, 10033, 10236, 9956, 9152, 10067, 10330, 12502, 9671, 10427, 10314, 10167, 9766, 10016, 10522, 10704, 11534, 11762, 12129, 12253, 12236, 12147, 11720, 11568, 11561, 11226, 9980, 10344, 10239, 9931, 10363, 10023, 9902, 10387, 12720, 9655, 9751, 10007, 9728, 11919, 10547, 10786, 12304, 12043, 10928, 10022, 9414, 11997, 11024, 10491, 10602, 11220, 11952, 9179, 9793, 10455, 11509, 12117, 12186, 12068, 11728, 11288, 9971, 9906, 11025, 11435, 11509, 11760, 11593, 11016, 11450, 11868, 11892, 11412, 11335, 11481, 11146],
