{
  "AcquisitionMatrixPE": 106,
  "AcquisitionNumber": 1,
  "AcquisitionTime": "10:31:18.862500",
  "BandwidthPerPixelPhaseEncode": 16.846,
  "BaseResolution": 106,
  "BodyPartExamined": "BRAIN",
  "CoilCombinationMethod": "Sum of Squares",
  "ConsistencyInfo": "N4_VE11C_LATEST_20160120",
  "ConversionSoftware": "dcm2niix",
  "ConversionSoftwareVersion": "v1.0.20220720",
  "DerivedVendorReportedEchoSpacing": 0.000560012,
  "DeviceSerialNumber": "166108",
  "DwellTime": 1.8e-06,
  "EchoTime": 0.0352,
  "EchoTrainLength": 106,
  "EffectiveEchoSpacing": 0.000560012,
  "FlipAngle": 60,
  "HeudiconvVersion": "1.3.0",
  "ImageComments": "Unaliased MB4/PE3/LB",
  "ImageOrientationPatientDICOM": [1, 0, 0, 0, 1, 0],
  "ImageOrientationText": "Tra",
  "ImageType": [
    "ORIGINAL",
    "PRIMARY",
    "M",
    "MB",
    "ND",
    "MOSAIC"
],
  "ImagingFrequency": 123.244,
  "InPlanePhaseEncodingDirectionDICOM": "COL",
  "InstitutionAddress": "Bedford Way 26,London,London,GB,WC1H 0AP",
  "InstitutionName": "University College",
  "InstitutionalDepartmentName": "Department",
  "MRAcquisitionType": "2D",
  "MagneticFieldStrength": 3,
  "Manufacturer": "Siemens",
  "ManufacturersModelName": "Prisma",
  "MatrixCoilMode": "SENSE",
  "Modality": "MR",
  "MultibandAccelerationFactor": 4,
  "NonlinearGradientCorrection": false,
  "PartialFourier": 1,
  "PatientPosition": "HFS",
  "PercentPhaseFOV": 100,
  "PercentSampling": 100,
  "PhaseEncodingDirection": "j-",
  "PhaseEncodingSteps": 106,
  "PhaseResolution": 1,
  "PixelBandwidth": 2620,
  "ProcedureStepDescription": "Egor^MovieProject2",
  "ProtocolName": "task-backtothefuture_run-1",
  "PulseSequenceDetails": "%CustomerSeq%\\cmrr_mbep2d_bold",
  "ReceiveCoilActiveElements": "HEA;HEP",
  "ReceiveCoilName": "Head_32",
  "ReconMatrixPE": 106,
  "RepetitionTime": 1.5,
  "SAR": 0.0867438,
  "ScanOptions": "FS\\EXT",
  "ScanningSequence": "EP",
  "SequenceName": "epfid2d1_106",
  "SequenceVariant": "SK\\SS",
  "SeriesDescription": "task-backtothefuture_run-1",
  "SeriesNumber": 3,
  "ShimSetting": [-1511, 609, 7354, 101, -58, 141, 105, -87],
  "SliceThickness": 2,
  "SliceTiming": [0, 1.07, 0.6575, 0.2475, 1.315, 0.905, 0.4925, 0.0825, 1.1525, 0.74, 0.33, 1.3975, 0.9875, 0.575, 0.165, 1.2325, 0.8225, 0.4125, 0, 1.07, 0.6575, 0.2475, 1.315, 0.905, 0.4925, 0.0825, 1.1525, 0.74, 0.33, 1.3975, 0.9875, 0.575, 0.165, 1.2325, 0.8225, 0.4125, 0, 1.07, 0.6575, 0.2475, 1.315, 0.905, 0.4925, 0.0825, 1.1525, 0.74, 0.33, 1.3975, 0.9875, 0.575, 0.165, 1.2325, 0.8225, 0.4125, 0, 1.07, 0.6575, 0.2475, 1.315, 0.905, 0.4925, 0.0825, 1.1525, 0.74, 0.33, 1.3975, 0.9875, 0.575, 0.165, 1.2325, 0.8225, 0.4125],
  "SoftwareVersions": "syngo MR E11",
  "SpacingBetweenSlices": 2,
  "StationName": "AWP166108",
  "TaskName": "backtothefuture",
  "TotalReadoutTime": 0.0588013,
  "TxRefAmp": 251.183,
  "WipMemBlock": "516c9d51-8396-4649-8426-9b0217d8fcb7||Sequence: R016 ve11c/master r/e634e98; Dec 19 2017 11:00:25 by eja",
  "dcmmeta_affine": [
    [-2.0, 0.0, 0.0, 106.0],
    [0.0, 2.0, 0.0, -94.36144256591797],
    [0.0, 0.0, 2.0, -57.14457702636719],
    [0.0, 0.0, 0.0, 1.0]
],
  "dcmmeta_reorient_transform": [
    [0.0, -1.0, 0.0, 105.0],
    [1.0, 0.0, 0.0, 0.0],
    [0.0, 0.0, 1.0, 0.0],
    [0.0, 0.0, 0.0, 1.0]
],
  "dcmmeta_shape": [106, 106, 72, 1360],
  "dcmmeta_slice_dim": 2,
  "dcmmeta_version": 0.6,
  "global": {
    "const": {
      "AcquisitionMatrix": [106, 0, 0, 106],
      "AngioFlag": "N",
      "BitsAllocated": 16,
      "BitsStored": 16,
      "BodyPartExamined": "BRAIN",
      "CardiacNumberOfImages": 1,
      "Columns": 954,
      "EchoNumbers": 1,
      "EchoTime": 35.2,
      "EchoTrainLength": 106,
      "FlipAngle": 60.0,
      "HighBit": 15,
      "ImageOrientationPatient": [1.0, 0.0, 0.0, 0.0, 1.0, 0.0],
      "ImagePositionPatient": [-954.0, -963.63855457306, -57.144577026367],
      "ImageType": [
        "ORIGINAL",
        "PRIMARY",
        "M",
        "MB",
        "ND",
        "MOSAIC"
],
      "ImagedNucleus": "1H",
      "ImagingFrequency": 123.243651,
      "InPlanePhaseEncodingDirection": "COL",
      "MRAcquisitionType": "2D",
      "MagneticFieldStrength": 3.0,
      "Manufacturer": "SIEMENS",
      "ManufacturerModelName": "Prisma",
      "Modality": "MR",
      "NominalInterval": 0,
      "NumberOfAverages": 1.0,
      "NumberOfPhaseEncodingSteps": 106,
      "PercentPhaseFieldOfView": 100.0,
      "PercentSampling": 100.0,
      "PerformedProcedureStepStartTime": "100242.961000",
      "PhotometricInterpretation": "MONOCHROME2",
      "PixelBandwidth": 2620.0,
      "PixelRepresentation": 0,
      "PixelSpacing": [2.0, 2.0],
      "ProtocolName": "task-backtothefuture_run-1",
      "RepetitionTime": 1500.0,
      "Rows": 954,
      "SAR": 0.08674381272126,
      "SamplesPerPixel": 1,
      "ScanOptions": [
        "FS",
        "EXT"
],
      "ScanningSequence": "EP",
      "SequenceName": "epfid2d1_106",
      "SequenceVariant": [
        "SK",
        "SS"
],
      "SeriesDescription": "task-backtothefuture_run-1",
      "SeriesNumber": 3,
      "SeriesTime": "103158.135000",
      "SliceLocation": -57.144577026367,
      "SliceThickness": 2.0,
      "SmallestImagePixelValue": 0,
      "SoftwareVersions": "syngo MR E11",
      "SpacingBetweenSlices": 2.0,
      "SpecificCharacterSet": "ISO_IR 100",
      "StudyID": "1",
      "StudyTime": "100242.894000",
      "TransmitCoilName": "Body",
      "VariableFlipAngleFlag": "N",
      "WindowCenterWidthExplanation": "Algo1",
      "dBdt": 0.0},
    "slices": {}
  },
  "time": {
    "samples": {
      "AcquisitionNumber": [1, 2, 3, 4, 5, 6, 7, 8, 9, 10, 11, 12, 13, 14, 15, 16, 17, 18, 19, 20, 21, 22, 23, 24, 25, 26, 27, 28, 29, 30, 31, 32, 33, 34, 35, 36, 37, 38, 39, 40, 41, 42, 43, 44, 45, 46, 47, 48, 49, 50, 51, 52, 53, 54, 55, 56, 57, 58, 59, 60, 61, 62, 63, 64, 65, 66, 67, 68, 69, 70, 71, 72, 73, 74, 75, 76, 77, 78, 79, 80, 81, 82, 83, 84, 85, 86, 87, 88, 89, 90, 91, 92, 93, 94, 95, 96, 97, 98, 99, 100, 101, 102, 103, 104, 105, 106, 107, 108, 109, 110, 111, 112, 113, 114, 115, 116, 117, 118, 119, 120, 121, 122, 123, 124, 125, 126, 127, 128, 129, 130, 131, 132, 133, 134, 135, 136, 137, 138, 139, 140, 141, 142, 143, 144, 145, 146, 147, 148, 149, 150, 151, 152, 153, 154, 155, 156, 157, 158, 159, 160, 161, 162, 163, 164, 165, 166, 167, 168, 169, 170, 171, 172, 173, 174, 175, 176, 177, 178, 179, 180, 181, 182, 183, 184, 185, 186, 187, 188, 189, 190, 191, 192, 193, 194, 195, 196, 197, 198, 199, 200, 201, 202, 203, 204, 205, 206, 207, 208, 209, 210, 211, 212, 213, 214, 215, 216, 217, 218, 219, 220, 221, 222, 223, 224, 225, 226, 227, 228, 229, 230, 231, 232, 233, 234, 235, 236, 237, 238, 239, 240, 241, 242, 243, 244, 245, 246, 247, 248, 249, 250, 251, 252, 253, 254, 255, 256, 257, 258, 259, 260, 261, 262, 263, 264, 265, 266, 267, 268, 269, 270, 271, 272, 273, 274, 275, 276, 277, 278, 279, 280, 281, 282, 283, 284, 285, 286, 287, 288, 289, 290, 291, 292, 293, 294, 295, 296, 297, 298, 299, 300, 301, 302, 303, 304, 305, 306, 307, 308, 309, 310, 311, 312, 313, 314, 315, 316, 317, 318, 319, 320, 321, 322, 323, 324, 325, 326, 327, 328, 329, 330, 331, 332, 333, 334, 335, 336, 337, 338, 339, 340, 341, 342, 343, 344, 345, 346, 347, 348, 349, 350, 351, 352, 353, 354, 355, 356, 357, 358, 359, 360, 361, 362, 363, 364, 365, 366, 367, 368, 369, 370, 371, 372, 373, 374, 375, 376, 377, 378, 379, 380, 381, 382, 383, 384, 385, 386, 387, 388, 389, 390, 391, 392, 393, 394, 395, 396, 397, 398, 399, 400, 401, 402, 403, 404, 405, 406, 407, 408, 409, 410, 411, 412, 413, 414, 415, 416, 417, 418, 419, 420, 421, 422, 423, 424, 425, 426, 427, 428, 429, 430, 431, 432, 433, 434, 435, 436, 437, 438, 439, 440, 441, 442, 443, 444, 445, 446, 447, 448, 449, 450, 451, 452, 453, 454, 455, 456, 457, 458, 459, 460, 461, 462, 463, 464, 465, 466, 467, 468, 469, 470, 471, 472, 473, 474, 475, 476, 477, 478, 479, 480, 481, 482, 483, 484, 485, 486, 487, 488, 489, 490, 491, 492, 493, 494, 495, 496, 497, 498, 499, 500, 501, 502, 503, 504, 505, 506, 507, 508, 509, 510, 511, 512, 513, 514, 515, 516, 517, 518, 519, 520, 521, 522, 523, 524, 525, 526, 527, 528, 529, 530, 531, 532, 533, 534, 535, 536, 537, 538, 539, 540, 541, 542, 543, 544, 545, 546, 547, 548, 549, 550, 551, 552, 553, 554, 555, 556, 557, 558, 559, 560, 561, 562, 563, 564, 565, 566, 567, 568, 569, 570, 571, 572, 573, 574, 575, 576, 577, 578, 579, 580, 581, 582, 583, 584, 585, 586, 587, 588, 589, 590, 591, 592, 593, 594, 595, 596, 597, 598, 599, 600, 601, 602, 603, 604, 605, 606, 607, 608, 609, 610, 611, 612, 613, 614, 615, 616, 617, 618, 619, 620, 621, 622, 623, 624, 625, 626, 627, 628, 629, 630, 631, 632, 633, 634, 635, 636, 637, 638, 639, 640, 641, 642, 643, 644, 645, 646, 647, 648, 649, 650, 651, 652, 653, 654, 655, 656, 657, 658, 659, 660, 661, 662, 663, 664, 665, 666, 667, 668, 669, 670, 671, 672, 673, 674, 675, 676, 677, 678, 679, 680, 681, 682, 683, 684, 685, 686, 687, 688, 689, 690, 691, 692, 693, 694, 695, 696, 697, 698, 699, 700, 701, 702, 703, 704, 705, 706, 707, 708, 709, 710, 711, 712, 713, 714, 715, 716, 717, 718, 719, 720, 721, 722, 723, 724, 725, 726, 727, 728, 729, 730, 731, 732, 733, 734, 735, 736, 737, 738, 739, 740, 741, 742, 743, 744, 745, 746, 747, 748, 749, 750, 751, 752, 753, 754, 755, 756, 757, 758, 759, 760, 761, 762, 763, 764, 765, 766, 767, 768, 769, 770, 771, 772, 773, 774, 775, 776, 777, 778, 779, 780, 781, 782, 783, 784, 785, 786, 787, 788, 789, 790, 791, 792, 793, 794, 795, 796, 797, 798, 799, 800, 801, 802, 803, 804, 805, 806, 807, 808, 809, 810, 811, 812, 813, 814, 815, 816, 817, 818, 819, 820, 821, 822, 823, 824, 825, 826, 827, 828, 829, 830, 831, 832, 833, 834, 835, 836, 837, 838, 839, 840, 841, 842, 843, 844, 845, 846, 847, 848, 849, 850, 851, 852, 853, 854, 855, 856, 857, 858, 859, 860, 861, 862, 863, 864, 865, 866, 867, 868, 869, 870, 871, 872, 873, 874, 875, 876, 877, 878, 879, 880, 881, 882, 883, 884, 885, 886, 887, 888, 889, 890, 891, 892, 893, 894, 895, 896, 897, 898, 899, 900, 901, 902, 903, 904, 905, 906, 907, 908, 909, 910, 911, 912, 913, 914, 915, 916, 917, 918, 919, 920, 921, 922, 923, 924, 925, 926, 927, 928, 929, 930, 931, 932, 933, 934, 935, 936, 937, 938, 939, 940, 941, 942, 943, 944, 945, 946, 947, 948, 949, 950, 951, 952, 953, 954, 955, 956, 957, 958, 959, 960, 961, 962, 963, 964, 965, 966, 967, 968, 969, 970, 971, 972, 973, 974, 975, 976, 977, 978, 979, 980, 981, 982, 983, 984, 985, 986, 987, 988, 989, 990, 991, 992, 993, 994, 995, 996, 997, 998, 999, 1000, 1001, 1002, 1003, 1004, 1005, 1006, 1007, 1008, 1009, 1010, 1011, 1012, 1013, 1014, 1015, 1016, 1017, 1018, 1019, 1020, 1021, 1022, 1023, 1024, 1025, 1026, 1027, 1028, 1029, 1030, 1031, 1032, 1033, 1034, 1035, 1036, 1037, 1038, 1039, 1040, 1041, 1042, 1043, 1044, 1045, 1046, 1047, 1048, 1049, 1050, 1051, 1052, 1053, 1054, 1055, 1056, 1057, 1058, 1059, 1060, 1061, 1062, 1063, 1064, 1065, 1066, 1067, 1068, 1069, 1070, 1071, 1072, 1073, 1074, 1075, 1076, 1077, 1078, 1079, 1080, 1081, 1082, 1083, 1084, 1085, 1086, 1087, 1088, 1089, 1090, 1091, 1092, 1093, 1094, 1095, 1096, 1097, 1098, 1099, 1100, 1101, 1102, 1103, 1104, 1105, 1106, 1107, 1108, 1109, 1110, 1111, 1112, 1113, 1114, 1115, 1116, 1117, 1118, 1119, 1120, 1121, 1122, 1123, 1124, 1125, 1126, 1127, 1128, 1129, 1130, 1131, 1132, 1133, 1134, 1135, 1136, 1137, 1138, 1139, 1140, 1141, 1142, 1143, 1144, 1145, 1146, 1147, 1148, 1149, 1150, 1151, 1152, 1153, 1154, 1155, 1156, 1157, 1158, 1159, 1160, 1161, 1162, 1163, 1164, 1165, 1166, 1167, 1168, 1169, 1170, 1171, 1172, 1173, 1174, 1175, 1176, 1177, 1178, 1179, 1180, 1181, 1182, 1183, 1184, 1185, 1186, 1187, 1188, 1189, 1190, 1191, 1192, 1193, 1194, 1195, 1196, 1197, 1198, 1199, 1200, 1201, 1202, 1203, 1204, 1205, 1206, 1207, 1208, 1209, 1210, 1211, 1212, 1213, 1214, 1215, 1216, 1217, 1218, 1219, 1220, 1221, 1222, 1223, 1224, 1225, 1226, 1227, 1228, 1229, 1230, 1231, 1232, 1233, 1234, 1235, 1236, 1237, 1238, 1239, 1240, 1241, 1242, 1243, 1244, 1245, 1246, 1247, 1248, 1249, 1250, 1251, 1252, 1253, 1254, 1255, 1256, 1257, 1258, 1259, 1260, 1261, 1262, 1263, 1264, 1265, 1266, 1267, 1268, 1269, 1270, 1271, 1272, 1273, 1274, 1275, 1276, 1277, 1278, 1279, 1280, 1281, 1282, 1283, 1284, 1285, 1286, 1287, 1288, 1289, 1290, 1291, 1292, 1293, 1294, 1295, 1296, 1297, 1298, 1299, 1300, 1301, 1302, 1303, 1304, 1305, 1306, 1307, 1308, 1309, 1310, 1311, 1312, 1313, 1314, 1315, 1316, 1317, 1318, 1319, 1320, 1321, 1322, 1323, 1324, 1325, 1326, 1327, 1328, 1329, 1330, 1331, 1332, 1333, 1334, 1335, 1336, 1337, 1338, 1339, 1340, 1341, 1342, 1343, 1344, 1345, 1346, 1347, 1348, 1349, 1350, 1351, 1352, 1353, 1354, 1355, 1356, 1357, 1358, 1359, 1360],
      "AcquisitionTime": ["103118.862500", "103120.362500", "103121.862500", "103123.362500", "103124.862500", "103126.362500", "103127.862500", "103129.362500", "103130.862500", "103132.362500", "103133.862500", "103135.362500", "103136.862500", "103138.362500", "103139.862500", "103141.362500", "103142.862500", "103144.362500", "103145.862500", "103147.362500", "103148.862500", "103150.362500", "103151.862500", "103153.362500", "103154.862500", "103156.362500", "103157.862500", "103159.362500", "103200.862500", "103202.362500", "103203.862500", "103205.362500", "103206.862500", "103208.362500", "103209.862500", "103211.362500", "103212.862500", "103214.362500", "103215.862500", "103217.362500", "103218.862500", "103220.362500", "103221.862500", "103223.362500", "103224.862500", "103226.362500", "103227.862500", "103229.362500", "103230.862500", "103232.362500", "103233.862500", "103235.362500", "103236.862500", "103238.362500", "103239.862500", "103241.362500", "103242.862500", "103244.362500", "103245.862500", "103247.362500", "103248.862500", "103250.362500", "103251.862500", "103253.362500", "103254.862500", "103256.362500", "103257.862500", "103259.362500", "103300.862500", "103302.362500", "103303.862500", "103305.362500", "103306.862500", "103308.362500", "103309.862500", "103311.362500", "103312.862500", "103314.362500", "103315.862500", "103317.362500", "103318.862500", "103320.362500", "103321.862500", "103323.362500", "103324.862500", "103326.362500", "103327.862500", "103329.362500", "103330.862500", "103332.362500", "103333.862500", "103335.362500", "103336.862500", "103338.362500", "103339.862500", "103341.362500", "103342.862500", "103344.362500", "103345.862500", "103347.362500", "103348.862500", "103350.362500", "103351.862500", "103353.362500", "103354.862500", "103356.362500", "103357.862500", "103359.362500", "103400.862500", "103402.362500", "103403.862500", "103405.362500", "103406.862500", "103408.362500", "103409.862500", "103411.362500", "103412.862500", "103414.362500", "103415.862500", "103417.362500", "103418.862500", "103420.362500", "103421.862500", "103423.362500", "103424.862500", "103426.362500", "103427.862500", "103429.362500", "103430.862500", "103432.362500", "103433.862500", "103435.362500", "103436.862500", "103438.362500", "103439.862500", "103441.362500", "103442.862500", "103444.362500", "103445.862500", "103447.362500", "103448.862500", "103450.362500", "103451.862500", "103453.362500", "103454.862500", "103456.362500", "103457.862500", "103459.362500", "103500.862500", "103502.362500", "103503.862500", "103505.362500", "103506.862500", "103508.362500", "103509.862500", "103511.362500", "103512.862500", "103514.362500", "103515.862500", "103517.362500", "103518.862500", "103520.362500", "103521.862500", "103523.362500", "103524.862500", "103526.362500", "103527.862500", "103529.362500", "103530.862500", "103532.362500", "103533.862500", "103535.362500", "103536.862500", "103538.362500", "103539.862500", "103541.362500", "103542.862500", "103544.362500", "103545.862500", "103547.362500", "103548.862500", "103550.362500", "103551.862500", "103553.362500", "103554.862500", "103556.362500", "103557.862500", "103559.362500", "103600.862500", "103602.362500", "103603.862500", "103605.362500", "103606.862500", "103608.362500", "103609.862500", "103611.362500", "103612.862500", "103614.362500", "103615.862500", "103617.362500", "103618.862500", "103620.362500", "103621.862500", "103623.362500", "103624.862500", "103626.362500", "103627.862500", "103629.362500", "103630.862500", "103632.362500", "103633.862500", "103635.362500", "103636.862500", "103638.362500", "103639.862500", "103641.362500", "103642.862500", "103644.362500", "103645.862500", "103647.362500", "103648.862500", "103650.362500", "103651.862500", "103653.362500", "103654.862500", "103656.362500", "103657.862500", "103659.362500", "103700.862500", "103702.362500", "103703.862500", "103705.362500", "103706.862500", "103708.362500", "103709.862500", "103711.362500", "103712.862500", "103714.362500", "103715.862500", "103717.362500", "103718.862500", "103720.362500", "103721.862500", "103723.362500", "103724.862500", "103726.362500", "103727.862500", "103729.362500", "103730.862500", "103732.362500", "103733.862500", "103735.362500", "103736.862500", "103738.362500", "103739.862500", "103741.362500", "103742.862500", "103744.362500", "103745.862500", "103747.362500", "103748.862500", "103750.362500", "103751.862500", "103753.362500", "103754.862500", "103756.362500", "103757.862500", "103759.362500", "103800.862500", "103802.362500", "103803.862500", "103805.362500", "103806.862500", "103808.362500", "103809.862500", "103811.362500", "103812.862500", "103814.362500", "103815.862500", "103817.362500", "103818.862500", "103820.362500", "103821.862500", "103823.362500", "103824.862500", "103826.362500", "103827.862500", "103829.362500", "103830.862500", "103832.362500", "103833.862500", "103835.362500", "103836.862500", "103838.362500", "103839.862500", "103841.362500", "103842.862500", "103844.362500", "103845.862500", "103847.362500", "103848.862500", "103850.362500", "103851.862500", "103853.362500", "103854.862500", "103856.362500", "103857.862500", "103859.362500", "103900.862500", "103902.362500", "103903.862500", "103905.362500", "103906.862500", "103908.362500", "103909.862500", "103911.362500", "103912.862500", "103914.362500", "103915.862500", "103917.362500", "103918.862500", "103920.362500", "103921.862500", "103923.362500", "103924.862500", "103926.362500", "103927.862500", "103929.362500", "103930.862500", "103932.362500", "103933.862500", "103935.362500", "103936.862500", "103938.362500", "103939.862500", "103941.362500", "103942.862500", "103944.362500", "103945.862500", "103947.362500", "103948.862500", "103950.362500", "103951.862500", "103953.362500", "103954.862500", "103956.362500", "103957.862500", "103959.362500", "104000.862500", "104002.362500", "104003.862500", "104005.362500", "104006.862500", "104008.362500", "104009.862500", "104011.362500", "104012.862500", "104014.362500", "104015.862500", "104017.362500", "104018.862500", "104020.362500", "104021.862500", "104023.362500", "104024.862500", "104026.362500", "104027.862500", "104029.362500", "104030.862500", "104032.362500", "104033.862500", "104035.362500", "104036.862500", "104038.362500", "104039.862500", "104041.362500", "104042.862500", "104044.362500", "104045.862500", "104047.362500", "104048.862500", "104050.362500", "104051.862500", "104053.362500", "104054.862500", "104056.362500", "104057.862500", "104059.362500", "104100.862500", "104102.362500", "104103.862500", "104105.362500", "104106.862500", "104108.362500", "104109.862500", "104111.362500", "104112.862500", "104114.362500", "104115.862500", "104117.362500", "104118.862500", "104120.362500", "104121.862500", "104123.362500", "104124.862500", "104126.362500", "104127.862500", "104129.362500", "104130.862500", "104132.362500", "104133.862500", "104135.362500", "104136.862500", "104138.362500", "104139.862500", "104141.362500", "104142.862500", "104144.362500", "104145.862500", "104147.362500", "104148.862500", "104150.362500", "104151.862500", "104153.362500", "104154.862500", "104156.362500", "104157.862500", "104159.362500", "104200.862500", "104202.362500", "104203.862500", "104205.362500", "104206.862500", "104208.362500", "104209.862500", "104211.362500", "104212.862500", "104214.362500", "104215.862500", "104217.362500", "104218.862500", "104220.362500", "104221.862500", "104223.362500", "104224.862500", "104226.362500", "104227.862500", "104229.362500", "104230.862500", "104232.362500", "104233.862500", "104235.362500", "104236.862500", "104238.362500", "104239.862500", "104241.362500", "104242.862500", "104244.362500", "104245.862500", "104247.362500", "104248.862500", "104250.362500", "104251.862500", "104253.362500", "104254.862500", "104256.362500", "104257.862500", "104259.362500", "104300.862500", "104302.362500", "104303.862500", "104305.362500", "104306.862500", "104308.362500", "104309.862500", "104311.362500", "104312.862500", "104314.362500", "104315.862500", "104317.362500", "104318.862500", "104320.362500", "104321.862500", "104323.362500", "104324.862500", "104326.362500", "104327.862500", "104329.362500", "104330.862500", "104332.362500", "104333.862500", "104335.362500", "104336.862500", "104338.362500", "104339.862500", "104341.362500", "104342.862500", "104344.362500", "104345.862500", "104347.362500", "104348.862500", "104350.362500", "104351.862500", "104353.362500", "104354.862500", "104356.362500", "104357.862500", "104359.362500", "104400.862500", "104402.362500", "104403.862500", "104405.362500", "104406.862500", "104408.362500", "104409.862500", "104411.362500", "104412.862500", "104414.362500", "104415.862500", "104417.362500", "104418.862500", "104420.362500", "104421.862500", "104423.362500", "104424.862500", "104426.362500", "104427.862500", "104429.362500", "104430.862500", "104432.362500", "104433.862500", "104435.362500", "104436.862500", "104438.362500", "104439.862500", "104441.362500", "104442.862500", "104444.362500", "104445.862500", "104447.362500", "104448.862500", "104450.362500", "104451.862500", "104453.362500", "104454.862500", "104456.362500", "104457.862500", "104459.362500", "104500.862500", "104502.362500", "104503.862500", "104505.362500", "104506.862500", "104508.362500", "104509.862500", "104511.362500", "104512.862500", "104514.362500", "104515.862500", "104517.362500", "104518.862500", "104520.362500", "104521.862500", "104523.362500", "104524.862500", "104526.362500", "104527.862500", "104529.362500", "104530.862500", "104532.362500", "104533.862500", "104535.362500", "104536.862500", "104538.362500", "104539.862500", "104541.362500", "104542.862500", "104544.362500", "104545.862500", "104547.362500", "104548.862500", "104550.362500", "104551.862500", "104553.362500", "104554.862500", "104556.362500", "104557.862500", "104559.362500", "104600.862500", "104602.362500", "104603.862500", "104605.362500", "104606.862500", "104608.362500", "104609.862500", "104611.362500", "104612.862500", "104614.362500", "104615.862500", "104617.362500", "104618.862500", "104620.362500", "104621.862500", "104623.362500", "104624.862500", "104626.362500", "104627.862500", "104629.362500", "104630.862500", "104632.362500", "104633.862500", "104635.362500", "104636.862500", "104638.362500", "104639.862500", "104641.362500", "104642.862500", "104644.362500", "104645.862500", "104647.362500", "104648.862500", "104650.362500", "104651.862500", "104653.362500", "104654.862500", "104656.362500", "104657.862500", "104659.362500", "104700.862500", "104702.362500", "104703.862500", "104705.362500", "104706.862500", "104708.362500", "104709.862500", "104711.362500", "104712.862500", "104714.362500", "104715.862500", "104717.362500", "104718.862500", "104720.362500", "104721.862500", "104723.362500", "104724.862500", "104726.362500", "104727.862500", "104729.362500", "104730.862500", "104732.362500", "104733.862500", "104735.362500", "104736.862500", "104738.362500", "104739.862500", "104741.362500", "104742.862500", "104744.362500", "104745.862500", "104747.362500", "104748.862500", "104750.362500", "104751.862500", "104753.362500", "104754.862500", "104756.362500", "104757.862500", "104759.362500", "104800.862500", "104802.362500", "104803.862500", "104805.362500", "104806.862500", "104808.362500", "104809.862500", "104811.362500", "104812.862500", "104814.362500", "104815.862500", "104817.362500", "104818.862500", "104820.362500", "104821.862500", "104823.362500", "104824.862500", "104826.362500", "104827.862500", "104829.362500", "104830.862500", "104832.362500", "104833.862500", "104835.362500", "104836.862500", "104838.362500", "104839.862500", "104841.362500", "104842.862500", "104844.362500", "104845.862500", "104847.362500", "104848.862500", "104850.362500", "104851.862500", "104853.362500", "104854.862500", "104856.362500", "104857.862500", "104859.362500", "104900.862500", "104902.362500", "104903.862500", "104905.362500", "104906.862500", "104908.362500", "104909.862500", "104911.362500", "104912.862500", "104914.362500", "104915.862500", "104917.362500", "104918.862500", "104920.362500", "104921.862500", "104923.362500", "104924.862500", "104926.362500", "104927.862500", "104929.362500", "104930.862500", "104932.362500", "104933.862500", "104935.362500", "104936.862500", "104938.362500", "104939.862500", "104941.362500", "104942.862500", "104944.362500", "104945.862500", "104947.362500", "104948.862500", "104950.362500", "104951.862500", "104953.362500", "104954.862500", "104956.362500", "104957.862500", "104959.362500", "105000.862500", "105002.362500", "105003.862500", "105005.362500", "105006.862500", "105008.362500", "105009.862500", "105011.362500", "105012.862500", "105014.362500", "105015.862500", "105017.362500", "105018.862500", "105020.362500", "105021.862500", "105023.362500", "105024.862500", "105026.362500", "105027.862500", "105029.362500", "105030.862500", "105032.362500", "105033.862500", "105035.362500", "105036.862500", "105038.362500", "105039.862500", "105041.362500", "105042.862500", "105044.362500", "105045.862500", "105047.362500", "105048.862500", "105050.362500", "105051.862500", "105053.362500", "105054.862500", "105056.362500", "105057.862500", "105059.362500", "105100.862500", "105102.362500", "105103.862500", "105105.362500", "105106.862500", "105108.362500", "105109.862500", "105111.362500", "105112.862500", "105114.362500", "105115.862500", "105117.362500", "105118.862500", "105120.362500", "105121.862500", "105123.362500", "105124.862500", "105126.362500", "105127.862500", "105129.362500", "105130.862500", "105132.362500", "105133.862500", "105135.362500", "105136.862500", "105138.362500", "105139.862500", "105141.362500", "105142.862500", "105144.362500", "105145.862500", "105147.362500", "105148.862500", "105150.362500", "105151.862500", "105153.362500", "105154.862500", "105156.362500", "105157.862500", "105159.362500", "105200.862500", "105202.362500", "105203.862500", "105205.362500", "105206.862500", "105208.362500", "105209.862500", "105211.362500", "105212.862500", "105214.362500", "105215.862500", "105217.362500", "105218.862500", "105220.362500", "105221.862500", "105223.362500", "105224.862500", "105226.362500", "105227.862500", "105229.362500", "105230.862500", "105232.362500", "105233.862500", "105235.362500", "105236.862500", "105238.362500", "105239.862500", "105241.362500", "105242.862500", "105244.362500", "105245.862500", "105247.362500", "105248.862500", "105250.362500", "105251.862500", "105253.362500", "105254.862500", "105256.362500", "105257.862500", "105259.362500", "105300.862500", "105302.362500", "105303.862500", "105305.362500", "105306.862500", "105308.362500", "105309.862500", "105311.362500", "105312.862500", "105314.362500", "105315.862500", "105317.362500", "105318.862500", "105320.362500", "105321.862500", "105323.362500", "105324.862500", "105326.362500", "105327.862500", "105329.362500", "105330.862500", "105332.362500", "105333.862500", "105335.362500", "105336.862500", "105338.362500", "105339.862500", "105341.362500", "105342.862500", "105344.362500", "105345.862500", "105347.362500", "105348.862500", "105350.362500", "105351.862500", "105353.362500", "105354.862500", "105356.362500", "105357.862500", "105359.362500", "105400.862500", "105402.362500", "105403.862500", "105405.362500", "105406.862500", "105408.362500", "105409.862500", "105411.362500", "105412.862500", "105414.362500", "105415.862500", "105417.362500", "105418.862500", "105420.362500", "105421.862500", "105423.362500", "105424.862500", "105426.362500", "105427.862500", "105429.362500", "105430.862500", "105432.362500", "105433.862500", "105435.362500", "105436.862500", "105438.362500", "105439.862500", "105441.362500", "105442.862500", "105444.362500", "105445.862500", "105447.362500", "105448.862500", "105450.362500", "105451.862500", "105453.362500", "105454.862500", "105456.362500", "105457.862500", "105459.362500", "105500.862500", "105502.362500", "105503.862500", "105505.362500", "105506.862500", "105508.362500", "105509.862500", "105511.362500", "105512.862500", "105514.362500", "105515.862500", "105517.362500", "105518.862500", "105520.362500", "105521.862500", "105523.362500", "105524.862500", "105526.362500", "105527.862500", "105529.362500", "105530.862500", "105532.362500", "105533.862500", "105535.362500", "105536.862500", "105538.362500", "105539.862500", "105541.362500", "105542.862500", "105544.362500", "105545.862500", "105547.362500", "105548.862500", "105550.362500", "105551.862500", "105553.362500", "105554.862500", "105556.362500", "105557.862500", "105559.362500", "105600.862500", "105602.362500", "105603.862500", "105605.362500", "105606.862500", "105608.362500", "105609.862500", "105611.362500", "105612.862500", "105614.362500", "105615.862500", "105617.362500", "105618.862500", "105620.362500", "105621.862500", "105623.362500", "105624.862500", "105626.362500", "105627.862500", "105629.362500", "105630.862500", "105632.362500", "105633.862500", "105635.362500", "105636.862500", "105638.362500", "105639.862500", "105641.362500", "105642.862500", "105644.362