{
  "AcquisitionMatrixPE": 106,
  "AcquisitionNumber": 1,
  "AcquisitionTime": "17:55:52.755000",
  "BandwidthPerPixelPhaseEncode": 13.477,
  "BaseResolution": 106,
  "BodyPartExamined": "BRAIN",
  "CoilCombinationMethod": "Sum of Squares",
  "ConsistencyInfo": "N4_VE11C_LATEST_20160120",
  "ConversionSoftware": "dcm2niix",
  "ConversionSoftwareVersion": "v1.0.20220720",
  "DerivedVendorReportedEchoSpacing": 0.000700005,
  "DeviceSerialNumber": "166108",
  "DwellTime": 2.6e-06,
  "EchoTime": 0.03,
  "EchoTrainLength": 80,
  "EffectiveEchoSpacing": 0.000700005,
  "FlipAngle": 62,
  "HeudiconvVersion": "1.3.0",
  "ImageComments": "Unaliased MB4/PE3/LB",
  "ImageOrientationPatientDICOM": [1, 0, 0, 0, 0.966376, -0.257133],
  "ImageOrientationText": "Tra>Cor(-14.9)",
  "ImageType": [
    "ORIGINAL",
    "PRIMARY",
    "M",
    "MB",
    "ND",
    "MOSAIC"
],
  "ImagingFrequency": 123.244,
  "InPlanePhaseEncodingDirectionDICOM": "COL",
  "InstitutionAddress": "Bedford Way 26,London,London,GB,WC1H 0AP",
  "InstitutionName": "University College",
  "InstitutionalDepartmentName": "Department",
  "MRAcquisitionType": "2D",
  "MagneticFieldStrength": 3,
  "Manufacturer": "Siemens",
  "ManufacturersModelName": "Prisma",
  "MatrixCoilMode": "SENSE",
  "Modality": "MR",
  "MultibandAccelerationFactor": 4,
  "NonlinearGradientCorrection": false,
  "PartialFourier": 0.75,
  "PatientPosition": "HFS",
  "PercentPhaseFOV": 100,
  "PercentSampling": 100,
  "PhaseEncodingDirection": "j-",
  "PhaseEncodingSteps": 80,
  "PhaseResolution": 1,
  "PixelBandwidth": 1815,
  "ProcedureStepDescription": "Egor^MovieProject2",
  "ProtocolName": "func-bold_task-tono_run-02",
  "PulseSequenceDetails": "%CustomerSeq%\\cmrr_mbep2d_bold",
  "ReceiveCoilActiveElements": "HEA;HEP",
  "ReceiveCoilName": "Head_32",
  "ReconMatrixPE": 106,
  "RepetitionTime": 1,
  "SAR": 0.0384633,
  "ScanOptions": "PFP\\FS\\EXT",
  "ScanningSequence": "EP",
  "SequenceName": "epfid2d1_106",
  "SequenceVariant": "SK\\SS",
  "SeriesDescription": "func-bold_task-tono_run-02",
  "SeriesNumber": 20,
  "ShimSetting": [-1511, 621, 7372, 456, -281, 94, 337, -69],
  "SliceThickness": 2,
  "SliceTiming": [0, 0.535, 0.09, 0.625, 0.18, 0.715, 0.2675, 0.8025, 0.3575, 0.8925, 0.4475, 0, 0.535, 0.09, 0.625, 0.18, 0.715, 0.2675, 0.8025, 0.3575, 0.8925, 0.4475, 0, 0.535, 0.09, 0.625, 0.18, 0.715, 0.2675, 0.8025, 0.3575, 0.8925, 0.4475, 0, 0.535, 0.09, 0.625, 0.18, 0.715, 0.2675, 0.8025, 0.3575, 0.8925, 0.4475],
  "SoftwareVersions": "syngo MR E11",
  "SpacingBetweenSlices": 2,
  "StationName": "AWP166108",
  "TaskName": "tonotopy",
  "TotalReadoutTime": 0.0735005,
  "TxRefAmp": 218.587,
  "WipMemBlock": "df5b6cfa-d778-4d0e-81bb-003a38fe9853||Sequence: R016 ve11c/master r/e634e98; Dec 19 2017 11:00:25 by eja",
  "dcmmeta_affine": [
    [-2.0, 0.0, 0.0, 106.0],
    [0.0, 1.9327521324157715, -0.5142655968666077, -71.62010955810547],
    [0.0, 0.5142655968666077, 1.932752251625061, -54.397769927978516],
    [0.0, 0.0, 0.0, 1.0]
],
  "dcmmeta_reorient_transform": [
    [0.0, -1.0, 0.0, 105.0],
    [1.0, 0.0, 0.0, 0.0],
    [0.0, 0.0, 1.0, 0.0],
    [0.0, 0.0, 0.0, 1.0]
],
  "dcmmeta_shape": [106, 106, 44, 264],
  "dcmmeta_slice_dim": 2,
  "dcmmeta_version": 0.6,
  "global": {
    "const": {
      "AcquisitionMatrix": [106, 0, 0, 106],
      "AngioFlag": "N",
      "BitsAllocated": 16,
      "BitsStored": 16,
      "BodyPartExamined": "BRAIN",
      "CardiacNumberOfImages": 1,
      "Columns": 742,
      "EchoNumbers": 1,
      "EchoTime": 30.0,
      "EchoTrainLength": 80,
      "FlipAngle": 62.0,
      "HighBit": 15,
      "ImageOrientationPatient": [1.0, 0.0, 0.0, 0.0, 0.96637607924044, -0.2571327934587],
      "ImagePositionPatient": [-742.0, -745.93405593862, 163.13657266334],
      "ImageType": [
        "ORIGINAL",
        "PRIMARY",
        "M",
        "MB",
        "ND",
        "MOSAIC"
],
      "ImagedNucleus": "1H",
      "ImagingFrequency": 123.243647,
      "InPlanePhaseEncodingDirection": "COL",
      "MRAcquisitionType": "2D",
      "MagneticFieldStrength": 3.0,
      "Manufacturer": "SIEMENS",
      "ManufacturerModelName": "Prisma",
      "Modality": "MR",
      "NominalInterval": 0,
      "NumberOfAverages": 1.0,
      "NumberOfPhaseEncodingSteps": 80,
      "PercentPhaseFieldOfView": 100.0,
      "PercentSampling": 100.0,
      "PerformedProcedureStepStartTime": "163641.067000",
      "PhotometricInterpretation": "MONOCHROME2",
      "PixelBandwidth": 1815.0,
      "PixelRepresentation": 0,
      "PixelSpacing": [2.0, 2.0],
      "ProtocolName": "func-bold_task-tono_run-02",
      "RepetitionTime": 1000.0,
      "Rows": 742,
      "SAR": 0.03846326921931,
      "SamplesPerPixel": 1,
      "ScanOptions": [
        "PFP",
        "FS",
        "EXT"
],
      "ScanningSequence": "EP",
      "SequenceName": "epfid2d1_106",
      "SequenceVariant": [
        "SK",
        "SS"
],
      "SeriesDescription": "func-bold_task-tono_run-02",
      "SeriesNumber": 20,
      "SeriesTime": "175619.998000",
      "SliceLocation": -34.152826068346,
      "SliceThickness": 2.0,
      "SmallestImagePixelValue": 0,
      "SoftwareVersions": "syngo MR E11",
      "SpacingBetweenSlices": 2.0000000427607,
      "SpecificCharacterSet": "ISO_IR 100",
      "StudyID": "1",
      "StudyTime": "163640.992000",
      "TransmitCoilName": "Body",
      "VariableFlipAngleFlag": "N",
      "WindowCenterWidthExplanation": "Algo1",
      "dBdt": 0.0},
    "slices": {}
  },
  "time": {
    "samples": {
      "AcquisitionNumber": [1, 2, 3, 4, 5, 6, 7, 8, 9, 10, 11, 12, 13, 14, 15, 16, 17, 18, 19, 20, 21, 22, 23, 24, 25, 26, 27, 28, 29, 30, 31, 32, 33, 34, 35, 36, 37, 38, 39, 40, 41, 42, 43, 44, 45, 46, 47, 48, 49, 50, 51, 52, 53, 54, 55, 56, 57, 58, 59, 60, 61, 62, 63, 64, 65, 66, 67, 68, 69, 70, 71, 72, 73, 74, 75, 76, 77, 78, 79, 80, 81, 82, 83, 84, 85, 86, 87, 88, 89, 90, 91, 92, 93, 94, 95, 96, 97, 98, 99, 100, 101, 102, 103, 104, 105, 106, 107, 108, 109, 110, 111, 112, 113, 114, 115, 116, 117, 118, 119, 120, 121, 122, 123, 124, 125, 126, 127, 128, 129, 130, 131, 132, 133, 134, 135, 136, 137, 138, 139, 140, 141, 142, 143, 144, 145, 146, 147, 148, 149, 150, 151, 152, 153, 154, 155, 156, 157, 158, 159, 160, 161, 162, 163, 164, 165, 166, 167, 168, 169, 170, 171, 172, 173, 174, 175, 176, 177, 178, 179, 180, 181, 182, 183, 184, 185, 186, 187, 188, 189, 190, 191, 192, 193, 194, 195, 196, 197, 198, 199, 200, 201, 202, 203, 204, 205, 206, 207, 208, 209, 210, 211, 212, 213, 214, 215, 216, 217, 218, 219, 220, 221, 222, 223, 224, 225, 226, 227, 228, 229, 230, 231, 232, 233, 234, 235, 236, 237, 238, 239, 240, 241, 242, 243, 244, 245, 246, 247, 248, 249, 250, 251, 252, 253, 254, 255, 256, 257, 258, 259, 260, 261, 262, 263, 264],
      "AcquisitionTime": ["175552.755000", "175553.755000", "175554.755000", "175555.755000", "175556.755000", "175557.755000", "175558.755000", "175559.755000", "175600.755000", "175601.755000", "175602.755000", "175603.755000", "175604.755000", "175605.755000", "175606.755000", "175607.755000", "175608.755000", "175609.755000", "175610.755000", "175611.755000", "175612.755000", "175613.755000", "175614.755000", "175615.755000", "175616.755000", "175617.755000", "175618.755000", "175619.755000", "175620.755000", "175621.755000", "175622.755000", "175623.755000", "175624.755000", "175625.755000", "175626.755000", "175627.755000", "175628.755000", "175629.755000", "175630.755000", "175631.755000", "175632.755000", "175633.755000", "175634.755000", "175635.755000", "175636.755000", "175637.755000", "175638.755000", "175639.755000", "175640.755000", "175641.755000", "175642.755000", "175643.755000", "175644.755000", "175645.755000", "175646.755000", "175647.755000", "175648.755000", "175649.755000", "175650.755000", "175651.755000", "175652.755000", "175653.755000", "175654.755000", "175655.755000", "175656.755000", "175657.755000", "175658.755000", "175659.755000", "175700.755000", "175701.755000", "175702.755000", "175703.755000", "175704.755000", "175705.755000", "175706.755000", "175707.755000", "175708.755000", "175709.755000", "175710.755000", "175711.755000", "175712.755000", "175713.755000", "175714.755000", "175715.755000", "175716.755000", "175717.755000", "175718.755000", "175719.755000", "175720.755000", "175721.755000", "175722.755000", "175723.755000", "175724.755000", "175725.755000", "175726.755000", "175727.755000", "175728.755000", "175729.755000", "175730.755000", "175731.755000", "175732.755000", "175733.755000", "175734.755000", "175735.755000", "175736.755000", "175737.755000", "175738.755000", "175739.755000", "175740.755000", "175741.755000", "175742.755000", "175743.755000", "175744.755000", "175745.755000", "175746.755000", "175747.755000", "175748.755000", "175749.755000", "175750.755000", "175751.755000", "175752.755000", "175753.755000", "175754.755000", "175755.755000", "175756.755000", "175757.755000", "175758.755000", "175759.755000", "175800.755000", "175801.755000", "175802.755000", "175803.755000", "175804.755000", "175805.755000", "175806.755000", "175807.755000", "175808.755000", "175809.755000", "175810.755000", "175811.755000", "175812.755000", "175813.755000", "175814.755000", "175815.755000", "175816.755000", "175817.755000", "175818.755000", "175819.755000", "175820.755000", "175821.755000", "175822.755000", "175823.755000", "175824.755000", "175825.755000", "175826.755000", "175827.755000", "175828.755000", "175829.755000", "175830.755000", "175831.755000", "175832.755000", "175833.755000", "175834.755000", "175835.755000", "175836.755000", "175837.755000", "175838.755000", "175839.755000", "175840.755000", "175841.755000", "175842.755000", "175843.755000", "175844.755000", "175845.755000", "175846.755000", "175847.755000", "175848.755000", "175849.755000", "175850.755000", "175851.755000", "175852.755000", "175853.755000", "175854.755000", "175855.755000", "175856.755000", "175857.755000", "175858.755000", "175859.755000", "175900.755000", "175901.755000", "175902.755000", "175903.755000", "175904.755000", "175905.755000", "175906.755000", "175907.755000", "175908.755000", "175909.755000", "175910.755000", "175911.755000", "175912.755000", "175913.755000", "175914.755000", "175915.755000", "175916.755000", "175917.755000", "175918.755000", "175919.755000", "175920.755000", "175921.755000", "175922.755000", "175923.755000", "175924.755000", "175925.755000", "175926.755000", "175927.755000", "175928.755000", "175929.755000", "175930.755000", "175931.755000", "175932.755000", "175933.755000", "175934.755000", "175935.755000", "175936.755000", "175937.755000", "175938.755000", "175939.755000", "175940.755000", "175941.755000", "175942.755000", "175943.755000", "175944.755000", "175945.755000", "175946.755000", "175947.755000", "175948.755000", "175949.755000", "175950.755000", "175951.755000", "175952.755000", "175953.755000", "175954.755000", "175955.755000", "175956.755000", "175957.755000", "175958.755000", "175959.755000", "180000.755000", "180001.755000", "180002.755000", "180003.755000", "180004.755000", "180005.755000", "180006.755000", "180007.755000", "180008.755000", "180009.755000", "180010.755000", "180011.755000", "180012.755000", "180013.755000", "180014.755000", "180015.755000"],
      "ContentTime": ["175620.002000", "175620.004000", "175620.007000", "175620.010000", "175620.012000", "175620.015000", "175620.017000", "175620.020000", "175620.022000", "175620.025000", "175620.027000", "175620.030000", "175620.038000", "175620.041000", "175620.043000", "175620.046000", "175620.048000", "175620.051000", "175620.053000", "175620.055000", "175620.058000", "175620.060000", "175620.063000", "175620.065000", "175620.074000", "175620.077000", "175620.080000", "175639.972000", "175639.975000", "175639.977000", "175639.980000", "175639.982000", "175639.985000", "175639.987000", "175639.997000", "175640.001000", "175640.003000", "175640.006000", "175640.008000", "175640.011000", "175640.013000", "175640.016000", "175640.018000", "175640.021000", "175640.023000", "175640.026000", "175640.028000", "175659.972000", "175659.975000", "175659.978000", "175659.981000", "175659.984000", "175659.986000", "175659.989000", "175659.991000", "175659.994000", "175659.997000", "175700.001000", "175700.003000", "175700.006000", "175700.008000", "175700.011000", "175700.014000", "175700.016000", "175700.019000", "175700.027000", "175700.029000", "175719.972000", "175719.975000", "175719.977000", "175719.980000", "175719.983000", "175719.985000", "175719.987000", "175719.990000", "175719.992000", "175720.000000", "175720.003000", "175720.005000", "175720.008000", "175720.010000", "175720.013000", "175720.015000", "175720.018000", "175720.020000", "175720.023000", "175720.025000", "175739.972000", "175739.975000", "175739.978000", "175739.980000", "175739.983000", "175739.986000", "175739.989000", "175739.991000", "175739.994000", "175739.996000", "175739.999000", "175740.001000", "175740.004000", "175740.006000", "175740.009000", "175740.011000", "175740.014000", "175740.017000", "175740.019000", "175740.022000", "175759.972000", "175759.975000", "175759.977000", "175759.980000", "175759.983000", "175759.985000", "175759.988000", "175759.990000", "175759.993000", "175759.996000", "175759.998000", "175800.002000", "175800.004000", "175800.007000", "175800.009000", "175800.012000", "175800.014000", "175800.017000", "175800.019000", "175800.021000", "175819.973000", "175819.975000", "175819.978000", "175819.980000", "175819.983000", "175819.986000", "175819.989000", "175819.991000", "175819.994000", "175819.997000", "175820.000000", "175820.002000", "175820.005000", "175820.008000", "175820.010000", "175820.013000", "175820.015000", "175820.018000", "175820.021000", "175820.023000", "175839.972000", "175839.975000", "175839.978000", "175839.980000", "175839.983000", "175839.986000", "175839.988000", "175839.991000", "175839.993000", "175839.996000", "175839.998000", "175840.002000", "175840.004000", "175840.007000", "175840.009000", "175840.012000", "175840.015000", "175840.017000", "175840.020000", "175840.023000", "175859.972000", "175859.975000", "175859.977000", "175859.980000", "175859.982000", "175859.985000", "175859.987000", "175859.989000", "175859.992000", "175859.994000", "175859.997000", "175900.006000", "175900.009000", "175900.011000", "175900.014000", "175900.016000", "175900.019000", "175900.021000", "175900.024000", "175900.026000", "175919.972000", "175919.975000", "175919.978000", "175919.980000", "175919.983000", "175919.986000", "175919.988000", "175919.991000", "175919.994000", "175919.996000", "175920.000000", "175920.002000", "175920.005000", "175920.007000", "175920.010000", "175920.013000", "175920.015000", "175920.018000", "175920.020000", "175920.023000", "175939.972000", "175939.975000", "175939.977000", "175939.980000", "175939.983000", "175940.001000", "175940.003000", "175940.006000", "175940.008000", "175940.011000", "175940.013000", "175940.016000", "175940.018000", "175940.021000", "175940.023000", "175940.026000", "175940.028000", "175940.031000", "175940.033000", "175940.036000", "175959.972000", "175959.975000", "175959.978000", "175959.980000", "175959.984000", "175959.986000", "175959.989000", "175959.991000", "175959.994000", "175959.997000", "180000.001000", "180000.003000", "180000.006000", "180000.008000", "180000.011000", "180000.013000", "180000.022000", "180000.025000", "180000.027000", "180000.030000", "180016.860000", "180016.863000", "180016.866000", "180016.868000", "180016.871000", "180016.874000", "180016.877000", "180016.880000", "180016.883000", "180016.885000", "180016.888000", "180016.891000", "180016.893000", "180016.896000", "180016.900000", "180016.903000", "180016.906000"],
      "InstanceCreationTime": ["175620.002000", "175620.004000", "175620.007000", "175620.010000", "175620.012000", "175620.015000", "175620.017000", "175620.020000", "175620.022000", "175620.025000", "175620.027000", "175620.030000", "175620.038000", "175620.041000", "175620.043000", "175620.046000", "175620.048000", "175620.051000", "175620.053000", "175620.055000", "175620.058000", "175620.060000", "175620.063000", "175620.065000", "175620.074000", "175620.077000", "175620.080000", "175639.972000", "175639.975000", "175639.977000", "175639.980000", "175639.982000", "175639.985000", "175639.987000", "175639.997000", "175640.001000", "175640.003000", "175640.006000", "175640.008000", "175640.011000", "175640.013000", "175640.016000", "175640.018000", "175640.021000", "175640.023000", "175640.026000", "175640.028000", "175659.972000", "175659.975000", "175659.978000", "175659.981000", "175659.984000", "175659.986000", "175659.989000", "175659.991000", "175659.994000", "175659.997000", "175700.001000", "175700.003000", "175700.006000", "175700.008000", "175700.011000", "175700.014000", "175700.016000", "175700.019000", "175700.027000", "175700.029000", "175719.972000", "175719.975000", "175719.977000", "175719.980000", "175719.983000", "175719.985000", "175719.987000", "175719.990000", "175719.992000", "175720.000000", "175720.003000", "175720.005000", "175720.008000", "175720.010000", "175720.013000", "175720.015000", "175720.018000", "175720.020000", "175720.023000", "175720.025000", "175739.972000", "175739.975000", "175739.978000", "175739.980000", "175739.983000", "175739.986000", "175739.989000", "175739.991000", "175739.994000", "175739.996000", "175739.999000", "175740.001000", "175740.004000", "175740.006000", "175740.009000", "175740.011000", "175740.014000", "175740.017000", "175740.019000", "175740.022000", "175759.972000", "175759.975000", "175759.977000", "175759.980000", "175759.983000", "175759.985000", "175759.988000", "175759.990000", "175759.993000", "175759.996000", "175759.998000", "175800.002000", "175800.004000", "175800.007000", "175800.009000", "175800.012000", "175800.014000", "175800.017000", "175800.019000", "175800.021000", "175819.973000", "175819.975000", "175819.978000", "175819.980000", "175819.983000", "175819.986000", "175819.989000", "175819.991000", "175819.994000", "175819.997000", "175820.000000", "175820.002000", "175820.005000", "175820.008000", "175820.010000", "175820.013000", "175820.015000", "175820.018000", "175820.021000", "175820.023000", "175839.972000", "175839.975000", "175839.978000", "175839.980000", "175839.983000", "175839.986000", "175839.988000", "175839.991000", "175839.993000", "175839.996000", "175839.998000", "175840.002000", "175840.004000", "175840.007000", "175840.009000", "175840.012000", "175840.015000", "175840.017000", "175840.020000", "175840.023000", "175859.972000", "175859.975000", "175859.977000", "175859.980000", "175859.982000", "175859.985000", "175859.987000", "175859.989000", "175859.992000", "175859.994000", "175859.997000", "175900.006000", "175900.009000", "175900.011000", "175900.014000", "175900.016000", "175900.019000", "175900.021000", "175900.024000", "175900.026000", "175919.972000", "175919.975000", "175919.978000", "175919.980000", "175919.983000", "175919.986000", "175919.988000", "175919.991000", "175919.994000", "175919.996000", "175920.000000", "175920.002000", "175920.005000", "175920.007000", "175920.010000", "175920.013000", "175920.015000", "175920.018000", "175920.020000", "175920.023000", "175939.972000", "175939.975000", "175939.977000", "175939.980000", "175939.983000", "175940.001000", "175940.003000", "175940.006000", "175940.008000", "175940.011000", "175940.013000", "175940.016000", "175940.018000", "175940.021000", "175940.023000", "175940.026000", "175940.028000", "175940.031000", "175940.033000", "175940.036000", "175959.972000", "175959.975000", "175959.978000", "175959.980000", "175959.984000", "175959.986000", "175959.989000", "175959.991000", "175959.994000", "175959.997000", "180000.001000", "180000.003000", "180000.006000", "180000.008000", "180000.011000", "180000.013000", "180000.022000", "180000.025000", "180000.027000", "180000.030000", "180016.860000", "180016.863000", "180016.866000", "180016.868000", "180016.871000", "180016.874000", "180016.877000", "180016.880000", "180016.883000", "180016.885000", "180016.888000", "180016.891000", "180016.893000", "180016.896000", "180016.900000", "180016.903000", "180016.906000"],
      "InstanceNumber": [1, 2, 3, 4, 5, 6, 7, 8, 9, 10, 11, 12, 13, 14, 15, 16, 17, 18, 19, 20, 21, 22, 23, 24, 25, 26, 27, 28, 29, 30, 31, 32, 33, 34, 35, 36, 37, 38, 39, 40, 41, 42, 43, 44, 45, 46, 47, 48, 49, 50, 51, 52, 53, 54, 55, 56, 57, 58, 59, 60, 61, 62, 63, 64, 65, 66, 67, 68, 69, 70, 71, 72, 73, 74, 75, 76, 77, 78, 79, 80, 81, 82, 83, 84, 85, 86, 87, 88, 89, 90, 91, 92, 93, 94, 95, 96, 97, 98, 99, 100, 101, 102, 103, 104, 105, 106, 107, 108, 109, 110, 111, 112, 113, 114, 115, 116, 117, 118, 119, 120, 121, 122, 123, 124, 125, 126, 127, 128, 129, 130, 131, 132, 133, 134, 135, 136, 137, 138, 139, 140, 141, 142, 143, 144, 145, 146, 147, 148, 149, 150, 151, 152, 153, 154, 155, 156, 157, 158, 159, 160, 161, 162, 163, 164, 165, 166, 167, 168, 169, 170, 171, 172, 173, 174, 175, 176, 177, 178, 179, 180, 181, 182, 183, 184, 185, 186, 187, 188, 189, 190, 191, 192, 193, 194, 195, 196, 197, 198, 199, 200, 201, 202, 203, 204, 205, 206, 207, 208, 209, 210, 211, 212, 213, 214, 215, 216, 217, 218, 219, 220, 221, 222, 223, 224, 225, 226, 227, 228, 229, 230, 231, 232, 233, 234, 235, 236, 237, 238, 239, 240, 241, 242, 243, 244, 245, 246, 247, 248, 249, 250, 251, 252, 253, 254, 255, 256, 257, 258, 259, 260, 261, 262, 263, 264],
      "LargestImagePixelValue": [10640, 10500, 10374, 10325, 10335, 10290, 10223, 10371, 10428, 10311, 10316, 10409, 10505, 10281, 10381, 10418, 10445, 10417, 10348, 10378, 10414, 10526, 10450, 10453, 10442, 10457, 10440, 10497, 10531, 10474, 10518, 10584, 10379, 10430, 10441, 10273, 10380, 10338, 10453, 10581, 10437, 10456, 10547, 10513, 10520, 10501, 10418, 10548, 10573, 10591, 10551, 10613, 10542, 10589, 10527, 10626, 10677, 10554, 10547, 10593, 10623, 10647, 10674, 10679, 10720, 10617, 10538, 10717, 10596, 10692, 10610, 10667, 10561, 10625, 10653, 10574, 10601, 10719, 10501, 10579, 10695, 10588, 10565, 10643, 10599, 10598, 10758, 10600, 10700, 10777, 10687, 10612, 10721, 10633, 10579, 10599, 10543, 10644, 10717, 10632, 10541, 10798, 10771, 10652, 10682, 10795, 10680, 10675, 10886, 10760, 10758, 10765, 10707, 10662, 10886, 10837, 10722, 10681, 10803, 10689, 10774, 10713, 10761, 10762, 10774, 10940, 10860, 10762, 10600, 10703, 10772, 10763, 10753, 10728, 10694, 10708, 10791, 10673, 10833, 10784, 10665, 10717, 10774, 10682, 10763, 10695, 10702, 10619, 10638, 10834, 10716, 10604, 10746, 10723, 10689, 10825, 10790, 10726, 10757, 10642, 10646, 10725, 10682, 10679, 10677, 10685, 10668, 10805, 10721, 10731, 10653, 10742, 10731, 10749, 10800, 10621, 10742, 10844, 10768, 10688, 10847, 10818, 10795, 10800, 10739, 10657, 10747, 10840, 10785, 10645, 10722, 10704, 10753, 10738, 10750, 10720, 10769, 10651, 10680, 10707, 10826, 10647, 10750, 10781, 10684, 10780, 10824, 10626, 10679, 10710, 10782, 10896, 10899, 10912, 10733, 10834, 10840, 10774, 10804, 11186, 10861, 10877, 10832, 10818, 10745, 10846, 10884, 10868, 10661, 10777, 10755, 10856, 10868, 10780, 10635, 10703, 10857, 10765, 10798, 10799, 10620, 10663, 10858, 10692, 10679, 10776, 10733, 10693, 10748, 10738, 10671, 10699, 10681, 10727, 10753, 10770, 10679, 10728, 10818, 10654, 10611, 10698, 10650, 10640],
      "TriggerTime": [8100.0, 9100.0, 10100.0, 11100.0, 12100.0, 13100.0, 14100.0, 15100.0, 16100.0, 17100.0, 18100.0, 19100.0, 20100.0, 21100.0, 22100.0, 23100.0, 24100.0, 25100.0, 26100.0, 27100.0, 28100.0, 29100.0, 30100.0, 31100.0, 32100.0, 33100.0, 34100.0, 35100.0, 36100.0, 37100.0, 38100.0, 39100.0, 40100.0, 41100.0, 42100.0, 43100.0, 44100.0, 45100.0, 46100.0, 47100.0, 48100.0, 49100.0, 50100.0, 51100.0, 52100.0, 53100.0, 54100.0, 55100.0, 56100.0, 57100.0, 58100.0, 59100.0, 60100.0, 61100.0, 62100.0, 63100.0, 64100.0, 65100.0, 66100.0, 67100.0, 68100.0, 69100.0, 70100.0, 71100.0, 72100.0, 73100.0, 74100.0, 75100.0, 76100.0, 77100.0, 78100.0, 79100.0, 80100.0, 81100.0, 82100.0, 83100.0, 84100.0, 85100.0, 86100.0, 87100.0, 88100.0, 89100.0, 90100.0, 91100.0, 92100.0, 93100.0, 94100.0, 95100.0, 96100.0, 97100.0, 98100.0, 99100.0, 100100.0, 101100.0, 102100.0, 103100.0, 104100.0, 105100.0, 106100.0, 107100.0, 108100.0, 109100.0, 110100.0, 111100.0, 112100.0, 113100.0, 114100.0, 115100.0, 116100.0, 117100.0, 118100.0, 119100.0, 120100.0, 121100.0, 122100.0, 123100.0, 124100.0, 125100.0, 126100.0, 127100.0, 128100.0, 129100.0, 130100.0, 131100.0, 132100.0, 133100.0, 134100.0, 135100.0, 136100.0, 137100.0, 138100.0, 139100.0, 140100.0, 141100.0, 142100.0, 143100.0, 144100.0, 145100.0, 146100.0, 147100.0, 148100.0, 149100.0, 150100.0, 151100.0, 152100.0, 153100.0, 154100.0, 155100.0, 156100.0, 157100.0, 158100.0, 159100.0, 160100.0, 161100.0, 162100.0, 163100.0, 164100.0, 165100.0, 166100.0, 167100.0, 168100.0, 169100.0, 170100.0, 171100.0, 172100.0, 173100.0, 174100.0, 175100.0, 176100.0, 177100.0, 178100.0, 179100.0, 180100.0, 181100.0, 182100.0, 183100.0, 184100.0, 185100.0, 186100.0, 187100.0, 188100.0, 189100.0, 190100.0, 191100.0, 192100.0, 193100.0, 194100.0, 195100.0, 196100.0, 197100.0, 198100.0, 199100.0, 200100.0, 201100.0, 202100.0, 203100.0, 204100.0, 205100.0, 206100.0, 207100.0, 208100.0, 209100.0, 210100.0, 211100.0, 212100.0, 213100.0, 214100.0, 215100.0, 216100.0, 217100.0, 218100.0, 219100.0, 220100.0, 221100.0, 222100.0, 223100.0, 224100.0, 225100.0, 226100.0, 227100.0, 228100.0, 229100.0, 230100.0, 231100.0, 232100.0, 233100.0, 234100.0, 235100.0, 236100.0, 237100.0, 238100.0, 239100.0, 240100.0, 241100.0, 242100.0, 243100.0, 244100.0, 245100.0, 246100.0, 247100.0, 248100.0, 249100.0, 250100.0, 251100.0, 252100.0, 253100.0, 254100.0, 255100.0, 256100.0, 257100.0, 258100.0, 259100.0, 260100.0, 261100.0, 262100.0, 263100.0, 264100.0, 265100.0, 266100.0, 267100.0, 268100.0, 269100.0, 270100.0, 271100.0],
      "WindowCenter": [4318.0, 4307.0, 4303.0, 4289.0, 4300.0, 4304.0, 4317.0, 4318.0, 4331.0, 4323.0, 4320.0, 4334.0, 4334.0, 4332.0, 4333.0, 4333.0, 4331.0, 4334.0, 4335.0, 4335.0, 4345.0, 4343.0, 4350.0, 4349.0, 4345.0, 4345.0, 4344.0, 4344.0, 4349.0, 4345.0, 4350.0, 4348.0, 4349.0, 4346.0, 4342.0, 4335.0, 4338.0, 4338.0, 4349.0, 4347.0, 4358.0, 4348.0, 4349.0, 4360.0, 4349.0, 4351.0, 4346.0, 4348.0, 4347.0, 4346.0, 4346.0, 4346.0, 4340.0, 4348.0, 4347.0, 4348.0, 4348.0, 4346.0, 4348.0, 4357.0, 4344.0, 4360.0, 4363.0, 4361.0, 4360.0, 4359.0, 4345.0, 4346.0, 4347.0, 4348.0, 4349.0, 4359.0, 4360.0, 4359.0, 4356.0, 4362.0, 4362.0, 4358.0, 4357.0, 4356.0, 4358.0, 4352.0, 4344.0, 4348.0, 4346.0, 4348.0, 4355.0, 4345.0, 4347.0, 4355.0, 4341.0, 4339.0, 4352.0, 4346.0, 4342.0, 4346.0, 4343.0, 4342.0, 4345.0, 4344.0, 4345.0, 4358.0, 4354.0, 4343.0, 4346.0, 4356.0, 4347.0, 4346.0, 4359.0, 4351.0, 4356.0, 4358.0, 4345.0, 4347.0, 4359.0, 4359.0, 4357.0, 4355.0, 4358.0, 4346.0, 4356.0, 4357.0, 4357.0, 4355.0, 4360.0, 4359.0, 4362.0, 4370.0, 4357.0, 4359.0, 4356.0, 4355.0, 4371.0, 4368.0, 4357.0, 4350.0, 4356.0, 4358.0, 4356.0, 4357.0, 4355.0, 4358.0, 4360.0, 4346.0, 4352.0, 4346.0, 4347.0, 4345.0, 4343.0, 4356.0, 4343.0, 4356.0, 4367.0, 4369.0, 4350.0, 4356.0, 4358.0, 4358.0, 4356.0, 4343.0, 4345.0, 4357.0, 4343.0, 4346.0, 4347.0, 4342.0, 4344.0, 4355.0, 4357.0, 4353.0, 4354.0, 4360.0, 4357.0, 4357.0, 4358.0, 4347.0, 4357.0, 4371.0, 4355.0, 4343.0, 4357.0, 4354.0, 4358.0, 4355.0, 4358.0, 4348.0, 4355.0, 4357.0, 4356.0, 4343.0, 4354.0, 4342.0, 4354.0, 4354.0, 4354.0, 4344.0, 4343.0, 4343.0, 4346.0, 4345.0, 4345.0, 4343.0, 4355.0, 4355.0, 4340.0, 4353.0, 4341.0, 4344.0, 4343.0, 4343.0, 4355.0, 4352.0, 4346.0, 4354.0, 4340.0, 4355.0, 4352.0, 4355.0, 4352.0, 4369.0, 4359.0, 4359.0, 4357.0, 4357.0, 4352.0, 4353.0, 4357.0, 4355.0, 4340.0, 4342.0, 4340.0, 4343.0, 4345.0, 4342.0, 4341.0, 4345.0, 4343.0, 4340.0, 4342.0, 4341.0, 4344.0, 4341.0, 4353.0, 4343.0, 4340.0, 4343.0, 4341.0, 4343.0, 4356.0, 4354.0, 4342.0, 4341.0, 4342.0, 4342.0, 4343.0, 4344.0, 4342.0, 4342.0, 4352.0, 4347.0, 4342.0, 4345.0, 4345.0, 4344.0],
