{
  "AcquisitionMatrixPE": 106,
  "AcquisitionNumber": 1,
  "AcquisitionTime": "17:50:38.755000",
  "BandwidthPerPixelPhaseEncode": 13.477,
  "BaseResolution": 106,
  "BodyPartExamined": "BRAIN",
  "CoilCombinationMethod": "Sum of Squares",
  "ConsistencyInfo": "N4_VE11C_LATEST_20160120",
  "ConversionSoftware": "dcm2niix",
  "ConversionSoftwareVersion": "v1.0.20220720",
  "DerivedVendorReportedEchoSpacing": 0.000700005,
  "DeviceSerialNumber": "166108",
  "DwellTime": 2.6e-06,
  "EchoTime": 0.03,
  "EchoTrainLength": 80,
  "EffectiveEchoSpacing": 0.000700005,
  "FlipAngle": 62,
  "HeudiconvVersion": "1.3.0",
  "ImageComments": "Unaliased MB4/PE3/LB",
  "ImageOrientationPatientDICOM": [1, 0, 0, 0, 0.966376, -0.257133],
  "ImageOrientationText": "Tra>Cor(-14.9)",
  "ImageType": [
    "ORIGINAL",
    "PRIMARY",
    "M",
    "MB",
    "ND",
    "MOSAIC"
],
  "ImagingFrequency": 123.244,
  "InPlanePhaseEncodingDirectionDICOM": "COL",
  "InstitutionAddress": "Bedford Way 26,London,London,GB,WC1H 0AP",
  "InstitutionName": "University College",
  "InstitutionalDepartmentName": "Department",
  "MRAcquisitionType": "2D",
  "MagneticFieldStrength": 3,
  "Manufacturer": "Siemens",
  "ManufacturersModelName": "Prisma",
  "MatrixCoilMode": "SENSE",
  "Modality": "MR",
  "MultibandAccelerationFactor": 4,
  "NonlinearGradientCorrection": false,
  "PartialFourier": 0.75,
  "PatientPosition": "HFS",
  "PercentPhaseFOV": 100,
  "PercentSampling": 100,
  "PhaseEncodingDirection": "j-",
  "PhaseEncodingSteps": 80,
  "PhaseResolution": 1,
  "PixelBandwidth": 1815,
  "ProcedureStepDescription": "Egor^MovieProject2",
  "ProtocolName": "func-bold_task-tono_run-01",
  "PulseSequenceDetails": "%CustomerSeq%\\cmrr_mbep2d_bold",
  "ReceiveCoilActiveElements": "HEA;HEP",
  "ReceiveCoilName": "Head_32",
  "ReconMatrixPE": 106,
  "RepetitionTime": 1,
  "SAR": 0.0384633,
  "ScanOptions": "PFP\\FS\\EXT",
  "ScanningSequence": "EP",
  "SequenceName": "epfid2d1_106",
  "SequenceVariant": "SK\\SS",
  "SeriesDescription": "func-bold_task-tono_run-01",
  "SeriesNumber": 18,
  "ShimSetting": [-1511, 621, 7372, 456, -281, 94, 337, -69],
  "SliceThickness": 2,
  "SliceTiming": [0, 0.535, 0.09, 0.625, 0.1775, 0.7125, 0.2675, 0.8025, 0.3575, 0.89, 0.445, 0, 0.535, 0.09, 0.625, 0.1775, 0.7125, 0.2675, 0.8025, 0.3575, 0.89, 0.445, 0, 0.535, 0.09, 0.625, 0.1775, 0.7125, 0.2675, 0.8025, 0.3575, 0.89, 0.445, 0, 0.535, 0.09, 0.625, 0.1775, 0.7125, 0.2675, 0.8025, 0.3575, 0.89, 0.445],
  "SoftwareVersions": "syngo MR E11",
  "SpacingBetweenSlices": 2,
  "StationName": "AWP166108",
  "TaskName": "tonotopy",
  "TotalReadoutTime": 0.0735005,
  "TxRefAmp": 218.587,
  "WipMemBlock": "edc464b4-5b9c-4343-be02-4d3270714fe0||Sequence: R016 ve11c/master r/e634e98; Dec 19 2017 11:00:25 by eja",
  "dcmmeta_affine": [
    [-2.0, 0.0, 0.0, 106.0],
    [0.0, 1.9327521324157715, -0.5142655968666077, -71.62010955810547],
    [0.0, 0.5142655968666077, 1.932752251625061, -54.397769927978516],
    [0.0, 0.0, 0.0, 1.0]
],
  "dcmmeta_reorient_transform": [
    [0.0, -1.0, 0.0, 105.0],
    [1.0, 0.0, 0.0, 0.0],
    [0.0, 0.0, 1.0, 0.0],
    [0.0, 0.0, 0.0, 1.0]
],
  "dcmmeta_shape": [106, 106, 44, 264],
  "dcmmeta_slice_dim": 2,
  "dcmmeta_version": 0.6,
  "global": {
    "const": {
      "AcquisitionMatrix": [106, 0, 0, 106],
      "AngioFlag": "N",
      "BitsAllocated": 16,
      "BitsStored": 16,
      "BodyPartExamined": "BRAIN",
      "CardiacNumberOfImages": 1,
      "Columns": 742,
      "EchoNumbers": 1,
      "EchoTime": 30.0,
      "EchoTrainLength": 80,
      "FlipAngle": 62.0,
      "HighBit": 15,
      "ImageOrientationPatient": [1.0, 0.0, 0.0, 0.0, 0.96637607924044, -0.2571327934587],
      "ImagePositionPatient": [-742.0, -745.93405593862, 163.13657266334],
      "ImageType": [
        "ORIGINAL",
        "PRIMARY",
        "M",
        "MB",
        "ND",
        "MOSAIC"
],
      "ImagedNucleus": "1H",
      "ImagingFrequency": 123.243646,
      "InPlanePhaseEncodingDirection": "COL",
      "MRAcquisitionType": "2D",
      "MagneticFieldStrength": 3.0,
      "Manufacturer": "SIEMENS",
      "ManufacturerModelName": "Prisma",
      "Modality": "MR",
      "NominalInterval": 0,
      "NumberOfAverages": 1.0,
      "NumberOfPhaseEncodingSteps": 80,
      "PercentPhaseFieldOfView": 100.0,
      "PercentSampling": 100.0,
      "PerformedProcedureStepStartTime": "163641.067000",
      "PhotometricInterpretation": "MONOCHROME2",
      "PixelBandwidth": 1815.0,
      "PixelRepresentation": 0,
      "PixelSpacing": [2.0, 2.0],
      "ProtocolName": "func-bold_task-tono_run-01",
      "RepetitionTime": 1000.0,
      "Rows": 742,
      "SAR": 0.03846326921931,
      "SamplesPerPixel": 1,
      "ScanOptions": [
        "PFP",
        "FS",
        "EXT"
],
      "ScanningSequence": "EP",
      "SequenceName": "epfid2d1_106",
      "SequenceVariant": [
        "SK",
        "SS"
],
      "SeriesDescription": "func-bold_task-tono_run-01",
      "SeriesNumber": 18,
      "SeriesTime": "175059.940000",
      "SliceLocation": -34.152826068346,
      "SliceThickness": 2.0,
      "SmallestImagePixelValue": 0,
      "SoftwareVersions": "syngo MR E11",
      "SpacingBetweenSlices": 2.0000000427607,
      "SpecificCharacterSet": "ISO_IR 100",
      "StudyID": "1",
      "StudyTime": "163640.992000",
      "TransmitCoilName": "Body",
      "VariableFlipAngleFlag": "N",
      "WindowCenterWidthExplanation": "Algo1",
      "dBdt": 0.0},
    "slices": {}
  },
  "time": {
    "samples": {
      "AcquisitionNumber": [1, 2, 3, 4, 5, 6, 7, 8, 9, 10, 11, 12, 13, 14, 15, 16, 17, 18, 19, 20, 21, 22, 23, 24, 25, 26, 27, 28, 29, 30, 31, 32, 33, 34, 35, 36, 37, 38, 39, 40, 41, 42, 43, 44, 45, 46, 47, 48, 49, 50, 51, 52, 53, 54, 55, 56, 57, 58, 59, 60, 61, 62, 63, 64, 65, 66, 67, 68, 69, 70, 71, 72, 73, 74, 75, 76, 77, 78, 79, 80, 81, 82, 83, 84, 85, 86, 87, 88, 89, 90, 91, 92, 93, 94, 95, 96, 97, 98, 99, 100, 101, 102, 103, 104, 105, 106, 107, 108, 109, 110, 111, 112, 113, 114, 115, 116, 117, 118, 119, 120, 121, 122, 123, 124, 125, 126, 127, 128, 129, 130, 131, 132, 133, 134, 135, 136, 137, 138, 139, 140, 141, 142, 143, 144, 145, 146, 147, 148, 149, 150, 151, 152, 153, 154, 155, 156, 157, 158, 159, 160, 161, 162, 163, 164, 165, 166, 167, 168, 169, 170, 171, 172, 173, 174, 175, 176, 177, 178, 179, 180, 181, 182, 183, 184, 185, 186, 187, 188, 189, 190, 191, 192, 193, 194, 195, 196, 197, 198, 199, 200, 201, 202, 203, 204, 205, 206, 207, 208, 209, 210, 211, 212, 213, 214, 215, 216, 217, 218, 219, 220, 221, 222, 223, 224, 225, 226, 227, 228, 229, 230, 231, 232, 233, 234, 235, 236, 237, 238, 239, 240, 241, 242, 243, 244, 245, 246, 247, 248, 249, 250, 251, 252, 253, 254, 255, 256, 257, 258, 259, 260, 261, 262, 263, 264],
      "AcquisitionTime": ["175038.755000", "175039.755000", "175040.755000", "175041.755000", "175042.755000", "175043.755000", "175044.755000", "175045.755000", "175046.755000", "175047.755000", "175048.755000", "175049.755000", "175050.755000", "175051.755000", "175052.755000", "175053.755000", "175054.755000", "175055.755000", "175056.755000", "175057.755000", "175058.755000", "175059.755000", "175100.755000", "175101.755000", "175102.755000", "175103.755000", "175104.755000", "175105.755000", "175106.755000", "175107.755000", "175108.755000", "175109.755000", "175110.755000", "175111.755000", "175112.755000", "175113.755000", "175114.755000", "175115.755000", "175116.755000", "175117.755000", "175118.755000", "175119.755000", "175120.755000", "175121.755000", "175122.755000", "175123.755000", "175124.755000", "175125.755000", "175126.755000", "175127.755000", "175128.755000", "175129.755000", "175130.755000", "175131.755000", "175132.755000", "175133.755000", "175134.755000", "175135.755000", "175136.755000", "175137.755000", "175138.755000", "175139.755000", "175140.755000", "175141.755000", "175142.755000", "175143.755000", "175144.755000", "175145.755000", "175146.755000", "175147.755000", "175148.755000", "175149.755000", "175150.755000", "175151.755000", "175152.755000", "175153.755000", "175154.755000", "175155.755000", "175156.755000", "175157.755000", "175158.755000", "175159.755000", "175200.755000", "175201.755000", "175202.755000", "175203.755000", "175204.755000", "175205.755000", "175206.755000", "175207.755000", "175208.755000", "175209.755000", "175210.755000", "175211.755000", "175212.755000", "175213.755000", "175214.755000", "175215.755000", "175216.755000", "175217.755000", "175218.755000", "175219.755000", "175220.755000", "175221.755000", "175222.755000", "175223.755000", "175224.755000", "175225.755000", "175226.755000", "175227.755000", "175228.755000", "175229.755000", "175230.755000", "175231.755000", "175232.755000", "175233.755000", "175234.755000", "175235.755000", "175236.755000", "175237.755000", "175238.755000", "175239.755000", "175240.755000", "175241.755000", "175242.755000", "175243.755000", "175244.755000", "175245.755000", "175246.755000", "175247.755000", "175248.755000", "175249.755000", "175250.755000", "175251.755000", "175252.755000", "175253.755000", "175254.755000", "175255.755000", "175256.755000", "175257.755000", "175258.755000", "175259.755000", "175300.755000", "175301.755000", "175302.755000", "175303.755000", "175304.755000", "175305.755000", "175306.755000", "175307.755000", "175308.755000", "175309.755000", "175310.755000", "175311.755000", "175312.755000", "175313.755000", "175314.755000", "175315.755000", "175316.755000", "175317.755000", "175318.755000", "175319.755000", "175320.755000", "175321.755000", "175322.755000", "175323.755000", "175324.755000", "175325.755000", "175326.755000", "175327.755000", "175328.755000", "175329.755000", "175330.755000", "175331.755000", "175332.755000", "175333.755000", "175334.755000", "175335.755000", "175336.755000", "175337.755000", "175338.755000", "175339.755000", "175340.755000", "175341.755000", "175342.755000", "175343.755000", "175344.755000", "175345.755000", "175346.755000", "175347.755000", "175348.755000", "175349.755000", "175350.755000", "175351.755000", "175352.755000", "175353.755000", "175354.755000", "175355.755000", "175356.755000", "175357.755000", "175358.755000", "175359.755000", "175400.755000", "175401.755000", "175402.755000", "175403.755000", "175404.755000", "175405.755000", "175406.755000", "175407.755000", "175408.755000", "175409.755000", "175410.755000", "175411.755000", "175412.755000", "175413.755000", "175414.755000", "175415.755000", "175416.755000", "175417.755000", "175418.755000", "175419.755000", "175420.755000", "175421.755000", "175422.755000", "175423.755000", "175424.755000", "175425.755000", "175426.755000", "175427.755000", "175428.755000", "175429.755000", "175430.755000", "175431.755000", "175432.755000", "175433.755000", "175434.755000", "175435.755000", "175436.755000", "175437.755000", "175438.755000", "175439.755000", "175440.755000", "175441.755000", "175442.755000", "175443.755000", "175444.755000", "175445.755000", "175446.755000", "175447.755000", "175448.755000", "175449.755000", "175450.755000", "175451.755000", "175452.755000", "175453.755000", "175454.755000", "175455.755000", "175456.755000", "175457.755000", "175458.755000", "175459.755000", "175500.755000", "175501.755000"],
      "ContentTime": ["175059.943000", "175059.946000", "175059.948000", "175059.950000", "175059.961000", "175059.963000", "175059.966000", "175059.968000", "175059.971000", "175059.973000", "175059.976000", "175059.978000", "175059.983000", "175059.986000", "175059.988000", "175059.991000", "175059.993000", "175059.996000", "175059.998000", "175100.002000", "175119.908000", "175119.911000", "175119.914000", "175119.921000", "175119.924000", "175119.926000", "175119.929000", "175119.932000", "175119.934000", "175119.937000", "175119.939000", "175119.953000", "175119.956000", "175119.958000", "175119.961000", "175119.964000", "175119.966000", "175119.969000", "175119.971000", "175119.974000", "175139.908000", "175139.919000", "175139.922000", "175139.924000", "175139.927000", "175139.929000", "175139.932000", "175139.934000", "175139.937000", "175139.939000", "175139.942000", "175139.944000", "175139.946000", "175139.949000", "175139.951000", "175139.954000", "175139.956000", "175139.959000", "175139.961000", "175139.963000", "175159.914000", "175159.917000", "175159.919000", "175159.922000", "175159.924000", "175159.927000", "175159.929000", "175159.932000", "175159.934000", "175159.936000", "175159.939000", "175159.941000", "175159.944000", "175159.947000", "175159.949000", "175159.951000", "175159.954000", "175159.957000", "175159.959000", "175159.961000", "175219.908000", "175219.911000", "175219.914000", "175219.916000", "175219.919000", "175219.921000", "175219.924000", "175219.926000", "175219.929000", "175219.931000", "175219.934000", "175219.936000", "175219.938000", "175219.941000", "175219.943000", "175219.946000", "175219.948000", "175219.951000", "175219.954000", "175219.956000", "175239.908000", "175239.911000", "175239.914000", "175239.916000", "175239.918000", "175239.921000", "175239.923000", "175239.926000", "175239.928000", "175239.931000", "175239.933000", "175239.936000", "175239.938000", "175239.941000", "175239.944000", "175239.946000", "175239.948000", "175239.951000", "175239.953000", "175239.956000", "175259.908000", "175259.911000", "175259.914000", "175259.916000", "175259.919000", "175259.921000", "175259.923000", "175259.926000", "175259.929000", "175259.931000", "175259.934000", "175259.937000", "175259.939000", "175259.942000", "175259.944000", "175259.947000", "175259.949000", "175259.952000", "175259.954000", "175259.957000", "175319.908000", "175319.911000", "175319.914000", "175319.916000", "175319.919000", "175319.921000", "175319.924000", "175319.926000", "175319.929000", "175319.932000", "175319.934000", "175319.936000", "175319.939000", "175319.941000", "175319.944000", "175319.947000", "175319.949000", "175319.952000", "175319.954000", "175319.956000", "175339.908000", "175339.911000", "175339.914000", "175339.916000", "175339.919000", "175339.921000", "175339.924000", "175339.926000", "175339.929000", "175339.931000", "175339.934000", "175339.936000", "175339.938000", "175339.941000", "175339.943000", "175339.946000", "175339.948000", "175339.951000", "175339.953000", "175339.956000", "175359.908000", "175359.911000", "175359.914000", "175359.916000", "175359.919000", "175359.921000", "175359.924000", "175359.926000", "175359.929000", "175359.932000", "175359.934000", "175359.936000", "175359.939000", "175359.942000", "175359.944000", "175359.947000", "175359.949000", "175359.952000", "175359.954000", "175359.957000", "175419.908000", "175419.911000", "175419.914000", "175419.916000", "175419.919000", "175419.921000", "175419.924000", "175419.926000", "175419.929000", "175419.931000", "175419.934000", "175419.936000", "175419.939000", "175419.941000", "175419.944000", "175419.946000", "175419.949000", "175419.951000", "175419.954000", "175419.956000", "175439.908000", "175439.911000", "175439.914000", "175439.917000", "175439.919000", "175439.922000", "175439.924000", "175439.927000", "175439.930000", "175439.932000", "175439.935000", "175439.937000", "175439.940000", "175439.943000", "175439.945000", "175439.948000", "175439.950000", "175439.953000", "175439.955000", "175439.958000", "175459.908000", "175459.911000", "175459.914000", "175459.916000", "175459.919000", "175459.921000", "175459.924000", "175459.926000", "175459.929000", "175459.931000", "175459.934000", "175459.936000", "175459.939000", "175459.941000", "175459.944000", "175459.946000", "175459.948000", "175459.951000", "175459.953000", "175459.956000", "175503.515000", "175503.518000", "175503.529000", "175503.532000"],
      "InstanceCreationTime": ["175059.943000", "175059.946000", "175059.948000", "175059.950000", "175059.961000", "175059.963000", "175059.966000", "175059.968000", "175059.971000", "175059.973000", "175059.976000", "175059.978000", "175059.983000", "175059.986000", "175059.988000", "175059.991000", "175059.993000", "175059.996000", "175059.998000", "175100.002000", "175119.908000", "175119.911000", "175119.914000", "175119.921000", "175119.924000", "175119.926000", "175119.929000", "175119.932000", "175119.934000", "175119.937000", "175119.939000", "175119.953000", "175119.956000", "175119.958000", "175119.961000", "175119.964000", "175119.966000", "175119.969000", "175119.971000", "175119.974000", "175139.908000", "175139.919000", "175139.922000", "175139.924000", "175139.927000", "175139.929000", "175139.932000", "175139.934000", "175139.937000", "175139.939000", "175139.942000", "175139.944000", "175139.946000", "175139.949000", "175139.951000", "175139.954000", "175139.956000", "175139.959000", "175139.961000", "175139.963000", "175159.914000", "175159.917000", "175159.919000", "175159.922000", "175159.924000", "175159.927000", "175159.929000", "175159.932000", "175159.934000", "175159.936000", "175159.939000", "175159.941000", "175159.944000", "175159.947000", "175159.949000", "175159.951000", "175159.954000", "175159.957000", "175159.959000", "175159.961000", "175219.908000", "175219.911000", "175219.914000", "175219.916000", "175219.919000", "175219.921000", "175219.924000", "175219.926000", "175219.929000", "175219.931000", "175219.934000", "175219.936000", "175219.938000", "175219.941000", "175219.943000", "175219.946000", "175219.948000", "175219.951000", "175219.954000", "175219.956000", "175239.908000", "175239.911000", "175239.914000", "175239.916000", "175239.918000", "175239.921000", "175239.923000", "175239.926000", "175239.928000", "175239.931000", "175239.933000", "175239.936000", "175239.938000", "175239.941000", "175239.944000", "175239.946000", "175239.948000", "175239.951000", "175239.953000", "175239.956000", "175259.908000", "175259.911000", "175259.914000", "175259.916000", "175259.919000", "175259.921000", "175259.923000", "175259.926000", "175259.929000", "175259.931000", "175259.934000", "175259.937000", "175259.939000", "175259.942000", "175259.944000", "175259.947000", "175259.949000", "175259.952000", "175259.954000", "175259.957000", "175319.908000", "175319.911000", "175319.914000", "175319.916000", "175319.919000", "175319.921000", "175319.924000", "175319.926000", "175319.929000", "175319.932000", "175319.934000", "175319.936000", "175319.939000", "175319.941000", "175319.944000", "175319.947000", "175319.949000", "175319.952000", "175319.954000", "175319.956000", "175339.908000", "175339.911000", "175339.914000", "175339.916000", "175339.919000", "175339.921000", "175339.924000", "175339.926000", "175339.929000", "175339.931000", "175339.934000", "175339.936000", "175339.938000", "175339.941000", "175339.943000", "175339.946000", "175339.948000", "175339.951000", "175339.953000", "175339.956000", "175359.908000", "175359.911000", "175359.914000", "175359.916000", "175359.919000", "175359.921000", "175359.924000", "175359.926000", "175359.929000", "175359.932000", "175359.934000", "175359.936000", "175359.939000", "175359.942000", "175359.944000", "175359.947000", "175359.949000", "175359.952000", "175359.954000", "175359.957000", "175419.908000", "175419.911000", "175419.914000", "175419.916000", "175419.919000", "175419.921000", "175419.924000", "175419.926000", "175419.929000", "175419.931000", "175419.934000", "175419.936000", "175419.939000", "175419.941000", "175419.944000", "175419.946000", "175419.949000", "175419.951000", "175419.954000", "175419.956000", "175439.908000", "175439.911000", "175439.914000", "175439.917000", "175439.919000", "175439.922000", "175439.924000", "175439.927000", "175439.930000", "175439.932000", "175439.935000", "175439.937000", "175439.940000", "175439.943000", "175439.945000", "175439.948000", "175439.950000", "175439.953000", "175439.955000", "175439.958000", "175459.908000", "175459.911000", "175459.914000", "175459.916000", "175459.919000", "175459.921000", "175459.924000", "175459.926000", "175459.929000", "175459.931000", "175459.934000", "175459.936000", "175459.939000", "175459.941000", "175459.944000", "175459.946000", "175459.948000", "175459.951000", "175459.953000", "175459.956000", "175503.515000", "175503.518000", "175503.529000", "175503.532000"],
      "InstanceNumber": [1, 2, 3, 4, 5, 6, 7, 8, 9, 10, 11, 12, 13, 14, 15, 16, 17, 18, 19, 20, 21, 22, 23, 24, 25, 26, 27, 28, 29, 30, 31, 32, 33, 34, 35, 36, 37, 38, 39, 40, 41, 42, 43, 44, 45, 46, 47, 48, 49, 50, 51, 52, 53, 54, 55, 56, 57, 58, 59, 60, 61, 62, 63, 64, 65, 66, 67, 68, 69, 70, 71, 72, 73, 74, 75, 76, 77, 78, 79, 80, 81, 82, 83, 84, 85, 86, 87, 88, 89, 90, 91, 92, 93, 94, 95, 96, 97, 98, 99, 100, 101, 102, 103, 104, 105, 106, 107, 108, 109, 110, 111, 112, 113, 114, 115, 116, 117, 118, 119, 120, 121, 122, 123, 124, 125, 126, 127, 128, 129, 130, 131, 132, 133, 134, 135, 136, 137, 138, 139, 140, 141, 142, 143, 144, 145, 146, 147, 148, 149, 150, 151, 152, 153, 154, 155, 156, 157, 158, 159, 160, 161, 162, 163, 164, 165, 166, 167, 168, 169, 170, 171, 172, 173, 174, 175, 176, 177, 178, 179, 180, 181, 182, 183, 184, 185, 186, 187, 188, 189, 190, 191, 192, 193, 194, 195, 196, 197, 198, 199, 200, 201, 202, 203, 204, 205, 206, 207, 208, 209, 210, 211, 212, 213, 214, 215, 216, 217, 218, 219, 220, 221, 222, 223, 224, 225, 226, 227, 228, 229, 230, 231, 232, 233, 234, 235, 236, 237, 238, 239, 240, 241, 242, 243, 244, 245, 246, 247, 248, 249, 250, 251, 252, 253, 254, 255, 256, 257, 258, 259, 260, 261, 262, 263, 264],
      "LargestImagePixelValue": [10484, 10290, 10265, 10156, 10228, 10464, 10243, 10385, 10746, 10505, 10677, 10707, 10369, 10314, 10475, 10582, 10176, 10272, 10381, 10304, 10582, 10523, 10454, 10458, 10576, 10449, 10369, 10464, 10506, 10453, 10499, 10457, 10508, 10399, 10390, 10353, 10469, 10405, 10451, 10459, 10401, 10486, 10394, 10348, 10468, 10541, 10451, 10419, 10532, 10387, 10455, 10585, 10489, 10565, 10617, 10543, 10498, 10531, 10602, 10580, 10550, 10416, 10444, 10332, 10360, 10483, 10381, 10342, 10499, 10575, 10467, 10515, 10296, 10317, 10375, 10383, 10350, 10546, 10544, 10362, 10594, 10502, 10388, 10448, 10488, 10269, 10406, 10319, 10440, 10438, 10290, 10246, 10474, 10205, 10483, 10475, 10426, 10450, 10444, 10505, 10510, 10457, 10439, 10373, 10557, 10402, 10313, 10450, 10465, 10406, 10415, 10368, 10334, 10396, 10371, 10423, 10451, 10406, 10425, 10522, 10435, 10388, 10443, 10290, 10446, 10392, 10470, 10462, 10509, 10386, 10386, 10327, 10358, 10445, 10475, 10541, 10531, 10566, 10575, 10595, 10525, 10597, 10713, 10503, 10560, 10568, 10399, 10346, 10369, 10337, 10324, 10322, 10492, 10448, 10522, 10427, 10512, 10439, 10386, 10571, 10465, 10433, 10537, 10363, 10370, 10524, 10549, 10605, 10558, 10438, 10560, 10457, 10470, 10407, 10424, 10560, 10559, 10563, 10479, 10530, 10546, 10442, 10476, 10495, 10439, 10508, 10515, 10321, 10372, 10445, 10471, 10517, 10442, 10516, 10670, 10476, 10466, 10580, 10489, 10504, 10495, 10328, 10470, 10475, 10507, 10504, 10581, 10348, 10358, 10540, 10533, 10575, 10545, 10441, 10432, 10427, 10473, 10485, 10530, 10616, 10544, 10631, 10650, 10478, 10545, 10573, 10577, 10666, 10525, 10589, 10582, 10648, 10599, 10636, 10581, 10629, 10553, 10529, 10638, 10423, 10547, 10659, 10513, 10479, 10501, 10600, 10548, 10515, 10490, 10529, 10647, 10549, 10655, 10631, 10683, 10833, 10783, 10778, 10745, 10625, 10592, 10720, 10619, 10561],
      "TriggerTime": [8102.5, 9102.5, 10102.5, 11102.5, 12102.5, 13102.5, 14102.5, 15102.5, 16102.5, 17102.5, 18102.5, 19102.5, 20102.5, 21102.5, 22102.5, 23102.5, 24102.5, 25102.5, 26102.5, 27102.5, 28102.5, 29102.5, 30102.5, 31102.5, 32102.5, 33102.5, 34102.5, 35102.5, 36102.5, 37102.5, 38102.5, 39102.5, 40102.5, 41102.5, 42102.5, 43102.5, 44102.5, 45102.5, 46102.5, 47102.5, 48102.5, 49102.5, 50102.5, 51102.5, 52102.5, 53102.5, 54102.5, 55102.5, 56102.5, 57102.5, 58102.5, 59102.5, 60102.5, 61102.5, 62102.5, 63102.5, 64102.5, 65102.5, 66102.5, 67102.5, 68102.5, 69102.5, 70102.5, 71102.5, 72102.5, 73102.5, 74102.5, 75102.5, 76102.5, 77102.5, 78102.5, 79102.5, 80102.5, 81102.5, 82102.5, 83102.5, 84102.5, 85102.5, 86102.5, 87102.5, 88102.5, 89102.5, 90102.5, 91102.5, 92102.5, 93102.5, 94102.5, 95102.5, 96102.5, 97102.5, 98102.5, 99102.5, 100102.5, 101102.5, 102102.5, 103102.5, 104102.5, 105102.5, 106102.5, 107102.5, 108102.5, 109102.5, 110102.5, 111102.5, 112102.5, 113102.5, 114102.5, 115102.5, 116102.5, 117102.5, 118102.5, 119102.5, 120102.5, 121102.5, 122102.5, 123102.5, 124102.5, 125102.5, 126102.5, 127102.5, 128102.5, 129102.5, 130102.5, 131102.5, 132102.5, 133102.5, 134102.5, 135102.5, 136102.5, 137102.5, 138102.5, 139102.5, 140102.5, 141102.5, 142102.5, 143102.5, 144102.5, 145102.5, 146102.5, 147102.5, 148102.5, 149102.5, 150102.5, 151102.5, 152102.5, 153102.5, 154102.5, 155102.5, 156102.5, 157102.5, 158102.5, 159102.5, 160102.5, 161102.5, 162102.5, 163102.5, 164102.5, 165102.5, 166102.5, 167102.5, 168102.5, 169102.5, 170102.5, 171102.5, 172102.5, 173102.5, 174102.5, 175102.5, 176102.5, 177102.5, 178102.5, 179102.5, 180102.5, 181102.5, 182102.5, 183102.5, 184102.5, 185102.5, 186102.5, 187102.5, 188102.5, 189102.5, 190102.5, 191102.5, 192102.5, 193102.5, 194102.5, 195102.5, 196102.5, 197102.5, 198102.5, 199102.5, 200102.5, 201102.5, 202102.5, 203102.5, 204102.5, 205102.5, 206102.5, 207102.5, 208102.5, 209102.5, 210102.5, 211102.5, 212102.5, 213102.5, 214102.5, 215102.5, 216102.5, 217102.5, 218102.5, 219102.5, 220102.5, 221102.5, 222102.5, 223102.5, 224102.5, 225102.5, 226102.5, 227102.5, 228102.5, 229102.5, 230102.5, 231102.5, 232102.5, 233102.5, 234102.5, 235102.5, 236102.5, 237102.5, 238102.5, 239102.5, 240102.5, 241102.5, 242102.5, 243102.5, 244102.5, 245102.5, 246102.5, 247102.5, 248102.5, 249102.5, 250102.5, 251102.5, 252102.5, 253102.5, 254102.5, 255102.5, 256102.5, 257102.5, 258102.5, 259102.5, 260102.5, 261102.5, 262102.5, 263102.5, 264102.5, 265102.5, 266102.5, 267102.5, 268102.5, 269102.5, 270102.5, 271102.5],
      "WindowCenter": [4333.0, 4325.0, 4320.0, 4320.0, 4317.0, 4332.0, 4323.0, 4321.0, 4347.0, 4335.0, 4350.0, 4348.0, 4347.0, 4353.0, 4364.0, 4361.0, 4351.0, 4350.0, 4350.0, 4354.0, 4361.0, 4362.0, 4356.0, 4360.0, 4363.0, 4363.0, 4347.0, 4364.0, 4363.0, 4360.0, 4366.0, 4363.0, 4359.0, 4350.0, 4352.0, 4351.0, 4355.0, 4357.0, 4346.0, 4351.0, 4350.0, 4349.0, 4347.0, 4346.0, 4345.0, 4350.0, 4348.0, 4349.0, 4361.0, 4347.0, 4348.0, 4363.0, 4359.0, 4362.0, 4360.0, 4362.0, 4364.0, 4363.0, 4364.0, 4359.0, 4358.0, 4361.0, 4361.0, 4348.0, 4350.0, 4360.0, 4352.0, 4352.0, 4362.0, 4347.0, 4355.0, 4358.0, 4352.0, 4345.0, 4352.0, 4351.0, 4350.0, 4359.0, 4361.0, 4351.0, 4358.0, 4362.0, 4349.0, 4359.0, 4359.0, 4349.0, 4361.0, 4352.0, 4362.0, 4363.0, 4348.0, 4350.0, 4358.0, 4349.0, 4357.0, 4362.0, 4360.0, 4363.0, 4359.0, 4359.0, 4359.0, 4357.0, 4349.0, 4350.0, 4361.0, 4351.0, 4349.0, 4349.0, 4348.0, 4349.0, 4341.0, 4343.0, 4347.0, 4350.0, 4346.0, 4347.0, 4348.0, 4360.0, 4358.0, 4361.0, 4345.0, 4351.0, 4355.0, 4348.0, 4350.0, 4347.0, 4350.0, 4362.0, 4347.0, 4346.0, 4350.0, 4347.0, 4348.0, 4347.0, 4348.0, 4359.0, 4362.0, 4362.0, 4360.0, 4357.0, 4361.0, 4360.0, 4360.0, 4362.0, 4358.0, 4359.0, 4349.0, 4352.0, 4348.0, 4350.0, 4351.0, 4352.0, 4350.0, 4347.0, 4358.0, 4359.0, 4359.0, 4358.0, 4350.0, 4357.0, 4359.0, 4349.0, 4359.0, 4349.0, 4344.0, 4347.0, 4348.0, 4346.0, 4361.0, 4358.0, 4344.0, 4346.0, 4347.0, 4345.0, 4349.0, 4347.0, 4346.0, 4348.0, 4344.0, 4343.0, 4344.0, 4348.0, 4342.0, 4348.0, 4359.0, 4348.0, 4349.0, 4337.0, 4337.0, 4348.0, 4344.0, 4347.0, 4344.0, 4346.0, 4348.0, 4348.0, 4348.0, 4345.0, 4346.0, 4343.0, 4343.0, 4334.0, 4345.0, 4343.0, 4344.0, 4347.0, 4347.0, 4343.0, 4345.0, 4349.0, 4347.0, 4345.0, 4360.0, 4349.0, 4348.0, 4351.0, 4347.0, 4345.0, 4347.0, 4347.0, 4346.0, 4358.0, 4360.0, 4357.0, 4348.0, 4346.0, 4344.0, 4345.0, 4344.0, 4348.0, 4345.0, 4346.0, 4349.0, 4343.0, 4347.0, 4344.0, 4342.0, 4346.0, 4346.0, 4345.0, 4349.0, 4346.0, 4348.0, 4347.0, 4346.0, 4345.0, 4347.0, 4349.0, 4346.0, 4346.0, 4346.0, 4363.0, 4362.0, 4363.0, 4366.0, 4372.0, 4371.0, 4376.0, 4373.0, 4359.0, 4360.0, 4359.0, 4346.0, 4343.0],
