{
  "AcquisitionMatrixPE": 106,
  "AcquisitionNumber": 1,
  "AcquisitionTime": "17:34:2.780000",
  "BandwidthPerPixelPhaseEncode": 16.846,
  "BaseResolution": 106,
  "BodyPartExamined": "BRAIN",
  "CoilCombinationMethod": "Sum of Squares",
  "ConsistencyInfo": "N4_VE11C_LATEST_20160120",
  "ConversionSoftware": "dcm2niix",
  "ConversionSoftwareVersion": "v1.0.20220720",
  "DerivedVendorReportedEchoSpacing": 0.000560012,
  "DeviceSerialNumber": "166108",
  "DwellTime": 1.8e-06,
  "EchoTime": 0.0352,
  "EchoTrainLength": 106,
  "EffectiveEchoSpacing": 0.000560012,
  "FlipAngle": 60,
  "HeudiconvVersion": "1.3.0",
  "ImageComments": "Unaliased MB4/PE3/LB",
  "ImageOrientationPatientDICOM": [1, 0, 0, 0, 0.960779, -0.277315],
  "ImageOrientationText": "Tra>Cor(-16.1)",
  "ImageType": [
    "ORIGINAL",
    "PRIMARY",
    "M",
    "MB",
    "ND",
    "MOSAIC"
],
  "ImagingFrequency": 123.244,
  "InPlanePhaseEncodingDirectionDICOM": "COL",
  "InstitutionAddress": "Bedford Way 26,London,London,GB,WC1H 0AP",
  "InstitutionName": "University College",
  "InstitutionalDepartmentName": "Department",
  "MRAcquisitionType": "2D",
  "MagneticFieldStrength": 3,
  "Manufacturer": "Siemens",
  "ManufacturersModelName": "Prisma",
  "MatrixCoilMode": "SENSE",
  "Modality": "MR",
  "MultibandAccelerationFactor": 4,
  "NonlinearGradientCorrection": false,
  "PartialFourier": 1,
  "PatientPosition": "HFS",
  "PercentPhaseFOV": 100,
  "PercentSampling": 100,
  "PhaseEncodingDirection": "j-",
  "PhaseEncodingSteps": 106,
  "PhaseResolution": 1,
  "PixelBandwidth": 2620,
  "ProcedureStepDescription": "Egor^MovieProject2",
  "ProtocolName": "func-bold_task-pRF_run-02",
  "PulseSequenceDetails": "%CustomerSeq%\\cmrr_mbep2d_bold",
  "ReceiveCoilActiveElements": "HEA;HEP",
  "ReceiveCoilName": "Head_32",
  "ReconMatrixPE": 106,
  "RepetitionTime": 1,
  "SAR": 0.0691299,
  "ScanOptions": "FS\\EXT",
  "ScanningSequence": "EP",
  "SequenceName": "epfid2d1_106",
  "SequenceVariant": "SK\\SS",
  "SeriesDescription": "func-bold_task-pRF_run-02",
  "SeriesNumber": 12,
  "ShimSetting": [-1502, 604, 7352, 274, -182, 189, 382, -37],
  "SliceThickness": 2,
  "SliceTiming": [0, 0.4075, 0.815, 0.245, 0.6525, 0.08, 0.49, 0.8975, 0.325, 0.7325, 0.1625, 0.57, 0, 0.4075, 0.815, 0.245, 0.6525, 0.08, 0.49, 0.8975, 0.325, 0.7325, 0.1625, 0.57, 0, 0.4075, 0.815, 0.245, 0.6525, 0.08, 0.49, 0.8975, 0.325, 0.7325, 0.1625, 0.57, 0, 0.4075, 0.815, 0.245, 0.6525, 0.08, 0.49, 0.8975, 0.325, 0.7325, 0.1625, 0.57],
  "SoftwareVersions": "syngo MR E11",
  "SpacingBetweenSlices": 2,
  "StationName": "AWP166108",
  "TaskName": "retinotopy",
  "TotalReadoutTime": 0.0588013,
  "TxRefAmp": 218.587,
  "WipMemBlock": "a91706cf-49ba-48e9-b4a1-05e42801cb16||Sequence: R016 ve11c/master r/e634e98; Dec 19 2017 11:00:25 by eja",
  "dcmmeta_affine": [
    [-2.0, 0.0, 0.0, 106.0],
    [0.0, 1.9215582609176636, -0.5546293258666992, -77.63423156738281],
    [0.0, 0.5546293258666992, 1.9215583801269531, -37.60216522216797],
    [0.0, 0.0, 0.0, 1.0]
],
  "dcmmeta_reorient_transform": [
    [0.0, -1.0, 0.0, 105.0],
    [1.0, 0.0, 0.0, 0.0],
    [0.0, 0.0, 1.0, 0.0],
    [0.0, 0.0, 0.0, 1.0]
],
  "dcmmeta_shape": [106, 106, 48, 356],
  "dcmmeta_slice_dim": 2,
  "dcmmeta_version": 0.6,
  "global": {
    "const": {
      "AcquisitionMatrix": [106, 0, 0, 106],
      "AngioFlag": "N",
      "BitsAllocated": 16,
      "BitsStored": 16,
      "BodyPartExamined": "BRAIN",
      "CardiacNumberOfImages": 1,
      "Columns": 742,
      "EchoNumbers": 1,
      "EchoTime": 35.2,
      "EchoTrainLength": 106,
      "FlipAngle": 60.0,
      "HighBit": 15,
      "ImageOrientationPatient": [1.0, 0.0, 0.0, 0.0, 0.9607791500038, -0.2773146676935],
      "ImagePositionPatient": [-742.0, -735.18492968734, 197.00604410517],
      "ImageType": [
        "ORIGINAL",
        "PRIMARY",
        "M",
        "MB",
        "ND",
        "MOSAIC"
],
      "ImagedNucleus": "1H",
      "ImagingFrequency": 123.243641,
      "InPlanePhaseEncodingDirection": "COL",
      "MRAcquisitionType": "2D",
      "MagneticFieldStrength": 3.0,
      "Manufacturer": "SIEMENS",
      "ManufacturerModelName": "Prisma",
      "Modality": "MR",
      "NominalInterval": 0,
      "NumberOfAverages": 1.0,
      "NumberOfPhaseEncodingSteps": 106,
      "PercentPhaseFieldOfView": 100.0,
      "PercentSampling": 100.0,
      "PerformedProcedureStepStartTime": "163641.067000",
      "PhotometricInterpretation": "MONOCHROME2",
      "PixelBandwidth": 2620.0,
      "PixelRepresentation": 0,
      "PixelSpacing": [2.0, 2.0],
      "ProtocolName": "func-bold_task-pRF_run-02",
      "RepetitionTime": 1000.0,
      "Rows": 742,
      "SAR": 0.06912993053685,
      "SamplesPerPixel": 1,
      "ScanOptions": [
        "FS",
        "EXT"
],
      "ScanningSequence": "EP",
      "SequenceName": "epfid2d1_106",
      "SequenceVariant": [
        "SK",
        "SS"
],
      "SeriesDescription": "func-bold_task-pRF_run-02",
      "SeriesNumber": 12,
      "SeriesTime": "173439.931000",
      "SliceLocation": -14.598264868556,
      "SliceThickness": 2.0,
      "SmallestImagePixelValue": 0,
      "SoftwareVersions": "syngo MR E11",
      "SpacingBetweenSlices": 2.000000047808,
      "SpecificCharacterSet": "ISO_IR 100",
      "StudyID": "1",
      "StudyTime": "163640.992000",
      "TransmitCoilName": "Body",
      "VariableFlipAngleFlag": "N",
      "WindowCenterWidthExplanation": "Algo1",
      "dBdt": 0.0},
    "slices": {}
  },
  "time": {
    "samples": {
      "AcquisitionNumber": [1, 2, 3, 4, 5, 6, 7, 8, 9, 10, 11, 12, 13, 14, 15, 16, 17, 18, 19, 20, 21, 22, 23, 24, 25, 26, 27, 28, 29, 30, 31, 32, 33, 34, 35, 36, 37, 38, 39, 40, 41, 42, 43, 44, 45, 46, 47, 48, 49, 50, 51, 52, 53, 54, 55, 56, 57, 58, 59, 60, 61, 62, 63, 64, 65, 66, 67, 68, 69, 70, 71, 72, 73, 74, 75, 76, 77, 78, 79, 80, 81, 82, 83, 84, 85, 86, 87, 88, 89, 90, 91, 92, 93, 94, 95, 96, 97, 98, 99, 100, 101, 102, 103, 104, 105, 106, 107, 108, 109, 110, 111, 112, 113, 114, 115, 116, 117, 118, 119, 120, 121, 122, 123, 124, 125, 126, 127, 128, 129, 130, 131, 132, 133, 134, 135, 136, 137, 138, 139, 140, 141, 142, 143, 144, 145, 146, 147, 148, 149, 150, 151, 152, 153, 154, 155, 156, 157, 158, 159, 160, 161, 162, 163, 164, 165, 166, 167, 168, 169, 170, 171, 172, 173, 174, 175, 176, 177, 178, 179, 180, 181, 182, 183, 184, 185, 186, 187, 188, 189, 190, 191, 192, 193, 194, 195, 196, 197, 198, 199, 200, 201, 202, 203, 204, 205, 206, 207, 208, 209, 210, 211, 212, 213, 214, 215, 216, 217, 218, 219, 220, 221, 222, 223, 224, 225, 226, 227, 228, 229, 230, 231, 232, 233, 234, 235, 236, 237, 238, 239, 240, 241, 242, 243, 244, 245, 246, 247, 248, 249, 250, 251, 252, 253, 254, 255, 256, 257, 258, 259, 260, 261, 262, 263, 264, 265, 266, 267, 268, 269, 270, 271, 272, 273, 274, 275, 276, 277, 278, 279, 280, 281, 282, 283, 284, 285, 286, 287, 288, 289, 290, 291, 292, 293, 294, 295, 296, 297, 298, 299, 300, 301, 302, 303, 304, 305, 306, 307, 308, 309, 310, 311, 312, 313, 314, 315, 316, 317, 318, 319, 320, 321, 322, 323, 324, 325, 326, 327, 328, 329, 330, 331, 332, 333, 334, 335, 336, 337, 338, 339, 340, 341, 342, 343, 344, 345, 346, 347, 348, 349, 350, 351, 352, 353, 354, 355, 356],
      "AcquisitionTime": ["173402.780000", "173403.780000", "173404.780000", "173405.780000", "173406.780000", "173407.780000", "173408.780000", "173409.780000", "173410.780000", "173411.780000", "173412.780000", "173413.780000", "173414.780000", "173415.780000", "173416.780000", "173417.780000", "173418.780000", "173419.780000", "173420.780000", "173421.780000", "173422.780000", "173423.780000", "173424.780000", "173425.780000", "173426.780000", "173427.780000", "173428.780000", "173429.780000", "173430.780000", "173431.780000", "173432.780000", "173433.780000", "173434.780000", "173435.780000", "173436.780000", "173437.780000", "173438.780000", "173439.780000", "173440.780000", "173441.780000", "173442.780000", "173443.780000", "173444.780000", "173445.780000", "173446.780000", "173447.780000", "173448.780000", "173449.780000", "173450.780000", "173451.780000", "173452.780000", "173453.780000", "173454.780000", "173455.780000", "173456.780000", "173457.780000", "173458.780000", "173459.780000", "173500.780000", "173501.780000", "173502.780000", "173503.780000", "173504.780000", "173505.780000", "173506.780000", "173507.780000", "173508.780000", "173509.780000", "173510.780000", "173511.780000", "173512.780000", "173513.780000", "173514.780000", "173515.780000", "173516.780000", "173517.780000", "173518.780000", "173519.780000", "173520.780000", "173521.780000", "173522.780000", "173523.780000", "173524.780000", "173525.780000", "173526.780000", "173527.780000", "173528.780000", "173529.780000", "173530.780000", "173531.780000", "173532.780000", "173533.780000", "173534.780000", "173535.780000", "173536.780000", "173537.780000", "173538.780000", "173539.780000", "173540.780000", "173541.780000", "173542.780000", "173543.780000", "173544.780000", "173545.780000", "173546.780000", "173547.780000", "173548.780000", "173549.780000", "173550.780000", "173551.780000", "173552.780000", "173553.780000", "173554.780000", "173555.780000", "173556.780000", "173557.780000", "173558.780000", "173559.780000", "173600.780000", "173601.780000", "173602.780000", "173603.780000", "173604.780000", "173605.780000", "173606.780000", "173607.780000", "173608.780000", "173609.780000", "173610.780000", "173611.780000", "173612.780000", "173613.780000", "173614.780000", "173615.780000", "173616.780000", "173617.780000", "173618.780000", "173619.780000", "173620.780000", "173621.780000", "173622.780000", "173623.780000", "173624.780000", "173625.780000", "173626.780000", "173627.780000", "173628.780000", "173629.780000", "173630.780000", "173631.780000", "173632.780000", "173633.780000", "173634.780000", "173635.780000", "173636.780000", "173637.780000", "173638.780000", "173639.780000", "173640.780000", "173641.780000", "173642.780000", "173643.780000", "173644.780000", "173645.780000", "173646.780000", "173647.780000", "173648.780000", "173649.780000", "173650.780000", "173651.780000", "173652.780000", "173653.780000", "173654.780000", "173655.780000", "173656.780000", "173657.780000", "173658.780000", "173659.780000", "173700.780000", "173701.780000", "173702.780000", "173703.780000", "173704.780000", "173705.780000", "173706.780000", "173707.780000", "173708.780000", "173709.780000", "173710.780000", "173711.780000", "173712.780000", "173713.780000", "173714.780000", "173715.780000", "173716.780000", "173717.780000", "173718.780000", "173719.780000", "173720.780000", "173721.780000", "173722.780000", "173723.780000", "173724.780000", "173725.780000", "173726.780000", "173727.780000", "173728.780000", "173729.780000", "173730.780000", "173731.780000", "173732.780000", "173733.780000", "173734.780000", "173735.780000", "173736.780000", "173737.780000", "173738.780000", "173739.780000", "173740.780000", "173741.780000", "173742.780000", "173743.780000", "173744.780000", "173745.780000", "173746.780000", "173747.780000", "173748.780000", "173749.780000", "173750.780000", "173751.780000", "173752.780000", "173753.780000", "173754.780000", "173755.780000", "173756.780000", "173757.780000", "173758.780000", "173759.780000", "173800.780000", "173801.780000", "173802.780000", "173803.780000", "173804.780000", "173805.780000", "173806.780000", "173807.780000", "173808.780000", "173809.780000", "173810.780000", "173811.780000", "173812.780000", "173813.780000", "173814.780000", "173815.780000", "173816.780000", "173817.780000", "173818.780000", "173819.780000", "173820.780000", "173821.780000", "173822.780000", "173823.780000", "173824.780000", "173825.780000", "173826.780000", "173827.780000", "173828.780000", "173829.780000", "173830.780000", "173831.780000", "173832.780000", "173833.780000", "173834.780000", "173835.780000", "173836.780000", "173837.780000", "173838.780000", "173839.780000", "173840.780000", "173841.780000", "173842.780000", "173843.780000", "173844.780000", "173845.780000", "173846.780000", "173847.780000", "173848.780000", "173849.780000", "173850.780000", "173851.780000", "173852.780000", "173853.780000", "173854.780000", "173855.780000", "173856.780000", "173857.780000", "173858.780000", "173859.780000", "173900.780000", "173901.780000", "173902.780000", "173903.780000", "173904.780000", "173905.780000", "173906.780000", "173907.780000", "173908.780000", "173909.780000", "173910.780000", "173911.780000", "173912.780000", "173913.780000", "173914.780000", "173915.780000", "173916.780000", "173917.780000", "173918.780000", "173919.780000", "173920.780000", "173921.780000", "173922.780000", "173923.780000", "173924.780000", "173925.780000", "173926.780000", "173927.780000", "173928.780000", "173929.780000", "173930.780000", "173931.780000", "173932.780000", "173933.780000", "173934.780000", "173935.780000", "173936.780000", "173937.780000", "173938.780000", "173939.780000", "173940.780000", "173941.780000", "173942.780000", "173943.780000", "173944.780000", "173945.780000", "173946.780000", "173947.780000", "173948.780000", "173949.780000", "173950.780000", "173951.780000", "173952.780000", "173953.780000", "173954.780000", "173955.780000", "173956.780000", "173957.780000"],
      "ContentTime": ["173439.933000", "173439.936000", "173439.939000", "173439.950000", "173439.952000", "173439.955000", "173439.957000", "173439.960000", "173439.963000", "173439.965000", "173439.968000", "173439.971000", "173439.973000", "173439.976000", "173439.978000", "173439.981000", "173439.983000", "173439.986000", "173439.988000", "173439.991000", "173439.993000", "173439.996000", "173439.998000", "173440.002000", "173440.004000", "173440.006000", "173440.009000", "173440.011000", "173440.014000", "173440.016000", "173440.019000", "173440.021000", "173440.027000", "173440.029000", "173440.032000", "173440.034000", "173459.908000", "173459.911000", "173459.914000", "173459.916000", "173459.919000", "173459.921000", "173459.923000", "173459.926000", "173459.928000", "173459.931000", "173459.933000", "173459.936000", "173459.938000", "173459.940000", "173459.943000", "173459.945000", "173459.948000", "173459.950000", "173459.953000", "173459.964000", "173519.908000", "173519.921000", "173519.923000", "173519.926000", "173519.928000", "173519.931000", "173519.933000", "173519.936000", "173519.938000", "173519.941000", "173519.943000", "173519.946000", "173519.948000", "173519.951000", "173519.953000", "173519.956000", "173519.958000", "173519.960000", "173519.963000", "173519.965000", "173539.908000", "173539.911000", "173539.914000", "173539.916000", "173539.918000", "173539.921000", "173539.923000", "173539.926000", "173539.928000", "173539.931000", "173539.933000", "173539.936000", "173539.938000", "173539.940000", "173539.943000", "173539.945000", "173539.948000", "173539.951000", "173539.953000", "173539.955000", "173559.908000", "173559.911000", "173559.913000", "173559.916000", "173559.918000", "173559.921000", "173559.923000", "173559.926000", "173559.928000", "173559.931000", "173559.933000", "173559.936000", "173559.938000", "173559.941000", "173559.943000", "173559.946000", "173559.948000", "173559.951000", "173559.953000", "173559.956000", "173619.908000", "173619.911000", "173619.913000", "173619.916000", "173619.918000", "173619.921000", "173619.923000", "173619.932000", "173619.935000", "173619.937000", "173619.940000", "173619.942000", "173619.945000", "173619.947000", "173619.949000", "173619.952000", "173619.954000", "173619.957000", "173619.959000", "173619.962000", "173639.908000", "173639.911000", "173639.913000", "173639.916000", "173639.918000", "173639.921000", "173639.923000", "173639.926000", "173639.929000", "173639.931000", "173639.934000", "173639.936000", "173639.939000", "173639.941000", "173639.944000", "173639.946000", "173639.949000", "173639.951000", "173639.954000", "173639.956000", "173659.908000", "173659.911000", "173659.913000", "173659.916000", "173659.918000", "173659.921000", "173659.924000", "173659.926000", "173659.929000", "173659.931000", "173659.934000", "173659.936000", "173659.939000", "173659.941000", "173659.944000", "173659.979000", "173659.981000", "173659.984000", "173659.986000", "173659.989000", "173719.908000", "173719.911000", "173719.913000", "173719.916000", "173719.918000", "173719.921000", "173719.923000", "173719.926000", "173719.928000", "173719.936000", "173719.938000", "173719.941000", "173719.943000", "173719.946000", "173719.948000", "173719.951000", "173719.953000", "173719.956000", "173719.958000", "173719.961000", "173739.908000", "173739.911000", "173739.914000", "173739.917000", "173739.919000", "173739.922000", "173739.924000", "173739.927000", "173739.929000", "173739.932000", "173739.934000", "173739.937000", "173739.939000", "173739.942000", "173739.944000", "173739.947000", "173739.949000", "173739.952000", "173739.954000", "173739.957000", "173759.909000", "173759.911000", "173759.914000", "173759.916000", "173759.919000", "173759.921000", "173759.924000", "173759.926000", "173759.929000", "173759.931000", "173759.933000", "173759.936000", "173759.938000", "173759.941000", "173759.943000", "173759.946000", "173759.948000", "173759.951000", "173759.953000", "173759.956000", "173819.909000", "173819.912000", "173819.914000", "173819.917000", "173819.919000", "173819.922000", "173819.924000", "173819.927000", "173819.929000", "173819.932000", "173819.935000", "173819.937000", "173819.940000", "173819.942000", "173819.945000", "173819.947000", "173819.949000", "173819.952000", "173819.954000", "173819.957000", "173839.908000", "173839.911000", "173839.914000", "173839.916000", "173839.919000", "173839.921000", "173839.924000", "173839.926000", "173839.929000", "173839.931000", "173839.934000", "173839.936000", "173839.938000", "173839.941000", "173839.943000", "173839.946000", "173839.948000", "173839.951000", "173839.953000", "173839.956000", "173859.908000", "173859.911000", "173859.914000", "173859.916000", "173859.919000", "173859.921000", "173859.923000", "173859.926000", "173859.928000", "173859.931000", "173859.933000", "173859.936000", "173859.938000", "173859.941000", "173859.943000", "173859.945000", "173859.948000", "173859.950000", "173859.953000", "173859.955000", "173919.908000", "173919.911000", "173919.914000", "173919.916000", "173919.919000", "173919.921000", "173919.924000", "173919.927000", "173919.929000", "173919.932000", "173919.935000", "173919.937000", "173919.940000", "173919.943000", "173919.945000", "173919.948000", "173919.950000", "173919.953000", "173919.955000", "173919.958000", "173939.908000", "173939.911000", "173939.913000", "173939.916000", "173939.919000", "173939.921000", "173939.923000", "173939.926000", "173939.928000", "173939.931000", "173939.933000", "173939.936000", "173939.938000", "173939.941000", "173939.943000", "173939.946000", "173939.948000", "173939.951000", "173939.953000", "173939.956000", "173959.971000", "173959.974000", "173959.977000", "173959.979000", "173959.982000", "173959.984000", "173959.987000", "173959.989000", "173959.992000", "173959.994000", "173959.997000", "174000.000000", "174000.003000", "174000.005000", "174000.008000", "174000.010000", "174000.013000", "174000.015000", "174000.018000", "174000.021000"],
      "InstanceCreationTime": ["173439.933000", "173439.936000", "173439.939000", "173439.950000", "173439.952000", "173439.955000", "173439.957000", "173439.960000", "173439.963000", "173439.965000", "173439.968000", "173439.971000", "173439.973000", "173439.976000", "173439.978000", "173439.981000", "173439.983000", "173439.986000", "173439.988000", "173439.991000", "173439.993000", "173439.996000", "173439.998000", "173440.002000", "173440.004000", "173440.006000", "173440.009000", "173440.011000", "173440.014000", "173440.016000", "173440.019000", "173440.021000", "173440.027000", "173440.029000", "173440.032000", "173440.034000", "173459.908000", "173459.911000", "173459.914000", "173459.916000", "173459.919000", "173459.921000", "173459.923000", "173459.926000", "173459.928000", "173459.931000", "173459.933000", "173459.936000", "173459.938000", "173459.940000", "173459.943000", "173459.945000", "173459.948000", "173459.950000", "173459.953000", "173459.964000", "173519.908000", "173519.921000", "173519.923000", "173519.926000", "173519.928000", "173519.931000", "173519.933000", "173519.936000", "173519.938000", "173519.941000", "173519.943000", "173519.946000", "173519.948000", "173519.951000", "173519.953000", "173519.956000", "173519.958000", "173519.960000", "173519.963000", "173519.965000", "173539.908000", "173539.911000", "173539.914000", "173539.916000", "173539.918000", "173539.921000", "173539.923000", "173539.926000", "173539.928000", "173539.931000", "173539.933000", "173539.936000", "173539.938000", "173539.940000", "173539.943000", "173539.945000", "173539.948000", "173539.951000", "173539.953000", "173539.955000", "173559.908000", "173559.911000", "173559.913000", "173559.916000", "173559.918000", "173559.921000", "173559.923000", "173559.926000", "173559.928000", "173559.931000", "173559.933000", "173559.936000", "173559.938000", "173559.941000", "173559.943000", "173559.946000", "173559.948000", "173559.951000", "173559.953000", "173559.956000", "173619.908000", "173619.911000", "173619.913000", "173619.916000", "173619.918000", "173619.921000", "173619.923000", "173619.932000", "173619.935000", "173619.937000", "173619.940000", "173619.942000", "173619.945000", "173619.947000", "173619.949000", "173619.952000", "173619.954000", "173619.957000", "173619.959000", "173619.962000", "173639.908000", "173639.911000", "173639.913000", "173639.916000", "173639.918000", "173639.921000", "173639.923000", "173639.926000", "173639.929000", "173639.931000", "173639.934000", "173639.936000", "173639.939000", "173639.941000", "173639.944000", "173639.946000", "173639.949000", "173639.951000", "173639.954000", "173639.956000", "173659.908000", "173659.911000", "173659.913000", "173659.916000", "173659.918000", "173659.921000", "173659.924000", "173659.926000", "173659.929000", "173659.931000", "173659.934000", "173659.936000", "173659.939000", "173659.941000", "173659.944000", "173659.979000", "173659.981000", "173659.984000", "173659.986000", "173659.989000", "173719.908000", "173719.911000", "173719.913000", "173719.916000", "173719.918000", "173719.921000", "173719.923000", "173719.926000", "173719.928000", "173719.936000", "173719.938000", "173719.941000", "173719.943000", "173719.946000", "173719.948000", "173719.951000", "173719.953000", "173719.956000", "173719.958000", "173719.961000", "173739.908000", "173739.911000", "173739.914000", "173739.917000", "173739.919000", "173739.922000", "173739.924000", "173739.927000", "173739.929000", "173739.932000", "173739.934000", "173739.937000", "173739.939000", "173739.942000", "173739.944000", "173739.947000", "173739.949000", "173739.952000", "173739.954000", "173739.957000", "173759.909000", "173759.911000", "173759.914000", "173759.916000", "173759.919000", "173759.921000", "173759.924000", "173759.926000", "173759.929000", "173759.931000", "173759.933000", "173759.936000", "173759.938000", "173759.941000", "173759.943000", "173759.946000", "173759.948000", "173759.951000", "173759.953000", "173759.956000", "173819.909000", "173819.912000", "173819.914000", "173819.917000", "173819.919000", "173819.922000", "173819.924000", "173819.927000", "173819.929000", "173819.932000", "173819.935000", "173819.937000", "173819.940000", "173819.942000", "173819.945000", "173819.947000", "173819.949000", "173819.952000", "173819.954000", "173819.957000", "173839.908000", "173839.911000", "173839.914000", "173839.916000", "173839.919000", "173839.921000", "173839.924000", "173839.926000", "173839.929000", "173839.931000", "173839.934000", "173839.936000", "173839.938000", "173839.941000", "173839.943000", "173839.946000", "173839.948000", "173839.951000", "173839.953000", "173839.956000", "173859.908000", "173859.911000", "173859.914000", "173859.916000", "173859.919000", "173859.921000", "173859.923000", "173859.926000", "173859.928000", "173859.931000", "173859.933000", "173859.936000", "173859.938000", "173859.941000", "173859.943000", "173859.945000", "173859.948000", "173859.950000", "173859.953000", "173859.955000", "173919.908000", "173919.911000", "173919.914000", "173919.916000", "173919.919000", "173919.921000", "173919.924000", "173919.927000", "173919.929000", "173919.932000", "173919.935000", "173919.937000", "173919.940000", "173919.943000", "173919.945000", "173919.948000", "173919.950000", "173919.953000", "173919.955000", "173919.958000", "173939.908000", "173939.911000", "173939.913000", "173939.916000", "173939.919000", "173939.921000", "173939.923000", "173939.926000", "173939.928000", "173939.931000", "173939.933000", "173939.936000", "173939.938000", "173939.941000", "173939.943000", "173939.946000", "173939.948000", "173939.951000", "173939.953000", "173939.956000", "173959.971000", "173959.974000", "173959.977000", "173959.979000", "173959.982000", "173959.984000", "173959.987000", "173959.989000", "173959.992000", "173959.994000", "173959.997000", "174000.000000", "174000.003000", "174000.005000", "174000.008000", "174000.010000", "174000.013000", "174000.015000", "174000.018000", "174000.021000"],
      "InstanceNumber": [1, 2, 3, 4, 5, 6, 7, 8, 9, 10, 11, 12, 13, 14, 15, 16, 17, 18, 19, 20, 21, 22, 23, 24, 25, 26, 27, 28, 29, 30, 31, 32, 33, 34, 35, 36, 37, 38, 39, 40, 41, 42, 43, 44, 45, 46, 47, 48, 49, 50, 51, 52, 53, 54, 55, 56, 57, 58, 59, 60, 61, 62, 63, 64, 65, 66, 67, 68, 69, 70, 71, 72, 73, 74, 75, 76, 77, 78, 79, 80, 81, 82, 83, 84, 85, 86, 87, 88, 89, 90, 91, 92, 93, 94, 95, 96, 97, 98, 99, 100, 101, 102, 103, 104, 105, 106, 107, 108, 109, 110, 111, 112, 113, 114, 115, 116, 117, 118, 119, 120, 121, 122, 123, 124, 125, 126, 127, 128, 129, 130, 131, 132, 133, 134, 135, 136, 137, 138, 139, 140, 141, 142, 143, 144, 145, 146, 147, 148, 149, 150, 151, 152, 153, 154, 155, 156, 157, 158, 159, 160, 161, 162, 163, 164, 165, 166, 167, 168, 169, 170, 171, 172, 173, 174, 175, 176, 177, 178, 179, 180, 181, 182, 183, 184, 185, 186, 187, 188, 189, 190, 191, 192, 193, 194, 195, 196, 197, 198, 199, 200, 201, 202, 203, 204, 205, 206, 207, 208, 209, 210, 211, 212, 213, 214, 215, 216, 217, 218, 219, 220, 221, 222, 223, 224, 225, 226, 227, 228, 229, 230, 231, 232, 233, 234, 235, 236, 237, 238, 239, 240, 241, 242, 243, 244, 245, 246, 247, 248, 249, 250, 251, 252, 253, 254, 255, 256, 257, 258, 259, 260, 261, 262, 263, 264, 265, 266, 267, 268, 269, 270, 271, 272, 273, 274, 275, 276, 277, 278, 279, 280, 281, 282, 283, 284, 285, 286, 287, 288, 289, 290, 291, 292, 293, 294, 295, 296, 297, 298, 299, 300, 301, 302, 303, 304, 305, 306, 307, 308, 309, 310, 311, 312, 313, 314, 315, 316, 317, 318, 319, 320, 321, 322, 323, 324, 325, 326, 327, 328, 329, 330, 331, 332, 333, 334, 335, 336, 337, 338, 339, 340, 341, 342, 343, 344, 345, 346, 347, 348, 349, 350, 351, 352, 353, 354, 355, 356],
      "LargestImagePixelValue": [10562, 10309, 10205, 10199, 10296, 10114, 10352, 10203, 10243, 10300, 10070, 10126, 10118, 10069, 10102, 10122, 10213, 10279, 10286, 10326, 10225, 10371, 10195, 10072, 10014, 10112, 10087, 10230, 10073, 10114, 10269, 10247, 10175, 10018, 10306, 10244, 10301, 10234, 10153, 10284, 10154, 10181, 10090, 10222, 10228, 10192, 10164, 10181, 10313, 10157, 10042, 10136, 10102, 10092, 10064, 10057, 10098, 10190, 9944, 10031, 10103, 9992, 10089, 9951, 9934, 10233, 10628, 10554, 10237, 9977, 10259, 10328, 10068, 10136, 10466, 10314, 10258, 10216, 10312, 10395, 10289, 10225, 9996, 10325, 10338, 10105, 10325, 10457, 10312, 10597, 10482, 10160, 10268, 10281, 10371, 10431, 10445, 10248, 10319, 10407, 10430, 10357, 10425, 10328, 10324, 10432, 10452, 10379, 10508, 10598, 10351, 10296, 10455, 10473, 10238, 10250, 10337, 10330, 10406, 10352, 10295, 10431, 10326, 10221, 10486, 10476, 10341, 10497, 10517, 10589, 10549, 10455, 10430, 10258, 10598, 10517, 10257, 10300, 10626, 10405, 10288, 10482, 10530, 10255, 10384, 10425, 10157, 9788, 10342, 10271, 10085, 10109, 10328, 10445, 10070, 10300, 10281, 10234, 10092, 10096, 10440, 10257, 10202, 10130, 10056, 10213, 10158, 10077, 10249, 10281, 10080, 10037, 10194, 10097, 9798, 9804, 10171, 10304, 9853, 9933, 10076, 10310, 10013, 10077, 10095, 10168, 10079, 10001, 9895, 9825, 10312, 10353, 10184, 10150, 10258, 10248, 10058, 10140, 10274, 9884, 10128, 10257, 9967, 9960, 10078, 10040, 9864, 9967, 9906, 9824, 9872, 9997, 9838, 9966, 9916, 9943, 9992, 9972, 9772, 9915, 9971, 9914, 9795, 9840, 10003, 9917, 10051, 10030, 9711, 9979, 10144, 9884, 9930, 10111, 10069, 9851, 9924, 9860, 9723, 9605, 9720, 9866, 9795, 9715, 9821, 9668, 9739, 9832, 9640, 9797, 9801, 9798, 9833, 9738, 9773, 9802, 9648, 9606, 9741, 9800, 9747, 9609, 9698, 9660, 9761, 9797, 9871, 9666, 9672, 9737, 9818, 9824, 9665, 9512, 9686, 9879, 9657, 9704, 9597, 9687, 9634, 9795, 9553, 9755, 9828, 9811, 9674, 9626, 9751, 9817, 9814, 9686, 9609, 9657, 9766, 9651, 9702, 9735, 9765, 9776, 9757, 9671, 9592, 9731, 10063, 9864, 9827, 9670, 9945, 10018, 9834, 9843, 9741, 9839, 9923, 9936, 9720, 9753, 9956, 9879, 9772, 9786, 9845, 9817, 9729, 9643, 9852, 9970, 9878, 9866, 9760, 9620, 9857, 9807, 9827, 9706, 9874, 9701, 9766, 9812, 9654, 9894, 9911, 9815, 9747, 9820, 9697, 9773, 9776, 9929, 9737, 9790, 9813, 9799, 9824, 9781],
