{
  "AcquisitionMatrixPE": 106,
  "AcquisitionNumber": 1,
  "AcquisitionTime": "17:02:1.160000",
  "BandwidthPerPixelPhaseEncode": 13.477,
  "BaseResolution": 106,
  "BodyPartExamined": "BRAIN",
  "CoilCombinationMethod": "Sum of Squares",
  "ConsistencyInfo": "N4_VE11C_LATEST_20160120",
  "ConversionSoftware": "dcm2niix",
  "ConversionSoftwareVersion": "v1.0.20220720",
  "DerivedVendorReportedEchoSpacing": 0.000700005,
  "DeviceSerialNumber": "166108",
  "DwellTime": 2.6e-06,
  "EchoTime": 0.03,
  "EchoTrainLength": 80,
  "EffectiveEchoSpacing": 0.000700005,
  "FlipAngle": 62,
  "HeudiconvVersion": "1.3.0",
  "ImageComments": "Unaliased MB4/PE3/LB",
  "ImageOrientationPatientDICOM": [1, 0, 0, 0, 0.99961, -0.0279216],
  "ImageOrientationText": "Tra>Cor(-1.6)",
  "ImageType": [
    "ORIGINAL",
    "PRIMARY",
    "M",
    "MB",
    "ND",
    "MOSAIC"
],
  "ImagingFrequency": 123.244,
  "InPlanePhaseEncodingDirectionDICOM": "COL",
  "InstitutionAddress": "Bedford Way 26,London,London,GB,WC1H 0AP",
  "InstitutionName": "University College",
  "InstitutionalDepartmentName": "Department",
  "MRAcquisitionType": "2D",
  "MagneticFieldStrength": 3,
  "Manufacturer": "Siemens",
  "ManufacturersModelName": "Prisma",
  "MatrixCoilMode": "SENSE",
  "Modality": "MR",
  "MultibandAccelerationFactor": 4,
  "NonlinearGradientCorrection": false,
  "PartialFourier": 0.75,
  "PatientPosition": "HFS",
  "PercentPhaseFOV": 100,
  "PercentSampling": 100,
  "PhaseEncodingDirection": "j-",
  "PhaseEncodingSteps": 80,
  "PhaseResolution": 1,
  "PixelBandwidth": 1815,
  "ProcedureStepDescription": "Egor^MovieProject2",
  "ProtocolName": "func-bold_task-motor_run-02",
  "PulseSequenceDetails": "%CustomerSeq%\\cmrr_mbep2d_bold",
  "ReceiveCoilActiveElements": "HEA;HEP",
  "ReceiveCoilName": "Head_32",
  "ReconMatrixPE": 106,
  "RepetitionTime": 1,
  "SAR": 0.0385929,
  "ScanOptions": "PFP\\FS\\EXT",
  "ScanningSequence": "EP",
  "SequenceName": "epfid2d1_106",
  "SequenceVariant": "SK\\SS",
  "SeriesDescription": "func-bold_task-motor_run-02",
  "SeriesNumber": 4,
  "ShimSetting": [-1489, 603, 7281, 60, -168, 168, 365, -45],
  "SliceThickness": 2,
  "SliceTiming": [0, 0.5325, 0.0875, 0.6225, 0.1775, 0.7125, 0.265, 0.8, 0.355, 0.89, 0.445, 0, 0.5325, 0.0875, 0.6225, 0.1775, 0.7125, 0.265, 0.8, 0.355, 0.89, 0.445, 0, 0.5325, 0.0875, 0.6225, 0.1775, 0.7125, 0.265, 0.8, 0.355, 0.89, 0.445, 0, 0.5325, 0.0875, 0.6225, 0.1775, 0.7125, 0.265, 0.8, 0.355, 0.89, 0.445],
  "SoftwareVersions": "syngo MR E11",
  "SpacingBetweenSlices": 2,
  "StationName": "AWP166108",
  "TaskName": "somatotopy",
  "TotalReadoutTime": 0.0735005,
  "TxRefAmp": 218.587,
  "WipMemBlock": "e9057958-76bf-492a-9ba6-b98e88a15f4e||Sequence: R016 ve11c/master r/e634e98; Dec 19 2017 11:00:25 by eja",
  "dcmmeta_affine": [
    [-2.0, 0.0, 0.0, 106.0],
    [0.0, 1.9992202520370483, -0.05584327504038811, -94.80240631103516],
    [0.0, 0.05584327504038811, 1.9992201328277588, -2.9961025714874268],
    [0.0, 0.0, 0.0, 1.0]
],
  "dcmmeta_reorient_transform": [
    [0.0, -1.0, 0.0, 105.0],
    [1.0, 0.0, 0.0, 0.0],
    [0.0, 0.0, 1.0, 0.0],
    [0.0, 0.0, 0.0, 1.0]
],
  "dcmmeta_shape": [106, 106, 44, 469],
  "dcmmeta_slice_dim": 2,
  "dcmmeta_version": 0.6,
  "global": {
    "const": {
      "AcquisitionMatrix": [106, 0, 0, 106],
      "AngioFlag": "N",
      "BitsAllocated": 16,
      "BitsStored": 16,
      "BodyPartExamined": "BRAIN",
      "CardiacNumberOfImages": 1,
      "Columns": 742,
      "EchoNumbers": 1,
      "EchoTime": 30.0,
      "EchoTrainLength": 80,
      "FlipAngle": 62.0,
      "HighBit": 15,
      "ImageOrientationPatient": [1.0, 0.0, 0.0, 0.0, 0.99961011506467, -0.0279216378532],
      "ImagePositionPatient": [-742.0, -750.86775264971, 20.625603159283],
      "ImageType": [
        "ORIGINAL",
        "PRIMARY",
        "M",
        "MB",
        "ND",
        "MOSAIC"
],
      "ImagedNucleus": "1H",
      "ImagingFrequency": 123.243648,
      "InPlanePhaseEncodingDirection": "COL",
      "MRAcquisitionType": "2D",
      "MagneticFieldStrength": 3.0,
      "Manufacturer": "SIEMENS",
      "ManufacturerModelName": "Prisma",
      "Modality": "MR",
      "NominalInterval": 0,
      "NumberOfAverages": 1.0,
      "NumberOfPhaseEncodingSteps": 80,
      "PercentPhaseFieldOfView": 100.0,
      "PercentSampling": 100.0,
      "PerformedProcedureStepStartTime": "163641.067000",
      "PhotometricInterpretation": "MONOCHROME2",
      "PixelBandwidth": 1815.0,
      "PixelRepresentation": 0,
      "PixelSpacing": [2.0, 2.0],
      "ProtocolName": "func-bold_task-motor_run-02",
      "RepetitionTime": 1000.0,
      "Rows": 742,
      "SAR": 0.03859289041007,
      "SamplesPerPixel": 1,
      "ScanOptions": [
        "PFP",
        "FS",
        "EXT"
],
      "ScanningSequence": "EP",
      "SequenceName": "epfid2d1_106",
      "SequenceVariant": [
        "SK",
        "SS"
],
      "SeriesDescription": "func-bold_task-motor_run-02",
      "SeriesNumber": 4,
      "SeriesTime": "170235.180000",
      "SliceLocation": -0.3478959178376,
      "SliceThickness": 2.0,
      "SmallestImagePixelValue": 0,
      "SoftwareVersions": "syngo MR E11",
      "SpacingBetweenSlices": 1.9999999167273,
      "SpecificCharacterSet": "ISO_IR 100",
      "StudyID": "1",
      "StudyTime": "163640.992000",
      "TransmitCoilName": "Body",
      "VariableFlipAngleFlag": "N",
      "WindowCenterWidthExplanation": "Algo1",
      "dBdt": 0.0},
    "slices": {}
  },
  "time": {
    "samples": {
      "AcquisitionNumber": [1, 2, 3, 4, 5, 6, 7, 8, 9, 10, 11, 12, 13, 14, 15, 16, 17, 18, 19, 20, 21, 22, 23, 24, 25, 26, 27, 28, 29, 30, 31, 32, 33, 34, 35, 36, 37, 38, 39, 40, 41, 42, 43, 44, 45, 46, 47, 48, 49, 50, 51, 52, 53, 54, 55, 56, 57, 58, 59, 60, 61, 62, 63, 64, 65, 66, 67, 68, 69, 70, 71, 72, 73, 74, 75, 76, 77, 78, 79, 80, 81, 82, 83, 84, 85, 86, 87, 88, 89, 90, 91, 92, 93, 94, 95, 96, 97, 98, 99, 100, 101, 102, 103, 104, 105, 106, 107, 108, 109, 110, 111, 112, 113, 114, 115, 116, 117, 118, 119, 120, 121, 122, 123, 124, 125, 126, 127, 128, 129, 130, 131, 132, 133, 134, 135, 136, 137, 138, 139, 140, 141, 142, 143, 144, 145, 146, 147, 148, 149, 150, 151, 152, 153, 154, 155, 156, 157, 158, 159, 160, 161, 162, 163, 164, 165, 166, 167, 168, 169, 170, 171, 172, 173, 174, 175, 176, 177, 178, 179, 180, 181, 182, 183, 184, 185, 186, 187, 188, 189, 190, 191, 192, 193, 194, 195, 196, 197, 198, 199, 200, 201, 202, 203, 204, 205, 206, 207, 208, 209, 210, 211, 212, 213, 214, 215, 216, 217, 218, 219, 220, 221, 222, 223, 224, 225, 226, 227, 228, 229, 230, 231, 232, 233, 234, 235, 236, 237, 238, 239, 240, 241, 242, 243, 244, 245, 246, 247, 248, 249, 250, 251, 252, 253, 254, 255, 256, 257, 258, 259, 260, 261, 262, 263, 264, 265, 266, 267, 268, 269, 270, 271, 272, 273, 274, 275, 276, 277, 278, 279, 280, 281, 282, 283, 284, 285, 286, 287, 288, 289, 290, 291, 292, 293, 294, 295, 296, 297, 298, 299, 300, 301, 302, 303, 304, 305, 306, 307, 308, 309, 310, 311, 312, 313, 314, 315, 316, 317, 318, 319, 320, 321, 322, 323, 324, 325, 326, 327, 328, 329, 330, 331, 332, 333, 334, 335, 336, 337, 338, 339, 340, 341, 342, 343, 344, 345, 346, 347, 348, 349, 350, 351, 352, 353, 354, 355, 356, 357, 358, 359, 360, 361, 362, 363, 364, 365, 366, 367, 368, 369, 370, 371, 372, 373, 374, 375, 376, 377, 378, 379, 380, 381, 382, 383, 384, 385, 386, 387, 388, 389, 390, 391, 392, 393, 394, 395, 396, 397, 398, 399, 400, 401, 402, 403, 404, 405, 406, 407, 408, 409, 410, 411, 412, 413, 414, 415, 416, 417, 418, 419, 420, 421, 422, 423, 424, 425, 426, 427, 428, 429, 430, 431, 432, 433, 434, 435, 436, 437, 438, 439, 440, 441, 442, 443, 444, 445, 446, 447, 448, 449, 450, 451, 452, 453, 454, 455, 456, 457, 458, 459, 460, 461, 462, 463, 464, 465, 466, 467, 468, 469],
      "AcquisitionTime": ["170201.160000", "170202.160000", "170203.160000", "170204.160000", "170205.160000", "170206.160000", "170207.160000", "170208.160000", "170209.160000", "170210.160000", "170211.160000", "170212.160000", "170213.160000", "170214.160000", "170215.160000", "170216.160000", "170217.160000", "170218.160000", "170219.160000", "170220.160000", "170221.160000", "170222.160000", "170223.160000", "170224.160000", "170225.160000", "170226.160000", "170227.160000", "170228.160000", "170229.160000", "170230.160000", "170231.160000", "170232.160000", "170233.160000", "170234.160000", "170235.160000", "170236.160000", "170237.160000", "170238.160000", "170239.160000", "170240.160000", "170241.160000", "170242.160000", "170243.160000", "170244.160000", "170245.160000", "170246.160000", "170247.160000", "170248.160000", "170249.160000", "170250.160000", "170251.160000", "170252.160000", "170253.160000", "170254.160000", "170255.160000", "170256.160000", "170257.160000", "170258.160000", "170259.160000", "170300.160000", "170301.160000", "170302.160000", "170303.160000", "170304.160000", "170305.160000", "170306.160000", "170307.160000", "170308.160000", "170309.160000", "170310.160000", "170311.160000", "170312.160000", "170313.160000", "170314.160000", "170315.160000", "170316.160000", "170317.160000", "170318.160000", "170319.160000", "170320.160000", "170321.160000", "170322.160000", "170323.160000", "170324.160000", "170325.160000", "170326.160000", "170327.160000", "170328.160000", "170329.160000", "170330.160000", "170331.160000", "170332.160000", "170333.160000", "170334.160000", "170335.160000", "170336.160000", "170337.160000", "170338.160000", "170339.160000", "170340.160000", "170341.160000", "170342.160000", "170343.160000", "170344.160000", "170345.160000", "170346.160000", "170347.160000", "170348.160000", "170349.160000", "170350.160000", "170351.160000", "170352.160000", "170353.160000", "170354.160000", "170355.160000", "170356.160000", "170357.160000", "170358.160000", "170359.160000", "170400.160000", "170401.160000", "170402.160000", "170403.160000", "170404.160000", "170405.160000", "170406.160000", "170407.160000", "170408.160000", "170409.160000", "170410.160000", "170411.160000", "170412.160000", "170413.160000", "170414.160000", "170415.160000", "170416.160000", "170417.160000", "170418.160000", "170419.160000", "170420.160000", "170421.160000", "170422.160000", "170423.160000", "170424.160000", "170425.160000", "170426.160000", "170427.160000", "170428.160000", "170429.160000", "170430.160000", "170431.160000", "170432.160000", "170433.160000", "170434.160000", "170435.160000", "170436.160000", "170437.160000", "170438.160000", "170439.160000", "170440.160000", "170441.160000", "170442.160000", "170443.160000", "170444.160000", "170445.160000", "170446.160000", "170447.160000", "170448.160000", "170449.160000", "170450.160000", "170451.160000", "170452.160000", "170453.160000", "170454.160000", "170455.160000", "170456.160000", "170457.160000", "170458.160000", "170459.160000", "170500.160000", "170501.160000", "170502.160000", "170503.160000", "170504.160000", "170505.160000", "170506.160000", "170507.160000", "170508.160000", "170509.160000", "170510.160000", "170511.160000", "170512.160000", "170513.160000", "170514.160000", "170515.160000", "170516.160000", "170517.160000", "170518.160000", "170519.160000", "170520.160000", "170521.160000", "170522.160000", "170523.160000", "170524.160000", "170525.160000", "170526.160000", "170527.160000", "170528.160000", "170529.160000", "170530.160000", "170531.160000", "170532.160000", "170533.160000", "170534.160000", "170535.160000", "170536.160000", "170537.160000", "170538.160000", "170539.160000", "170540.160000", "170541.160000", "170542.160000", "170543.160000", "170544.160000", "170545.160000", "170546.160000", "170547.160000", "170548.160000", "170549.160000", "170550.160000", "170551.160000", "170552.160000", "170553.160000", "170554.160000", "170555.160000", "170556.160000", "170557.160000", "170558.160000", "170559.160000", "170600.160000", "170601.160000", "170602.160000", "170603.160000", "170604.160000", "170605.160000", "170606.160000", "170607.160000", "170608.160000", "170609.160000", "170610.160000", "170611.160000", "170612.160000", "170613.160000", "170614.160000", "170615.160000", "170616.160000", "170617.160000", "170618.160000", "170619.160000", "170620.160000", "170621.160000", "170622.160000", "170623.160000", "170624.160000", "170625.160000", "170626.160000", "170627.160000", "170628.160000", "170629.160000", "170630.160000", "170631.160000", "170632.160000", "170633.160000", "170634.160000", "170635.160000", "170636.160000", "170637.160000", "170638.160000", "170639.160000", "170640.160000", "170641.160000", "170642.160000", "170643.160000", "170644.160000", "170645.160000", "170646.160000", "170647.160000", "170648.160000", "170649.160000", "170650.160000", "170651.160000", "170652.160000", "170653.160000", "170654.160000", "170655.160000", "170656.160000", "170657.160000", "170658.160000", "170659.160000", "170700.160000", "170701.160000", "170702.160000", "170703.160000", "170704.160000", "170705.160000", "170706.160000", "170707.160000", "170708.160000", "170709.160000", "170710.160000", "170711.160000", "170712.160000", "170713.160000", "170714.160000", "170715.160000", "170716.160000", "170717.160000", "170718.160000", "170719.160000", "170720.160000", "170721.160000", "170722.160000", "170723.160000", "170724.160000", "170725.160000", "170726.160000", "170727.160000", "170728.160000", "170729.160000", "170730.160000", "170731.160000", "170732.160000", "170733.160000", "170734.160000", "170735.160000", "170736.160000", "170737.160000", "170738.160000", "170739.160000", "170740.160000", "170741.160000", "170742.160000", "170743.160000", "170744.160000", "170745.160000", "170746.160000", "170747.160000", "170748.160000", "170749.160000", "170750.160000", "170751.160000", "170752.160000", "170753.160000", "170754.160000", "170755.160000", "170756.160000", "170757.160000", "170758.160000", "170759.160000", "170800.160000", "170801.160000", "170802.160000", "170803.160000", "170804.160000", "170805.160000", "170806.160000", "170807.160000", "170808.160000", "170809.160000", "170810.160000", "170811.160000", "170812.160000", "170813.160000", "170814.160000", "170815.160000", "170816.160000", "170817.160000", "170818.160000", "170819.160000", "170820.160000", "170821.160000", "170822.160000", "170823.160000", "170824.160000", "170825.160000", "170826.160000", "170827.160000", "170828.160000", "170829.160000", "170830.160000", "170831.160000", "170832.160000", "170833.160000", "170834.160000", "170835.160000", "170836.160000", "170837.160000", "170838.160000", "170839.160000", "170840.160000", "170841.160000", "170842.160000", "170843.160000", "170844.160000", "170845.160000", "170846.160000", "170847.160000", "170848.160000", "170849.160000", "170850.160000", "170851.160000", "170852.160000", "170853.160000", "170854.160000", "170855.160000", "170856.160000", "170857.160000", "170858.160000", "170859.160000", "170900.160000", "170901.160000", "170902.160000", "170903.160000", "170904.160000", "170905.160000", "170906.160000", "170907.160000", "170908.160000", "170909.160000", "170910.160000", "170911.160000", "170912.160000", "170913.160000", "170914.160000", "170915.160000", "170916.160000", "170917.160000", "170918.160000", "170919.160000", "170920.160000", "170921.160000", "170922.160000", "170923.160000", "170924.160000", "170925.160000", "170926.160000", "170927.160000", "170928.160000", "170929.160000", "170930.160000", "170931.160000", "170932.160000", "170933.160000", "170934.160000", "170935.160000", "170936.160000", "170937.160000", "170938.160000", "170939.160000", "170940.160000", "170941.160000", "170942.160000", "170943.160000", "170944.160000", "170945.160000", "170946.160000", "170947.160000", "170948.160000", "170949.160000"],
      "ContentTime": ["170235.183000", "170235.186000", "170235.195000", "170235.197000", "170235.199000", "170235.202000", "170235.204000", "170235.207000", "170235.209000", "170235.212000", "170235.214000", "170235.217000", "170235.219000", "170235.221000", "170235.224000", "170235.226000", "170235.238000", "170235.241000", "170235.243000", "170235.246000", "170235.248000", "170235.251000", "170235.253000", "170235.255000", "170235.258000", "170235.260000", "170235.263000", "170235.265000", "170235.268000", "170235.270000", "170235.273000", "170235.275000", "170235.278000", "170255.151000", "170255.154000", "170255.157000", "170255.160000", "170255.162000", "170255.165000", "170255.167000", "170255.170000", "170255.173000", "170255.175000", "170255.178000", "170255.180000", "170255.183000", "170255.186000", "170255.188000", "170255.191000", "170255.193000", "170255.196000", "170255.199000", "170255.201000", "170315.151000", "170315.154000", "170315.156000", "170315.159000", "170315.161000", "170315.164000", "170315.166000", "170315.168000", "170315.171000", "170315.173000", "170315.176000", "170315.178000", "170315.180000", "170315.189000", "170315.192000", "170315.194000", "170315.197000", "170315.199000", "170315.202000", "170315.204000", "170335.150000", "170335.153000", "170335.156000", "170335.158000", "170335.161000", "170335.164000", "170335.166000", "170335.169000", "170335.172000", "170335.174000", "170335.176000", "170335.179000", "170335.181000", "170335.184000", "170335.186000", "170335.189000", "170335.191000", "170335.194000", "170335.200000", "170335.203000", "170355.150000", "170355.153000", "170355.155000", "170355.158000", "170355.161000", "170355.163000", "170355.165000", "170355.168000", "170355.170000", "170355.173000", "170355.175000", "170355.177000", "170355.180000", "170355.182000", "170355.185000", "170355.187000", "170355.189000", "170355.192000", "170355.194000", "170355.197000", "170415.151000", "170415.154000", "170415.156000", "170415.159000", "170415.161000", "170415.164000", "170415.166000", "170415.169000", "170415.171000", "170415.174000", "170415.176000", "170415.178000", "170415.181000", "170415.183000", "170415.186000", "170415.188000", "170415.190000", "170415.193000", "170415.195000", "170415.198000", "170435.151000", "170435.154000", "170435.157000", "170435.159000", "170435.162000", "170435.165000", "170435.167000", "170435.170000", "170435.172000", "170435.175000", "170435.177000", "170435.179000", "170435.182000", "170435.184000", "170435.187000", "170435.190000", "170435.192000", "170435.194000", "170435.197000", "170435.199000", "170455.151000", "170455.154000", "170455.156000", "170455.159000", "170455.161000", "170455.164000", "170455.166000", "170455.168000", "170455.171000", "170455.173000", "170455.176000", "170455.178000", "170455.181000", "170455.183000", "170455.186000", "170455.188000", "170455.190000", "170455.193000", "170455.195000", "170455.198000", "170515.151000", "170515.154000", "170515.157000", "170515.160000", "170515.162000", "170515.165000", "170515.168000", "170515.170000", "170515.173000", "170515.175000", "170515.177000", "170515.180000", "170515.182000", "170515.185000", "170515.188000", "170515.190000", "170515.193000", "170515.195000", "170515.198000", "170515.200000", "170535.152000", "170535.154000", "170535.157000", "170535.159000", "170535.161000", "170535.164000", "170535.166000", "170535.169000", "170535.171000", "170535.173000", "170535.176000", "170535.178000", "170535.181000", "170535.183000", "170535.186000", "170535.188000", "170535.191000", "170535.193000", "170535.195000", "170535.211000", "170555.150000", "170555.153000", "170555.156000", "170555.158000", "170555.160000", "170555.163000", "170555.165000", "170555.168000", "170555.170000", "170555.173000", "170555.175000", "170555.177000", "170555.180000", "170555.182000", "170555.185000", "170555.187000", "170555.190000", "170555.192000", "170555.195000", "170555.198000", "170615.150000", "170615.153000", "170615.156000", "170615.159000", "170615.161000", "170615.164000", "170615.167000", "170615.169000", "170615.172000", "170615.175000", "170615.177000", "170615.179000", "170615.182000", "170615.185000", "170615.187000", "170615.190000", "170615.192000", "170615.195000", "170615.197000", "170615.200000", "170635.151000", "170635.154000", "170635.156000", "170635.159000", "170635.161000", "170635.164000", "170635.166000", "170635.169000", "170635.171000", "170635.174000", "170635.176000", "170635.178000", "170635.181000", "170635.183000", "170635.186000", "170635.188000", "170635.191000", "170635.193000", "170635.195000", "170635.198000", "170655.151000", "170655.154000", "170655.157000", "170655.160000", "170655.162000", "170655.165000", "170655.167000", "170655.170000", "170655.173000", "170655.175000", "170655.178000", "170655.181000", "170655.183000", "170655.186000", "170655.188000", "170655.191000", "170655.194000", "170655.196000", "170655.199000", "170655.201000", "170715.152000", "170715.154000", "170715.157000", "170715.159000", "170715.162000", "170715.164000", "170715.167000", "170715.169000", "170715.171000", "170715.174000", "170715.176000", "170715.179000", "170715.181000", "170715.183000", "170715.186000", "170715.188000", "170715.191000", "170715.193000", "170715.196000", "170715.199000", "170735.151000", "170735.154000", "170735.156000", "170735.159000", "170735.161000", "170735.164000", "170735.167000", "170735.169000", "170735.172000", "170735.174000", "170735.177000", "170735.179000", "170735.182000", "170735.185000", "170735.187000", "170735.190000", "170735.192000", "170735.195000", "170735.197000", "170735.200000", "170755.151000", "170755.154000", "170755.157000", "170755.160000", "170755.162000", "170755.165000", "170755.168000", "170755.170000", "170755.173000", "170755.176000", "170755.178000", "170755.181000", "170755.184000", "170755.186000", "170755.189000", "170755.192000", "170755.194000", "170755.197000", "170755.199000", "170755.202000", "170815.150000", "170815.153000", "170815.155000", "170815.158000", "170815.160000", "170815.163000", "170815.165000", "170815.168000", "170815.170000", "170815.173000", "170815.175000", "170815.178000", "170815.180000", "170815.183000", "170815.185000", "170815.187000", "170815.190000", "170815.192000", "170815.195000", "170815.197000", "170835.150000", "170835.153000", "170835.156000", "170835.159000", "170835.161000", "170835.164000", "170835.166000", "170835.169000", "170835.171000", "170835.174000", "170835.176000", "170835.179000", "170835.181000", "170835.184000", "170835.186000", "170835.189000", "170835.191000", "170835.193000", "170835.196000", "170835.198000", "170855.151000", "170855.154000", "170855.157000", "170855.159000", "170855.162000", "170855.164000", "170855.167000", "170855.169000", "170855.171000", "170855.174000", "170855.176000", "170855.179000", "170855.181000", "170855.184000", "170855.186000", "170855.189000", "170855.191000", "170855.194000", "170855.196000", "170855.199000", "170915.151000", "170915.154000", "170915.157000", "170915.160000", "170915.162000", "170915.165000", "170915.167000", "170915.170000", "170915.173000", "170915.175000", "170915.178000", "170915.180000", "170915.183000", "170915.185000", "170915.188000", "170915.191000", "170915.193000", "170915.196000", "170915.198000", "170915.201000", "170935.151000", "170935.154000", "170935.156000", "170935.159000", "170935.161000", "170935.164000", "170935.166000", "170935.169000", "170935.171000", "170935.174000", "170935.187000", "170935.189000", "170935.192000", "170935.194000", "170935.197000", "170935.199000", "170935.202000", "170935.204000", "170935.206000", "170935.209000", "170950.984000", "170950.986000", "170950.989000", "170950.992000", "170950.994000", "170950.997000", "170951.001000", "170951.004000", "170951.006000", "170951.009000", "170951.012000", "170951.022000", "170951.025000", "170951.028000", "170951.030000", "170951.033000"],
