{
  "AcquisitionMatrixPE": 106,
  "AcquisitionNumber": 1,
  "AcquisitionTime": "17:41:37.380000",
  "BandwidthPerPixelPhaseEncode": 16.846,
  "BaseResolution": 106,
  "BodyPartExamined": "BRAIN",
  "CoilCombinationMethod": "Sum of Squares",
  "ConsistencyInfo": "N4_VE11C_LATEST_20160120",
  "ConversionSoftware": "dcm2niix",
  "ConversionSoftwareVersion": "v1.0.20220720",
  "DerivedVendorReportedEchoSpacing": 0.000560012,
  "DeviceSerialNumber": "166108",
  "DwellTime": 1.8e-06,
  "EchoTime": 0.0352,
  "EchoTrainLength": 106,
  "EffectiveEchoSpacing": 0.000560012,
  "FlipAngle": 60,
  "HeudiconvVersion": "1.3.0",
  "ImageComments": "Unaliased MB4/PE3/LB",
  "ImageOrientationPatientDICOM": [1, 0, 0, 0, 0.960779, -0.277315],
  "ImageOrientationText": "Tra>Cor(-16.1)",
  "ImageType": [
    "ORIGINAL",
    "PRIMARY",
    "M",
    "MB",
    "ND",
    "MOSAIC"
],
  "ImagingFrequency": 123.244,
  "InPlanePhaseEncodingDirectionDICOM": "COL",
  "InstitutionAddress": "Bedford Way 26,London,London,GB,WC1H 0AP",
  "InstitutionName": "University College",
  "InstitutionalDepartmentName": "Department",
  "MRAcquisitionType": "2D",
  "MagneticFieldStrength": 3,
  "Manufacturer": "Siemens",
  "ManufacturersModelName": "Prisma",
  "MatrixCoilMode": "SENSE",
  "Modality": "MR",
  "MultibandAccelerationFactor": 4,
  "NonlinearGradientCorrection": false,
  "PartialFourier": 1,
  "PatientPosition": "HFS",
  "PercentPhaseFOV": 100,
  "PercentSampling": 100,
  "PhaseEncodingDirection": "j-",
  "PhaseEncodingSteps": 106,
  "PhaseResolution": 1,
  "PixelBandwidth": 2620,
  "ProcedureStepDescription": "Egor^MovieProject2",
  "ProtocolName": "func-bold_task-pRF_run-03",
  "PulseSequenceDetails": "%CustomerSeq%\\cmrr_mbep2d_bold",
  "ReceiveCoilActiveElements": "HEA;HEP",
  "ReceiveCoilName": "Head_32",
  "ReconMatrixPE": 106,
  "RepetitionTime": 1,
  "SAR": 0.0691299,
  "ScanOptions": "FS\\EXT",
  "ScanningSequence": "EP",
  "SequenceName": "epfid2d1_106",
  "SequenceVariant": "SK\\SS",
  "SeriesDescription": "func-bold_task-pRF_run-03",
  "SeriesNumber": 14,
  "ShimSetting": [-1502, 604, 7352, 274, -182, 189, 382, -37],
  "SliceThickness": 2,
  "SliceTiming": [0, 0.4075, 0.815, 0.245, 0.6525, 0.0825, 0.49, 0.8975, 0.3275, 0.735, 0.1625, 0.57, 0, 0.4075, 0.815, 0.245, 0.6525, 0.0825, 0.49, 0.8975, 0.3275, 0.735, 0.1625, 0.57, 0, 0.4075, 0.815, 0.245, 0.6525, 0.0825, 0.49, 0.8975, 0.3275, 0.735, 0.1625, 0.57, 0, 0.4075, 0.815, 0.245, 0.6525, 0.0825, 0.49, 0.8975, 0.3275, 0.735, 0.1625, 0.57],
  "SoftwareVersions": "syngo MR E11",
  "SpacingBetweenSlices": 2,
  "StationName": "AWP166108",
  "TaskName": "retinotopy",
  "TotalReadoutTime": 0.0588013,
  "TxRefAmp": 218.587,
  "WipMemBlock": "4ef63ade-51a2-4bed-b879-de1d3bc14d38||Sequence: R016 ve11c/master r/e634e98; Dec 19 2017 11:00:25 by eja",
  "dcmmeta_affine": [
    [-2.0, 0.0, 0.0, 106.0],
    [0.0, 1.9215582609176636, -0.5546293258666992, -77.63423156738281],
    [0.0, 0.5546293258666992, 1.9215583801269531, -37.60216522216797],
    [0.0, 0.0, 0.0, 1.0]
],
  "dcmmeta_reorient_transform": [
    [0.0, -1.0, 0.0, 105.0],
    [1.0, 0.0, 0.0, 0.0],
    [0.0, 0.0, 1.0, 0.0],
    [0.0, 0.0, 0.0, 1.0]
],
  "dcmmeta_shape": [106, 106, 48, 356],
  "dcmmeta_slice_dim": 2,
  "dcmmeta_version": 0.6,
  "global": {
    "const": {
      "AcquisitionMatrix": [106, 0, 0, 106],
      "AngioFlag": "N",
      "BitsAllocated": 16,
      "BitsStored": 16,
      "BodyPartExamined": "BRAIN",
      "CardiacNumberOfImages": 1,
      "Columns": 742,
      "EchoNumbers": 1,
      "EchoTime": 35.2,
      "EchoTrainLength": 106,
      "FlipAngle": 60.0,
      "HighBit": 15,
      "ImageOrientationPatient": [1.0, 0.0, 0.0, 0.0, 0.9607791500038, -0.2773146676935],
      "ImagePositionPatient": [-742.0, -735.18492968734, 197.00604410517],
      "ImageType": [
        "ORIGINAL",
        "PRIMARY",
        "M",
        "MB",
        "ND",
        "MOSAIC"
],
      "ImagedNucleus": "1H",
      "ImagingFrequency": 123.243646,
      "InPlanePhaseEncodingDirection": "COL",
      "MRAcquisitionType": "2D",
      "MagneticFieldStrength": 3.0,
      "Manufacturer": "SIEMENS",
      "ManufacturerModelName": "Prisma",
      "Modality": "MR",
      "NominalInterval": 0,
      "NumberOfAverages": 1.0,
      "NumberOfPhaseEncodingSteps": 106,
      "PercentPhaseFieldOfView": 100.0,
      "PercentSampling": 100.0,
      "PerformedProcedureStepStartTime": "163641.067000",
      "PhotometricInterpretation": "MONOCHROME2",
      "PixelBandwidth": 2620.0,
      "PixelRepresentation": 0,
      "PixelSpacing": [2.0, 2.0],
      "ProtocolName": "func-bold_task-pRF_run-03",
      "RepetitionTime": 1000.0,
      "Rows": 742,
      "SAR": 0.06912993053685,
      "SamplesPerPixel": 1,
      "ScanOptions": [
        "FS",
        "EXT"
],
      "ScanningSequence": "EP",
      "SequenceName": "epfid2d1_106",
      "SequenceVariant": [
        "SK",
        "SS"
],
      "SeriesDescription": "func-bold_task-pRF_run-03",
      "SeriesNumber": 14,
      "SeriesTime": "174219.998000",
      "SliceLocation": -14.598264868556,
      "SliceThickness": 2.0,
      "SmallestImagePixelValue": 0,
      "SoftwareVersions": "syngo MR E11",
      "SpacingBetweenSlices": 2.000000047808,
      "SpecificCharacterSet": "ISO_IR 100",
      "StudyID": "1",
      "StudyTime": "163640.992000",
      "TransmitCoilName": "Body",
      "VariableFlipAngleFlag": "N",
      "WindowCenterWidthExplanation": "Algo1",
      "dBdt": 0.0},
    "slices": {}
  },
  "time": {
    "samples": {
      "AcquisitionNumber": [1, 2, 3, 4, 5, 6, 7, 8, 9, 10, 11, 12, 13, 14, 15, 16, 17, 18, 19, 20, 21, 22, 23, 24, 25, 26, 27, 28, 29, 30, 31, 32, 33, 34, 35, 36, 37, 38, 39, 40, 41, 42, 43, 44, 45, 46, 47, 48, 49, 50, 51, 52, 53, 54, 55, 56, 57, 58, 59, 60, 61, 62, 63, 64, 65, 66, 67, 68, 69, 70, 71, 72, 73, 74, 75, 76, 77, 78, 79, 80, 81, 82, 83, 84, 85, 86, 87, 88, 89, 90, 91, 92, 93, 94, 95, 96, 97, 98, 99, 100, 101, 102, 103, 104, 105, 106, 107, 108, 109, 110, 111, 112, 113, 114, 115, 116, 117, 118, 119, 120, 121, 122, 123, 124, 125, 126, 127, 128, 129, 130, 131, 132, 133, 134, 135, 136, 137, 138, 139, 140, 141, 142, 143, 144, 145, 146, 147, 148, 149, 150, 151, 152, 153, 154, 155, 156, 157, 158, 159, 160, 161, 162, 163, 164, 165, 166, 167, 168, 169, 170, 171, 172, 173, 174, 175, 176, 177, 178, 179, 180, 181, 182, 183, 184, 185, 186, 187, 188, 189, 190, 191, 192, 193, 194, 195, 196, 197, 198, 199, 200, 201, 202, 203, 204, 205, 206, 207, 208, 209, 210, 211, 212, 213, 214, 215, 216, 217, 218, 219, 220, 221, 222, 223, 224, 225, 226, 227, 228, 229, 230, 231, 232, 233, 234, 235, 236, 237, 238, 239, 240, 241, 242, 243, 244, 245, 246, 247, 248, 249, 250, 251, 252, 253, 254, 255, 256, 257, 258, 259, 260, 261, 262, 263, 264, 265, 266, 267, 268, 269, 270, 271, 272, 273, 274, 275, 276, 277, 278, 279, 280, 281, 282, 283, 284, 285, 286, 287, 288, 289, 290, 291, 292, 293, 294, 295, 296, 297, 298, 299, 300, 301, 302, 303, 304, 305, 306, 307, 308, 309, 310, 311, 312, 313, 314, 315, 316, 317, 318, 319, 320, 321, 322, 323, 324, 325, 326, 327, 328, 329, 330, 331, 332, 333, 334, 335, 336, 337, 338, 339, 340, 341, 342, 343, 344, 345, 346, 347, 348, 349, 350, 351, 352, 353, 354, 355, 356],
      "AcquisitionTime": ["174137.380000", "174138.380000", "174139.380000", "174140.380000", "174141.380000", "174142.380000", "174143.380000", "174144.380000", "174145.380000", "174146.380000", "174147.380000", "174148.380000", "174149.380000", "174150.380000", "174151.380000", "174152.380000", "174153.380000", "174154.380000", "174155.380000", "174156.380000", "174157.380000", "174158.380000", "174159.380000", "174200.380000", "174201.380000", "174202.380000", "174203.380000", "174204.380000", "174205.380000", "174206.380000", "174207.380000", "174208.380000", "174209.380000", "174210.380000", "174211.380000", "174212.380000", "174213.380000", "174214.380000", "174215.380000", "174216.380000", "174217.380000", "174218.380000", "174219.380000", "174220.380000", "174221.380000", "174222.380000", "174223.380000", "174224.380000", "174225.380000", "174226.380000", "174227.380000", "174228.380000", "174229.380000", "174230.380000", "174231.380000", "174232.380000", "174233.380000", "174234.380000", "174235.380000", "174236.380000", "174237.380000", "174238.380000", "174239.380000", "174240.380000", "174241.380000", "174242.380000", "174243.380000", "174244.380000", "174245.380000", "174246.380000", "174247.380000", "174248.380000", "174249.380000", "174250.380000", "174251.380000", "174252.380000", "174253.380000", "174254.380000", "174255.380000", "174256.380000", "174257.380000", "174258.380000", "174259.380000", "174300.380000", "174301.380000", "174302.380000", "174303.380000", "174304.380000", "174305.380000", "174306.380000", "174307.380000", "174308.380000", "174309.380000", "174310.380000", "174311.380000", "174312.380000", "174313.380000", "174314.380000", "174315.380000", "174316.380000", "174317.380000", "174318.380000", "174319.380000", "174320.380000", "174321.380000", "174322.380000", "174323.380000", "174324.380000", "174325.380000", "174326.380000", "174327.380000", "174328.380000", "174329.380000", "174330.380000", "174331.380000", "174332.380000", "174333.380000", "174334.380000", "174335.380000", "174336.380000", "174337.380000", "174338.380000", "174339.380000", "174340.380000", "174341.380000", "174342.380000", "174343.380000", "174344.380000", "174345.380000", "174346.380000", "174347.380000", "174348.380000", "174349.380000", "174350.380000", "174351.380000", "174352.380000", "174353.380000", "174354.380000", "174355.380000", "174356.380000", "174357.380000", "174358.380000", "174359.380000", "174400.380000", "174401.380000", "174402.380000", "174403.380000", "174404.380000", "174405.380000", "174406.380000", "174407.380000", "174408.380000", "174409.380000", "174410.380000", "174411.380000", "174412.380000", "174413.380000", "174414.380000", "174415.380000", "174416.380000", "174417.380000", "174418.380000", "174419.380000", "174420.380000", "174421.380000", "174422.380000", "174423.380000", "174424.380000", "174425.380000", "174426.380000", "174427.380000", "174428.380000", "174429.380000", "174430.380000", "174431.380000", "174432.380000", "174433.380000", "174434.380000", "174435.380000", "174436.380000", "174437.380000", "174438.380000", "174439.380000", "174440.380000", "174441.380000", "174442.380000", "174443.380000", "174444.380000", "174445.380000", "174446.380000", "174447.380000", "174448.380000", "174449.380000", "174450.380000", "174451.380000", "174452.380000", "174453.380000", "174454.380000", "174455.380000", "174456.380000", "174457.380000", "174458.380000", "174459.380000", "174500.380000", "174501.380000", "174502.380000", "174503.380000", "174504.380000", "174505.380000", "174506.380000", "174507.380000", "174508.380000", "174509.380000", "174510.380000", "174511.380000", "174512.380000", "174513.380000", "174514.380000", "174515.380000", "174516.380000", "174517.380000", "174518.380000", "174519.380000", "174520.380000", "174521.380000", "174522.380000", "174523.380000", "174524.380000", "174525.380000", "174526.380000", "174527.380000", "174528.380000", "174529.380000", "174530.380000", "174531.380000", "174532.380000", "174533.380000", "174534.380000", "174535.380000", "174536.380000", "174537.380000", "174538.380000", "174539.380000", "174540.380000", "174541.380000", "174542.380000", "174543.380000", "174544.380000", "174545.380000", "174546.380000", "174547.380000", "174548.380000", "174549.380000", "174550.380000", "174551.380000", "174552.380000", "174553.380000", "174554.380000", "174555.380000", "174556.380000", "174557.380000", "174558.380000", "174559.380000", "174600.380000", "174601.380000", "174602.380000", "174603.380000", "174604.380000", "174605.380000", "174606.380000", "174607.380000", "174608.380000", "174609.380000", "174610.380000", "174611.380000", "174612.380000", "174613.380000", "174614.380000", "174615.380000", "174616.380000", "174617.380000", "174618.380000", "174619.380000", "174620.380000", "174621.380000", "174622.380000", "174623.380000", "174624.380000", "174625.380000", "174626.380000", "174627.380000", "174628.380000", "174629.380000", "174630.380000", "174631.380000", "174632.380000", "174633.380000", "174634.380000", "174635.380000", "174636.380000", "174637.380000", "174638.380000", "174639.380000", "174640.380000", "174641.380000", "174642.380000", "174643.380000", "174644.380000", "174645.380000", "174646.380000", "174647.380000", "174648.380000", "174649.380000", "174650.380000", "174651.380000", "174652.380000", "174653.380000", "174654.380000", "174655.380000", "174656.380000", "174657.380000", "174658.380000", "174659.380000", "174700.380000", "174701.380000", "174702.380000", "174703.380000", "174704.380000", "174705.380000", "174706.380000", "174707.380000", "174708.380000", "174709.380000", "174710.380000", "174711.380000", "174712.380000", "174713.380000", "174714.380000", "174715.380000", "174716.380000", "174717.380000", "174718.380000", "174719.380000", "174720.380000", "174721.380000", "174722.380000", "174723.380000", "174724.380000", "174725.380000", "174726.380000", "174727.380000", "174728.380000", "174729.380000", "174730.380000", "174731.380000", "174732.380000"],
      "ContentTime": ["174220.001000", "174220.004000", "174220.007000", "174220.009000", "174220.012000", "174220.014000", "174220.017000", "174220.019000", "174220.022000", "174220.024000", "174220.026000", "174220.029000", "174220.031000", "174220.034000", "174220.055000", "174220.057000", "174220.060000", "174220.062000", "174220.065000", "174220.067000", "174220.070000", "174220.072000", "174220.084000", "174220.087000", "174220.090000", "174220.092000", "174220.095000", "174220.097000", "174220.100000", "174220.102000", "174220.105000", "174220.108000", "174220.110000", "174220.113000", "174220.116000", "174220.118000", "174220.121000", "174220.123000", "174220.126000", "174220.128000", "174220.131000", "174220.134000", "174239.972000", "174239.975000", "174239.978000", "174239.980000", "174239.983000", "174239.985000", "174239.988000", "174239.990000", "174239.993000", "174240.004000", "174240.007000", "174240.009000", "174240.012000", "174240.014000", "174240.017000", "174240.019000", "174240.022000", "174240.024000", "174240.027000", "174240.030000", "174259.972000", "174259.975000", "174259.978000", "174259.980000", "174259.983000", "174259.986000", "174259.988000", "174259.991000", "174259.993000", "174259.996000", "174259.999000", "174300.001000", "174300.004000", "174300.007000", "174300.010000", "174300.012000", "174300.015000", "174300.018000", "174300.020000", "174300.023000", "174319.972000", "174319.975000", "174319.978000", "174319.980000", "174319.983000", "174319.986000", "174319.988000", "174319.990000", "174319.993000", "174319.995000", "174319.998000", "174320.001000", "174320.004000", "174320.006000", "174320.009000", "174320.011000", "174320.014000", "174320.016000", "174320.019000", "174320.021000", "174339.972000", "174339.975000", "174339.978000", "174339.980000", "174339.983000", "174339.985000", "174339.988000", "174339.990000", "174339.993000", "174339.995000", "174339.998000", "174340.002000", "174340.004000", "174340.007000", "174340.009000", "174340.012000", "174340.015000", "174340.017000", "174340.020000", "174340.022000", "174359.972000", "174359.975000", "174359.978000", "174359.980000", "174359.983000", "174359.985000", "174359.988000", "174359.990000", "174359.992000", "174359.995000", "174359.997000", "174400.001000", "174400.003000", "174400.013000", "174400.016000", "174400.018000", "174400.021000", "174400.023000", "174400.026000", "174400.028000", "174419.972000", "174419.975000", "174419.978000", "174419.981000", "174419.983000", "174419.986000", "174419.988000", "174419.991000", "174419.994000", "174419.996000", "174419.999000", "174420.001000", "174420.004000", "174420.007000", "174420.009000", "174420.012000", "174420.014000", "174420.016000", "174420.019000", "174420.021000", "174439.972000", "174439.975000", "174439.978000", "174439.980000", "174439.991000", "174439.994000", "174439.996000", "174440.000000", "174440.002000", "174440.005000", "174440.007000", "174440.010000", "174440.012000", "174440.015000", "174440.018000", "174440.020000", "174440.022000", "174440.025000", "174440.027000", "174440.030000", "174459.972000", "174459.975000", "174459.978000", "174459.980000", "174459.983000", "174459.985000", "174459.988000", "174459.990000", "174459.993000", "174459.995000", "174459.998000", "174500.001000", "174500.004000", "174500.006000", "174500.009000", "174500.011000", "174500.014000", "174500.017000", "174500.019000", "174500.022000", "174519.972000", "174519.975000", "174519.978000", "174519.980000", "174519.983000", "174519.986000", "174519.989000", "174519.991000", "174519.994000", "174520.000000", "174520.002000", "174520.005000", "174520.007000", "174520.010000", "174520.012000", "174520.015000", "174520.017000", "174520.020000", "174520.022000", "174520.025000", "174539.973000", "174539.975000", "174539.978000", "174539.980000", "174539.983000", "174539.985000", "174539.988000", "174539.990000", "174539.993000", "174539.995000", "174539.998000", "174540.001000", "174540.016000", "174540.019000", "174540.021000", "174540.024000", "174540.026000", "174540.029000", "174540.031000", "174540.033000", "174559.972000", "174559.975000", "174559.978000", "174559.981000", "174559.983000", "174559.986000", "174559.988000", "174559.991000", "174559.993000", "174559.996000", "174559.998000", "174600.001000", "174600.004000", "174600.006000", "174600.009000", "174600.011000", "174600.014000", "174600.017000", "174600.019000", "174600.021000", "174619.972000", "174619.975000", "174619.978000", "174619.980000", "174619.983000", "174619.985000", "174619.988000", "174619.990000", "174619.993000", "174619.995000", "174619.998000", "174620.001000", "174620.004000", "174620.006000", "174620.009000", "174620.011000", "174620.014000", "174620.016000", "174620.019000", "174620.021000", "174639.973000", "174639.975000", "174639.978000", "174639.981000", "174639.983000", "174639.986000", "174639.988000", "174639.991000", "174639.994000", "174639.996000", "174640.000000", "174640.003000", "174640.006000", "174640.008000", "174640.011000", "174640.014000", "174640.016000", "174640.019000", "174640.021000", "174640.024000", "174659.972000", "174659.975000", "174659.978000", "174659.980000", "174659.983000", "174659.986000", "174659.988000", "174659.991000", "174659.993000", "174659.995000", "174659.998000", "174700.001000", "174700.004000", "174700.006000", "174700.009000", "174700.011000", "174700.014000", "174700.016000", "174700.018000", "174700.021000", "174719.972000", "174719.975000", "174719.978000", "174719.981000", "174719.983000", "174719.986000", "174719.988000", "174719.991000", "174719.993000", "174719.996000", "174719.998000", "174720.002000", "174720.004000", "174720.007000", "174720.010000", "174720.012000", "174720.015000", "174720.017000", "174720.020000", "174720.022000", "174734.135000", "174734.138000", "174734.141000", "174734.144000", "174734.147000", "174734.150000", "174734.152000", "174734.155000", "174734.157000", "174734.160000", "174734.162000", "174734.165000", "174734.167000", "174734.170000"],
      "InstanceCreationTime": ["174220.001000", "174220.004000", "174220.007000", "174220.009000", "174220.012000", "174220.014000", "174220.017000", "174220.019000", "174220.022000", "174220.024000", "174220.026000", "174220.029000", "174220.031000", "174220.034000", "174220.055000", "174220.057000", "174220.060000", "174220.062000", "174220.065000", "174220.067000", "174220.070000", "174220.072000", "174220.084000", "174220.087000", "174220.090000", "174220.092000", "174220.095000", "174220.097000", "174220.100000", "174220.102000", "174220.105000", "174220.108000", "174220.110000", "174220.113000", "174220.116000", "174220.118000", "174220.121000", "174220.123000", "174220.126000", "174220.128000", "174220.131000", "174220.134000", "174239.972000", "174239.975000", "174239.978000", "174239.980000", "174239.983000", "174239.985000", "174239.988000", "174239.990000", "174239.993000", "174240.004000", "174240.007000", "174240.009000", "174240.012000", "174240.014000", "174240.017000", "174240.019000", "174240.022000", "174240.024000", "174240.027000", "174240.030000", "174259.972000", "174259.975000", "174259.978000", "174259.980000", "174259.983000", "174259.986000", "174259.988000", "174259.991000", "174259.993000", "174259.996000", "174259.999000", "174300.001000", "174300.004000", "174300.007000", "174300.010000", "174300.012000", "174300.015000", "174300.018000", "174300.020000", "174300.023000", "174319.972000", "174319.975000", "174319.978000", "174319.980000", "174319.983000", "174319.986000", "174319.988000", "174319.990000", "174319.993000", "174319.995000", "174319.998000", "174320.001000", "174320.004000", "174320.006000", "174320.009000", "174320.011000", "174320.014000", "174320.016000", "174320.019000", "174320.021000", "174339.972000", "174339.975000", "174339.978000", "174339.980000", "174339.983000", "174339.985000", "174339.988000", "174339.990000", "174339.993000", "174339.995000", "174339.998000", "174340.002000", "174340.004000", "174340.007000", "174340.009000", "174340.012000", "174340.015000", "174340.017000", "174340.020000", "174340.022000", "174359.972000", "174359.975000", "174359.978000", "174359.980000", "174359.983000", "174359.985000", "174359.988000", "174359.990000", "174359.992000", "174359.995000", "174359.997000", "174400.001000", "174400.003000", "174400.013000", "174400.016000", "174400.018000", "174400.021000", "174400.023000", "174400.026000", "174400.028000", "174419.972000", "174419.975000", "174419.978000", "174419.981000", "174419.983000", "174419.986000", "174419.988000", "174419.991000", "174419.994000", "174419.996000", "174419.999000", "174420.001000", "174420.004000", "174420.007000", "174420.009000", "174420.012000", "174420.014000", "174420.016000", "174420.019000", "174420.021000", "174439.972000", "174439.975000", "174439.978000", "174439.980000", "174439.991000", "174439.994000", "174439.996000", "174440.000000", "174440.002000", "174440.005000", "174440.007000", "174440.010000", "174440.012000", "174440.015000", "174440.018000", "174440.020000", "174440.022000", "174440.025000", "174440.027000", "174440.030000", "174459.972000", "174459.975000", "174459.978000", "174459.980000", "174459.983000", "174459.985000", "174459.988000", "174459.990000", "174459.993000", "174459.995000", "174459.998000", "174500.001000", "174500.004000", "174500.006000", "174500.009000", "174500.011000", "174500.014000", "174500.017000", "174500.019000", "174500.022000", "174519.972000", "174519.975000", "174519.978000", "174519.980000", "174519.983000", "174519.986000", "174519.989000", "174519.991000", "174519.994000", "174520.000000", "174520.002000", "174520.005000", "174520.007000", "174520.010000", "174520.012000", "174520.015000", "174520.017000", "174520.020000", "174520.022000", "174520.025000", "174539.973000", "174539.975000", "174539.978000", "174539.980000", "174539.983000", "174539.985000", "174539.988000", "174539.990000", "174539.993000", "174539.995000", "174539.998000", "174540.001000", "174540.016000", "174540.019000", "174540.021000", "174540.024000", "174540.026000", "174540.029000", "174540.031000", "174540.033000", "174559.972000", "174559.975000", "174559.978000", "174559.981000", "174559.983000", "174559.986000", "174559.988000", "174559.991000", "174559.993000", "174559.996000", "174559.998000", "174600.001000", "174600.004000", "174600.006000", "174600.009000", "174600.011000", "174600.014000", "174600.017000", "174600.019000", "174600.021000", "174619.972000", "174619.975000", "174619.978000", "174619.980000", "174619.983000", "174619.985000", "174619.988000", "174619.990000", "174619.993000", "174619.995000", "174619.998000", "174620.001000", "174620.004000", "174620.006000", "174620.009000", "174620.011000", "174620.014000", "174620.016000", "174620.019000", "174620.021000", "174639.973000", "174639.975000", "174639.978000", "174639.981000", "174639.983000", "174639.986000", "174639.988000", "174639.991000", "174639.994000", "174639.996000", "174640.000000", "174640.003000", "174640.006000", "174640.008000", "174640.011000", "174640.014000", "174640.016000", "174640.019000", "174640.021000", "174640.024000", "174659.972000", "174659.975000", "174659.978000", "174659.980000", "174659.983000", "174659.986000", "174659.988000", "174659.991000", "174659.993000", "174659.995000", "174659.998000", "174700.001000", "174700.004000", "174700.006000", "174700.009000", "174700.011000", "174700.014000", "174700.016000", "174700.018000", "174700.021000", "174719.972000", "174719.975000", "174719.978000", "174719.981000", "174719.983000", "174719.986000", "174719.988000", "174719.991000", "174719.993000", "174719.996000", "174719.998000", "174720.002000", "174720.004000", "174720.007000", "174720.010000", "174720.012000", "174720.015000", "174720.017000", "174720.020000", "174720.022000", "174734.135000", "174734.138000", "174734.141000", "174734.144000", "174734.147000", "174734.150000", "174734.152000", "174734.155000", "174734.157000", "174734.160000", "174734.162000", "174734.165000", "174734.167000", "174734.170000"],
      "InstanceNumber": [1, 2, 3, 4, 5, 6, 7, 8, 9, 10, 11, 12, 13, 14, 15, 16, 17, 18, 19, 20, 21, 22, 23, 24, 25, 26, 27, 28, 29, 30, 31, 32, 33, 34, 35, 36, 37, 38, 39, 40, 41, 42, 43, 44, 45, 46, 47, 48, 49, 50, 51, 52, 53, 54, 55, 56, 57, 58, 59, 60, 61, 62, 63, 64, 65, 66, 67, 68, 69, 70, 71, 72, 73, 74, 75, 76, 77, 78, 79, 80, 81, 82, 83, 84, 85, 86, 87, 88, 89, 90, 91, 92, 93, 94, 95, 96, 97, 98, 99, 100, 101, 102, 103, 104, 105, 106, 107, 108, 109, 110, 111, 112, 113, 114, 115, 116, 117, 118, 119, 120, 121, 122, 123, 124, 125, 126, 127, 128, 129, 130, 131, 132, 133, 134, 135, 136, 137, 138, 139, 140, 141, 142, 143, 144, 145, 146, 147, 148, 149, 150, 151, 152, 153, 154, 155, 156, 157, 158, 159, 160, 161, 162, 163, 164, 165, 166, 167, 168, 169, 170, 171, 172, 173, 174, 175, 176, 177, 178, 179, 180, 181, 182, 183, 184, 185, 186, 187, 188, 189, 190, 191, 192, 193, 194, 195, 196, 197, 198, 199, 200, 201, 202, 203, 204, 205, 206, 207, 208, 209, 210, 211, 212, 213, 214, 215, 216, 217, 218, 219, 220, 221, 222, 223, 224, 225, 226, 227, 228, 229, 230, 231, 232, 233, 234, 235, 236, 237, 238, 239, 240, 241, 242, 243, 244, 245, 246, 247, 248, 249, 250, 251, 252, 253, 254, 255, 256, 257, 258, 259, 260, 261, 262, 263, 264, 265, 266, 267, 268, 269, 270, 271, 272, 273, 274, 275, 276, 277, 278, 279, 280, 281, 282, 283, 284, 285, 286, 287, 288, 289, 290, 291, 292, 293, 294, 295, 296, 297, 298, 299, 300, 301, 302, 303, 304, 305, 306, 307, 308, 309, 310, 311, 312, 313, 314, 315, 316, 317, 318, 319, 320, 321, 322, 323, 324, 325, 326, 327, 328, 329, 330, 331, 332, 333, 334, 335, 336, 337, 338, 339, 340, 341, 342, 343, 344, 345, 346, 347, 348, 349, 350, 351, 352, 353, 354, 355, 356],
      "LargestImagePixelValue": [11001, 10645, 10710, 10663, 10599, 9939, 11246, 10904, 10840, 10706, 10779, 10700, 10691, 10753, 10876, 10771, 10802, 10762, 10972, 10728, 10777, 10686, 10636, 10740, 10758, 10659, 10650, 10766, 10876, 10866, 10759, 10614, 10726, 10720, 10780, 10791, 10881, 10800, 10933, 10822, 10879, 10844, 10831, 10955, 10675, 10544, 10542, 10486, 10683, 10788, 10803, 10683, 10759, 10674, 10825, 10663, 10568, 10622, 10612, 10810, 10566, 10624, 10627, 10812, 10799, 10821, 10762, 10661, 10759, 10754, 10819, 10678, 10705, 10839, 10834, 10680, 10728, 10662, 10663, 10715, 10795, 10586, 10812, 10657, 10899, 10854, 10815, 10592, 10678, 10692, 10655, 10791, 10656, 10877, 10784, 10765, 10660, 10818, 10721, 10646, 10643, 10767, 10691, 10657, 10853, 10751, 10760, 10831, 10606, 10553, 10542, 10814, 10695, 10732, 10749, 10837, 10794, 10838, 10463, 10363, 10692, 10654, 10628, 10674, 10583, 10655, 10489, 10748, 10662, 10578, 10603, 10713, 10569, 10548, 10686, 10837, 10826, 10751, 10750, 10468, 10708, 10421, 10709, 10639, 10558, 10609, 10577, 10721, 10502, 10650, 10763, 10546, 10696, 10654, 10659, 10634, 10738, 10530, 10563, 10584, 10400, 10660, 10484, 10445, 10699, 10655, 10559, 10591, 10667, 10602, 10739, 10675, 10508, 10571, 10777, 10511, 10548, 10665, 10518, 10253, 10493, 10553, 10448, 10293, 10668, 10541, 10433, 10466, 10436, 10271, 10265, 10303, 10085, 10262, 10317, 10338, 10039, 10173, 10293, 10351, 10334, 10688, 10571, 10390, 10469, 10605, 10550, 10185, 10167, 10198, 9907, 9942, 9886, 10090, 9889, 10125, 9925, 9912, 9936, 9912, 9930, 9779, 9833, 9861, 9792, 10205, 10119, 10134, 9811, 10127, 9958, 9961, 9774, 10024, 9939, 9980, 10020, 10060, 10027, 10093, 10052, 9972, 9922, 10109, 9972, 9815, 10078, 10008, 10102, 10027, 10335, 10180, 9985, 9923, 10046, 10071, 10044, 10144, 10116, 10215, 10204, 10186, 10035, 9942, 10008, 10064, 10110, 10291, 10134, 9943, 10240, 10214, 10046, 9896, 9934, 10028, 9916, 9996, 9877, 9912, 9662, 9757, 9689, 9551, 9636, 9501, 9575, 9635, 9746, 9639, 9663, 9706, 9691, 9671, 9691, 9636, 9737, 9704, 9661, 9731, 9772, 9681, 9758, 9885, 9722, 9743, 9782, 9838, 9702, 10171, 9795, 9753, 9734, 9845, 9761, 9727, 9705, 9658, 9631, 10636, 10478, 10117, 9953, 9869, 10063, 10210, 9999, 9882, 10064, 10108, 10155, 10146, 10082, 9881, 9804, 10122, 10089, 9988, 10279, 10204, 9916, 10122, 10172, 10097, 9976, 9868, 9968, 10149, 9925, 10029, 10172, 9927, 9957, 10015, 10089, 10027],
