{
  "AcquisitionMatrixPE": 106,
  "AcquisitionNumber": 1,
  "AcquisitionTime": "17:10:48.880000",
  "BandwidthPerPixelPhaseEncode": 13.477,
  "BaseResolution": 106,
  "BodyPartExamined": "BRAIN",
  "CoilCombinationMethod": "Sum of Squares",
  "ConsistencyInfo": "N4_VE11C_LATEST_20160120",
  "ConversionSoftware": "dcm2niix",
  "ConversionSoftwareVersion": "v1.0.20220720",
  "DerivedVendorReportedEchoSpacing": 0.000700005,
  "DeviceSerialNumber": "166108",
  "DwellTime": 2.6e-06,
  "EchoTime": 0.03,
  "EchoTrainLength": 80,
  "EffectiveEchoSpacing": 0.000700005,
  "FlipAngle": 62,
  "HeudiconvVersion": "1.3.0",
  "ImageComments": "Unaliased MB4/PE3/LB",
  "ImageOrientationPatientDICOM": [1, 0, 0, 0, 0.99961, -0.0279216],
  "ImageOrientationText": "Tra>Cor(-1.6)",
  "ImageType": [
    "ORIGINAL",
    "PRIMARY",
    "M",
    "MB",
    "ND",
    "MOSAIC"
],
  "ImagingFrequency": 123.244,
  "InPlanePhaseEncodingDirectionDICOM": "COL",
  "InstitutionAddress": "Bedford Way 26,London,London,GB,WC1H 0AP",
  "InstitutionName": "University College",
  "InstitutionalDepartmentName": "Department",
  "MRAcquisitionType": "2D",
  "MagneticFieldStrength": 3,
  "Manufacturer": "Siemens",
  "ManufacturersModelName": "Prisma",
  "MatrixCoilMode": "SENSE",
  "Modality": "MR",
  "MultibandAccelerationFactor": 4,
  "NonlinearGradientCorrection": false,
  "PartialFourier": 0.75,
  "PatientPosition": "HFS",
  "PercentPhaseFOV": 100,
  "PercentSampling": 100,
  "PhaseEncodingDirection": "j-",
  "PhaseEncodingSteps": 80,
  "PhaseResolution": 1,
  "PixelBandwidth": 1815,
  "ProcedureStepDescription": "Egor^MovieProject2",
  "ProtocolName": "func-bold_task-motor_run-01",
  "PulseSequenceDetails": "%CustomerSeq%\\cmrr_mbep2d_bold",
  "ReceiveCoilActiveElements": "HEA;HEP",
  "ReceiveCoilName": "Head_32",
  "ReconMatrixPE": 106,
  "RepetitionTime": 1,
  "SAR": 0.0385922,
  "ScanOptions": "PFP\\FS\\EXT",
  "ScanningSequence": "EP",
  "SequenceName": "epfid2d1_106",
  "SequenceVariant": "SK\\SS",
  "SeriesDescription": "func-bold_task-motor_run-01",
  "SeriesNumber": 6,
  "ShimSetting": [-1489, 603, 7281, 60, -168, 168, 365, -45],
  "SliceThickness": 2,
  "SliceTiming": [0, 0.535, 0.09, 0.6225, 0.1775, 0.7125, 0.2675, 0.8025, 0.3575, 0.89, 0.445, 0, 0.535, 0.09, 0.6225, 0.1775, 0.7125, 0.2675, 0.8025, 0.3575, 0.89, 0.445, 0, 0.535, 0.09, 0.6225, 0.1775, 0.7125, 0.2675, 0.8025, 0.3575, 0.89, 0.445, 0, 0.535, 0.09, 0.6225, 0.1775, 0.7125, 0.2675, 0.8025, 0.3575, 0.89, 0.445],
  "SoftwareVersions": "syngo MR E11",
  "SpacingBetweenSlices": 2,
  "StationName": "AWP166108",
  "TaskName": "somatotopy",
  "TotalReadoutTime": 0.0735005,
  "TxRefAmp": 218.587,
  "WipMemBlock": "29d91747-09b4-4ace-acea-d99a28709e1a||Sequence: R016 ve11c/master r/e634e98; Dec 19 2017 11:00:25 by eja",
  "dcmmeta_affine": [
    [-2.0, 0.0, 0.0, 106.0],
    [0.0, 1.9992202520370483, -0.05584327504038811, -94.80240631103516],
    [0.0, 0.05584327504038811, 1.9992201328277588, -2.9961025714874268],
    [0.0, 0.0, 0.0, 1.0]
],
  "dcmmeta_reorient_transform": [
    [0.0, -1.0, 0.0, 105.0],
    [1.0, 0.0, 0.0, 0.0],
    [0.0, 0.0, 1.0, 0.0],
    [0.0, 0.0, 0.0, 1.0]
],
  "dcmmeta_shape": [106, 106, 44, 467],
  "dcmmeta_slice_dim": 2,
  "dcmmeta_version": 0.6,
  "global": {
    "const": {
      "AcquisitionMatrix": [106, 0, 0, 106],
      "AngioFlag": "N",
      "BitsAllocated": 16,
      "BitsStored": 16,
      "BodyPartExamined": "BRAIN",
      "CardiacNumberOfImages": 1,
      "Columns": 742,
      "EchoNumbers": 1,
      "EchoTime": 30.0,
      "EchoTrainLength": 80,
      "FlipAngle": 62.0,
      "HighBit": 15,
      "ImageOrientationPatient": [1.0, 0.0, 0.0, 0.0, 0.99961011506467, -0.0279216378532],
      "ImagePositionPatient": [-742.0, -750.86775264971, 20.625603159283],
      "ImageType": [
        "ORIGINAL",
        "PRIMARY",
        "M",
        "MB",
        "ND",
        "MOSAIC"
],
      "ImagedNucleus": "1H",
      "ImagingFrequency": 123.243651,
      "InPlanePhaseEncodingDirection": "COL",
      "MRAcquisitionType": "2D",
      "MagneticFieldStrength": 3.0,
      "Manufacturer": "SIEMENS",
      "ManufacturerModelName": "Prisma",
      "Modality": "MR",
      "NominalInterval": 0,
      "NumberOfAverages": 1.0,
      "NumberOfPhaseEncodingSteps": 80,
      "PercentPhaseFieldOfView": 100.0,
      "PercentSampling": 100.0,
      "PerformedProcedureStepStartTime": "163641.067000",
      "PhotometricInterpretation": "MONOCHROME2",
      "PixelBandwidth": 1815.0,
      "PixelRepresentation": 0,
      "PixelSpacing": [2.0, 2.0],
      "ProtocolName": "func-bold_task-motor_run-01",
      "RepetitionTime": 1000.0,
      "Rows": 742,
      "SAR": 0.0385921684262,
      "SamplesPerPixel": 1,
      "ScanOptions": [
        "PFP",
        "FS",
        "EXT"
],
      "ScanningSequence": "EP",
      "SequenceName": "epfid2d1_106",
      "SequenceVariant": [
        "SK",
        "SS"
],
      "SeriesDescription": "func-bold_task-motor_run-01",
      "SeriesNumber": 6,
      "SeriesTime": "171119.952000",
      "SliceLocation": -0.3478959178376,
      "SliceThickness": 2.0,
      "SmallestImagePixelValue": 0,
      "SoftwareVersions": "syngo MR E11",
      "SpacingBetweenSlices": 1.9999999167273,
      "SpecificCharacterSet": "ISO_IR 100",
      "StudyID": "1",
      "StudyTime": "163640.992000",
      "TransmitCoilName": "Body",
      "VariableFlipAngleFlag": "N",
      "WindowCenterWidthExplanation": "Algo1",
      "dBdt": 0.0},
    "slices": {}
  },
  "time": {
    "samples": {
      "AcquisitionNumber": [1, 2, 3, 4, 5, 6, 7, 8, 9, 10, 11, 12, 13, 14, 15, 16, 17, 18, 19, 20, 21, 22, 23, 24, 25, 26, 27, 28, 29, 30, 31, 32, 33, 34, 35, 36, 37, 38, 39, 40, 41, 42, 43, 44, 45, 46, 47, 48, 49, 50, 51, 52, 53, 54, 55, 56, 57, 58, 59, 60, 61, 62, 63, 64, 65, 66, 67, 68, 69, 70, 71, 72, 73, 74, 75, 76, 77, 78, 79, 80, 81, 82, 83, 84, 85, 86, 87, 88, 89, 90, 91, 92, 93, 94, 95, 96, 97, 98, 99, 100, 101, 102, 103, 104, 105, 106, 107, 108, 109, 110, 111, 112, 113, 114, 115, 116, 117, 118, 119, 120, 121, 122, 123, 124, 125, 126, 127, 128, 129, 130, 131, 132, 133, 134, 135, 136, 137, 138, 139, 140, 141, 142, 143, 144, 145, 146, 147, 148, 149, 150, 151, 152, 153, 154, 155, 156, 157, 158, 159, 160, 161, 162, 163, 164, 165, 166, 167, 168, 169, 170, 171, 172, 173, 174, 175, 176, 177, 178, 179, 180, 181, 182, 183, 184, 185, 186, 187, 188, 189, 190, 191, 192, 193, 194, 195, 196, 197, 198, 199, 200, 201, 202, 203, 204, 205, 206, 207, 208, 209, 210, 211, 212, 213, 214, 215, 216, 217, 218, 219, 220, 221, 222, 223, 224, 225, 226, 227, 228, 229, 230, 231, 232, 233, 234, 235, 236, 237, 238, 239, 240, 241, 242, 243, 244, 245, 246, 247, 248, 249, 250, 251, 252, 253, 254, 255, 256, 257, 258, 259, 260, 261, 262, 263, 264, 265, 266, 267, 268, 269, 270, 271, 272, 273, 274, 275, 276, 277, 278, 279, 280, 281, 282, 283, 284, 285, 286, 287, 288, 289, 290, 291, 292, 293, 294, 295, 296, 297, 298, 299, 300, 301, 302, 303, 304, 305, 306, 307, 308, 309, 310, 311, 312, 313, 314, 315, 316, 317, 318, 319, 320, 321, 322, 323, 324, 325, 326, 327, 328, 329, 330, 331, 332, 333, 334, 335, 336, 337, 338, 339, 340, 341, 342, 343, 344, 345, 346, 347, 348, 349, 350, 351, 352, 353, 354, 355, 356, 357, 358, 359, 360, 361, 362, 363, 364, 365, 366, 367, 368, 369, 370, 371, 372, 373, 374, 375, 376, 377, 378, 379, 380, 381, 382, 383, 384, 385, 386, 387, 388, 389, 390, 391, 392, 393, 394, 395, 396, 397, 398, 399, 400, 401, 402, 403, 404, 405, 406, 407, 408, 409, 410, 411, 412, 413, 414, 415, 416, 417, 418, 419, 420, 421, 422, 423, 424, 425, 426, 427, 428, 429, 430, 431, 432, 433, 434, 435, 436, 437, 438, 439, 440, 441, 442, 443, 444, 445, 446, 447, 448, 449, 450, 451, 452, 453, 454, 455, 456, 457, 458, 459, 460, 461, 462, 463, 464, 465, 466, 467],
      "AcquisitionTime": ["171048.880000", "171049.880000", "171050.880000", "171051.880000", "171052.880000", "171053.880000", "171054.880000", "171055.880000", "171056.880000", "171057.880000", "171058.880000", "171059.880000", "171100.880000", "171101.880000", "171102.880000", "171103.880000", "171104.880000", "171105.880000", "171106.880000", "171107.880000", "171108.880000", "171109.880000", "171110.880000", "171111.880000", "171112.880000", "171113.880000", "171114.880000", "171115.880000", "171116.880000", "171117.880000", "171118.880000", "171119.880000", "171120.880000", "171121.880000", "171122.880000", "171123.880000", "171124.880000", "171125.880000", "171126.880000", "171127.880000", "171128.880000", "171129.880000", "171130.880000", "171131.880000", "171132.880000", "171133.880000", "171134.880000", "171135.880000", "171136.880000", "171137.880000", "171138.880000", "171139.880000", "171140.880000", "171141.880000", "171142.880000", "171143.880000", "171144.880000", "171145.880000", "171146.880000", "171147.880000", "171148.880000", "171149.880000", "171150.880000", "171151.880000", "171152.880000", "171153.880000", "171154.880000", "171155.880000", "171156.880000", "171157.880000", "171158.880000", "171159.880000", "171200.880000", "171201.880000", "171202.880000", "171203.880000", "171204.880000", "171205.880000", "171206.880000", "171207.880000", "171208.880000", "171209.880000", "171210.880000", "171211.880000", "171212.880000", "171213.880000", "171214.880000", "171215.880000", "171216.880000", "171217.880000", "171218.880000", "171219.880000", "171220.880000", "171221.880000", "171222.880000", "171223.880000", "171224.880000", "171225.880000", "171226.880000", "171227.880000", "171228.880000", "171229.880000", "171230.880000", "171231.880000", "171232.880000", "171233.880000", "171234.880000", "171235.880000", "171236.880000", "171237.880000", "171238.880000", "171239.880000", "171240.880000", "171241.880000", "171242.880000", "171243.880000", "171244.880000", "171245.880000", "171246.880000", "171247.880000", "171248.880000", "171249.880000", "171250.880000", "171251.880000", "171252.880000", "171253.880000", "171254.880000", "171255.880000", "171256.880000", "171257.880000", "171258.880000", "171259.880000", "171300.880000", "171301.880000", "171302.880000", "171303.880000", "171304.880000", "171305.880000", "171306.880000", "171307.880000", "171308.880000", "171309.880000", "171310.880000", "171311.880000", "171312.880000", "171313.880000", "171314.880000", "171315.880000", "171316.880000", "171317.880000", "171318.880000", "171319.880000", "171320.880000", "171321.880000", "171322.880000", "171323.880000", "171324.880000", "171325.880000", "171326.880000", "171327.880000", "171328.880000", "171329.880000", "171330.880000", "171331.880000", "171332.880000", "171333.880000", "171334.880000", "171335.880000", "171336.880000", "171337.880000", "171338.880000", "171339.880000", "171340.880000", "171341.880000", "171342.880000", "171343.880000", "171344.880000", "171345.880000", "171346.880000", "171347.880000", "171348.880000", "171349.880000", "171350.880000", "171351.880000", "171352.880000", "171353.880000", "171354.880000", "171355.880000", "171356.880000", "171357.880000", "171358.880000", "171359.880000", "171400.880000", "171401.880000", "171402.880000", "171403.880000", "171404.880000", "171405.880000", "171406.880000", "171407.880000", "171408.880000", "171409.880000", "171410.880000", "171411.880000", "171412.880000", "171413.880000", "171414.880000", "171415.880000", "171416.880000", "171417.880000", "171418.880000", "171419.880000", "171420.880000", "171421.880000", "171422.880000", "171423.880000", "171424.880000", "171425.880000", "171426.880000", "171427.880000", "171428.880000", "171429.880000", "171430.880000", "171431.880000", "171432.880000", "171433.880000", "171434.880000", "171435.880000", "171436.880000", "171437.880000", "171438.880000", "171439.880000", "171440.880000", "171441.880000", "171442.880000", "171443.880000", "171444.880000", "171445.880000", "171446.880000", "171447.880000", "171448.880000", "171449.880000", "171450.880000", "171451.880000", "171452.880000", "171453.880000", "171454.880000", "171455.880000", "171456.880000", "171457.880000", "171458.880000", "171459.880000", "171500.880000", "171501.880000", "171502.880000", "171503.880000", "171504.880000", "171505.880000", "171506.880000", "171507.880000", "171508.880000", "171509.880000", "171510.880000", "171511.880000", "171512.880000", "171513.880000", "171514.880000", "171515.880000", "171516.880000", "171517.880000", "171518.880000", "171519.880000", "171520.880000", "171521.880000", "171522.880000", "171523.880000", "171524.880000", "171525.880000", "171526.880000", "171527.880000", "171528.880000", "171529.880000", "171530.880000", "171531.880000", "171532.880000", "171533.880000", "171534.880000", "171535.880000", "171536.880000", "171537.880000", "171538.880000", "171539.880000", "171540.880000", "171541.880000", "171542.880000", "171543.880000", "171544.880000", "171545.880000", "171546.880000", "171547.880000", "171548.880000", "171549.880000", "171550.880000", "171551.880000", "171552.880000", "171553.880000", "171554.880000", "171555.880000", "171556.880000", "171557.880000", "171558.880000", "171559.880000", "171600.880000", "171601.880000", "171602.880000", "171603.880000", "171604.880000", "171605.880000", "171606.880000", "171607.880000", "171608.880000", "171609.880000", "171610.880000", "171611.880000", "171612.880000", "171613.880000", "171614.880000", "171615.880000", "171616.880000", "171617.880000", "171618.880000", "171619.880000", "171620.880000", "171621.880000", "171622.880000", "171623.880000", "171624.880000", "171625.880000", "171626.880000", "171627.880000", "171628.880000", "171629.880000", "171630.880000", "171631.880000", "171632.880000", "171633.880000", "171634.880000", "171635.880000", "171636.880000", "171637.880000", "171638.880000", "171639.880000", "171640.880000", "171641.880000", "171642.880000", "171643.880000", "171644.880000", "171645.880000", "171646.880000", "171647.880000", "171648.880000", "171649.880000", "171650.880000", "171651.880000", "171652.880000", "171653.880000", "171654.880000", "171655.880000", "171656.880000", "171657.880000", "171658.880000", "171659.880000", "171700.880000", "171701.880000", "171702.880000", "171703.880000", "171704.880000", "171705.880000", "171706.880000", "171707.880000", "171708.880000", "171709.880000", "171710.880000", "171711.880000", "171712.880000", "171713.880000", "171714.880000", "171715.880000", "171716.880000", "171717.880000", "171718.880000", "171719.880000", "171720.880000", "171721.880000", "171722.880000", "171723.880000", "171724.880000", "171725.880000", "171726.880000", "171727.880000", "171728.880000", "171729.880000", "171730.880000", "171731.880000", "171732.880000", "171733.880000", "171734.880000", "171735.880000", "171736.880000", "171737.880000", "171738.880000", "171739.880000", "171740.880000", "171741.880000", "171742.880000", "171743.880000", "171744.880000", "171745.880000", "171746.880000", "171747.880000", "171748.880000", "171749.880000", "171750.880000", "171751.880000", "171752.880000", "171753.880000", "171754.880000", "171755.880000", "171756.880000", "171757.880000", "171758.880000", "171759.880000", "171800.880000", "171801.880000", "171802.880000", "171803.880000", "171804.880000", "171805.880000", "171806.880000", "171807.880000", "171808.880000", "171809.880000", "171810.880000", "171811.880000", "171812.880000", "171813.880000", "171814.880000", "171815.880000", "171816.880000", "171817.880000", "171818.880000", "171819.880000", "171820.880000", "171821.880000", "171822.880000", "171823.880000", "171824.880000", "171825.880000", "171826.880000", "171827.880000", "171828.880000", "171829.880000", "171830.880000", "171831.880000", "171832.880000", "171833.880000", "171834.880000"],
      "ContentTime": ["171119.954000", "171119.957000", "171119.959000", "171119.962000", "171119.964000", "171119.967000", "171119.969000", "171119.972000", "171119.974000", "171119.977000", "171119.979000", "171119.982000", "171119.985000", "171119.987000", "171119.990000", "171119.992000", "171119.995000", "171119.997000", "171120.000000", "171120.003000", "171120.005000", "171120.021000", "171120.023000", "171120.026000", "171120.028000", "171120.031000", "171120.033000", "171120.035000", "171120.038000", "171139.908000", "171139.911000", "171139.914000", "171139.916000", "171139.919000", "171139.922000", "171139.924000", "171139.927000", "171139.929000", "171139.932000", "171139.934000", "171139.937000", "171139.939000", "171139.942000", "171139.944000", "171139.947000", "171139.949000", "171139.952000", "171139.954000", "171139.957000", "171159.909000", "171159.911000", "171159.914000", "171159.916000", "171159.919000", "171159.921000", "171159.923000", "171159.926000", "171159.928000", "171159.931000", "171159.933000", "171159.941000", "171159.944000", "171159.946000", "171159.949000", "171159.951000", "171159.954000", "171159.956000", "171159.958000", "171159.961000", "171159.963000", "171219.908000", "171219.911000", "171219.913000", "171219.916000", "171219.918000", "171219.921000", "171219.923000", "171219.926000", "171219.928000", "171219.935000", "171219.938000", "171219.940000", "171219.943000", "171219.945000", "171219.948000", "171219.950000", "171219.952000", "171219.955000", "171219.957000", "171219.960000", "171239.908000", "171239.911000", "171239.914000", "171239.916000", "171239.919000", "171239.921000", "171239.924000", "171239.926000", "171239.937000", "171239.940000", "171239.942000", "171239.945000", "171239.947000", "171239.950000", "171239.952000", "171239.955000", "171239.957000", "171239.960000", "171239.962000", "171239.965000", "171259.908000", "171259.911000", "171259.913000", "171259.916000", "171259.918000", "171259.921000", "171259.923000", "171259.926000", "171259.928000", "171259.931000", "171259.933000", "171259.936000", "171259.938000", "171259.940000", "171259.943000", "171259.945000", "171259.948000", "171259.950000", "171259.953000", "171259.955000", "171319.909000", "171319.911000", "171319.914000", "171319.917000", "171319.919000", "171319.922000", "171319.924000", "171319.927000", "171319.929000", "171319.932000", "171319.934000", "171319.937000", "171319.939000", "171319.942000", "171319.944000", "171319.947000", "171319.949000", "171319.952000", "171319.954000", "171319.957000", "171339.908000", "171339.911000", "171339.914000", "171339.916000", "171339.919000", "171339.921000", "171339.924000", "171339.926000", "171339.929000", "171339.931000", "171339.934000", "171339.936000", "171339.938000", "171339.941000", "171339.943000", "171339.946000", "171339.948000", "171339.951000", "171339.953000", "171339.956000", "171419.909000", "171419.911000", "171419.914000", "171419.916000", "171419.919000", "171419.921000", "171419.924000", "171419.926000", "171419.929000", "171419.943000", "171419.946000", "171419.948000", "171419.950000", "171419.953000", "171419.955000", "171419.958000", "171419.960000", "171419.963000", "171419.965000", "171419.968000", "171419.970000", "171419.972000", "171419.975000", "171419.977000", "171419.980000", "171419.982000", "171419.985000", "171419.987000", "171419.990000", "171419.992000", "171419.995000", "171419.997000", "171420.001000", "171420.003000", "171420.006000", "171420.008000", "171420.011000", "171420.013000", "171420.015000", "171420.018000", "171459.908000", "171459.911000", "171459.914000", "171459.916000", "171459.919000", "171459.921000", "171459.924000", "171459.926000", "171459.929000", "171459.931000", "171459.934000", "171459.936000", "171459.939000", "171459.941000", "171459.944000", "171459.946000", "171459.949000", "171459.951000", "171459.954000", "171459.956000", "171459.959000", "171459.961000", "171459.964000", "171459.966000", "171459.969000", "171459.971000", "171459.973000", "171459.976000", "171459.978000", "171459.981000", "171459.983000", "171459.986000", "171459.988000", "171459.991000", "171459.993000", "171459.996000", "171459.998000", "171500.001000", "171500.004000", "171500.006000", "171519.909000", "171519.912000", "171519.914000", "171519.916000", "171519.919000", "171519.922000", "171519.924000", "171519.927000", "171519.929000", "171519.932000", "171519.934000", "171519.937000", "171519.939000", "171519.942000", "171519.944000", "171519.947000", "171519.949000", "171519.952000", "171519.954000", "171519.957000", "171539.908000", "171539.911000", "171539.914000", "171539.916000", "171539.919000", "171539.921000", "171539.924000", "171539.926000", "171539.929000", "171539.932000", "171539.934000", "171539.936000", "171539.939000", "171539.941000", "171539.944000", "171539.946000", "171539.949000", "171539.952000", "171539.954000", "171539.956000", "171619.908000", "171619.911000", "171619.914000", "171619.916000", "171619.919000", "171619.922000", "171619.924000", "171619.927000", "171619.929000", "171619.932000", "171619.934000", "171619.937000", "171619.939000", "171619.942000", "171619.944000", "171619.947000", "171619.949000", "171619.952000", "171619.954000", "171619.957000", "171619.959000", "171619.962000", "171619.964000", "171619.967000", "171619.969000", "171619.972000", "171619.974000", "171619.977000", "171619.979000", "171619.982000", "171619.984000", "171619.987000", "171619.989000", "171619.992000", "171619.994000", "171619.997000", "171620.000000", "171620.003000", "171620.005000", "171620.008000", "171639.908000", "171639.911000", "171639.913000", "171639.916000", "171639.918000", "171639.921000", "171639.923000", "171639.926000", "171639.928000", "171639.931000", "171639.933000", "171639.936000", "171639.939000", "171639.942000", "171639.944000", "171639.947000", "171639.949000", "171639.951000", "171639.954000", "171639.957000", "171659.909000", "171659.911000", "171659.914000", "171659.916000", "171659.919000", "171659.921000", "171659.924000", "171659.926000", "171659.929000", "171659.931000", "171659.934000", "171659.936000", "171659.939000", "171659.941000", "171659.944000", "171659.946000", "171659.949000", "171659.951000", "171659.954000", "171719.907000", "171719.910000", "171719.913000", "171719.915000", "171719.918000", "171719.920000", "171719.923000", "171719.925000", "171719.927000", "171719.930000", "171719.932000", "171719.935000", "171719.937000", "171719.940000", "171719.942000", "171719.945000", "171719.947000", "171719.950000", "171719.953000", "171719.955000", "171719.958000", "171739.908000", "171739.911000", "171739.914000", "171739.916000", "171739.919000", "171739.921000", "171739.924000", "171739.926000", "171739.929000", "171739.931000", "171739.934000", "171739.936000", "171739.939000", "171739.941000", "171739.944000", "171739.946000", "171739.949000", "171739.952000", "171739.954000", "171739.956000", "171759.908000", "171759.911000", "171759.914000", "171759.916000", "171759.919000", "171759.922000", "171759.924000", "171759.927000", "171759.929000", "171759.932000", "171759.934000", "171759.937000", "171759.939000", "171759.942000", "171759.944000", "171759.947000", "171759.949000", "171759.952000", "171759.954000", "171759.957000", "171819.908000", "171819.911000", "171819.914000", "171819.916000", "171819.919000", "171819.921000", "171819.924000", "171819.926000", "171819.929000", "171819.931000", "171819.934000", "171819.936000", "171819.939000", "171819.941000", "171819.944000", "171819.946000", "171819.948000", "171819.951000", "171819.954000", "171819.956000", "171837.556000", "171837.559000", "171837.562000", "171837.565000", "171837.567000", "171837.570000", "171837.573000", "171837.576000", "171837.578000", "171837.581000", "171837.584000", "171837.587000", "171837.590000", "171837.592000", "171837.595000", "171837.597000", "171837.600000"],
