{
  "AcquisitionMatrixPE": 106,
  "AcquisitionNumber": 1,
  "AcquisitionTime": "12:34:20.135000",
  "BandwidthPerPixelPhaseEncode": 16.846,
  "BaseResolution": 106,
  "BodyPartExamined": "BRAIN",
  "CoilCombinationMethod": "Sum of Squares",
  "ConsistencyInfo": "N4_VE11C_LATEST_20160120",
  "ConversionSoftware": "dcm2niix",
  "ConversionSoftwareVersion": "v1.0.20220720",
  "DerivedVendorReportedEchoSpacing": 0.000560012,
  "DeviceSerialNumber": "166108",
  "DwellTime": 1.8e-06,
  "EchoTime": 0.0352,
  "EchoTrainLength": 106,
  "EffectiveEchoSpacing": 0.000560012,
  "FlipAngle": 60,
  "HeudiconvVersion": "1.3.0",
  "ImageComments": "Unaliased MB4/PE3/LB",
  "ImageOrientationPatientDICOM": [1, 0, 0, 0, 1, 0],
  "ImageOrientationText": "Tra",
  "ImageType": [
    "ORIGINAL",
    "PRIMARY",
    "M",
    "MB",
    "ND",
    "MOSAIC"
],
  "ImagingFrequency": 123.244,
  "InPlanePhaseEncodingDirectionDICOM": "COL",
  "InstitutionAddress": "Bedford Way 26,London,London,GB,WC1H 0AP",
  "InstitutionName": "University College",
  "InstitutionalDepartmentName": "Department",
  "MRAcquisitionType": "2D",
  "MagneticFieldStrength": 3,
  "Manufacturer": "Siemens",
  "ManufacturersModelName": "Prisma",
  "MatrixCoilMode": "SENSE",
  "Modality": "MR",
  "MultibandAccelerationFactor": 4,
  "NonlinearGradientCorrection": false,
  "PartialFourier": 1,
  "PatientPosition": "HFS",
  "PercentPhaseFOV": 100,
  "PercentSampling": 100,
  "PhaseEncodingDirection": "j-",
  "PhaseEncodingSteps": 106,
  "PhaseResolution": 1,
  "PixelBandwidth": 2620,
  "ProcedureStepDescription": "Egor^MovieProject2",
  "ProtocolName": "task-backtothefuture_run-3",
  "PulseSequenceDetails": "%CustomerSeq%\\cmrr_mbep2d_bold",
  "ReceiveCoilActiveElements": "HEA;HEP",
  "ReceiveCoilName": "Head_32",
  "ReconMatrixPE": 106,
  "RepetitionTime": 1.5,
  "SAR": 0.0753787,
  "ScanOptions": "FS\\EXT",
  "ScanningSequence": "EP",
  "SequenceName": "epfid2d1_106",
  "SequenceVariant": "SK\\SS",
  "SeriesDescription": "task-backtothefuture_run-3",
  "SeriesNumber": 11,
  "ShimSetting": [-1524, 672, 7367, 19, -125, 287, 120, -48],
  "SliceThickness": 2,
  "SliceTiming": [0, 1.07, 0.6575, 0.2475, 1.315, 0.905, 0.4925, 0.0825, 1.15, 0.74, 0.33, 1.3975, 0.9875, 0.575, 0.165, 1.2325, 0.8225, 0.41, 0, 1.07, 0.6575, 0.2475, 1.315, 0.905, 0.4925, 0.0825, 1.15, 0.74, 0.33, 1.3975, 0.9875, 0.575, 0.165, 1.2325, 0.8225, 0.41, 0, 1.07, 0.6575, 0.2475, 1.315, 0.905, 0.4925, 0.0825, 1.15, 0.74, 0.33, 1.3975, 0.9875, 0.575, 0.165, 1.2325, 0.8225, 0.41, 0, 1.07, 0.6575, 0.2475, 1.315, 0.905, 0.4925, 0.0825, 1.15, 0.74, 0.33, 1.3975, 0.9875, 0.575, 0.165, 1.2325, 0.8225, 0.41],
  "SoftwareVersions": "syngo MR E11",
  "SpacingBetweenSlices": 2,
  "StationName": "AWP166108",
  "TaskName": "backtothefuture",
  "TotalReadoutTime": 0.0588013,
  "TxRefAmp": 242.771,
  "WipMemBlock": "e72cf71a-6b1a-4576-bbbb-ec96c5823aef||Sequence: R016 ve11c/master r/e634e98; Dec 19 2017 11:00:25 by eja",
  "dcmmeta_affine": [
    [-2.0, 0.0, 0.0, 106.0],
    [0.0, 2.0, 0.0, -90.74698638916016],
    [0.0, 0.0, 2.0, -63.77108383178711],
    [0.0, 0.0, 0.0, 1.0]
],
  "dcmmeta_reorient_transform": [
    [0.0, -1.0, 0.0, 105.0],
    [1.0, 0.0, 0.0, 0.0],
    [0.0, 0.0, 1.0, 0.0],
    [0.0, 0.0, 0.0, 1.0]
],
  "dcmmeta_shape": [106, 106, 72, 1608],
  "dcmmeta_slice_dim": 2,
  "dcmmeta_version": 0.6,
  "global": {
    "const": {
      "AcquisitionMatrix": [106, 0, 0, 106],
      "AngioFlag": "N",
      "BitsAllocated": 16,
      "BitsStored": 16,
      "BodyPartExamined": "BRAIN",
      "CardiacNumberOfImages": 1,
      "Columns": 954,
      "EchoNumbers": 1,
      "EchoTime": 35.2,
      "EchoTrainLength": 106,
      "FlipAngle": 60.0,
      "HighBit": 15,
      "ImageOrientationPatient": [1.0, 0.0, 0.0, 0.0, 1.0, 0.0],
      "ImagePositionPatient": [-954.0, -967.25301170349, -63.771083831787],
      "ImageType": [
        "ORIGINAL",
        "PRIMARY",
        "M",
        "MB",
        "ND",
        "MOSAIC"
],
      "ImagedNucleus": "1H",
      "ImagingFrequency": 123.243683,
      "InPlanePhaseEncodingDirection": "COL",
      "MRAcquisitionType": "2D",
      "MagneticFieldStrength": 3.0,
      "Manufacturer": "SIEMENS",
      "ManufacturerModelName": "Prisma",
      "Modality": "MR",
      "NominalInterval": 0,
      "NumberOfAverages": 1.0,
      "NumberOfPhaseEncodingSteps": 106,
      "PercentPhaseFieldOfView": 100.0,
      "PercentSampling": 100.0,
      "PerformedProcedureStepStartTime": "104010.407000",
      "PhotometricInterpretation": "MONOCHROME2",
      "PixelBandwidth": 2620.0,
      "PixelRepresentation": 0,
      "PixelSpacing": [2.0, 2.0],
      "ProtocolName": "task-backtothefuture_run-3",
      "RepetitionTime": 1500.0,
      "Rows": 954,
      "SAR": 0.07537870195942,
      "SamplesPerPixel": 1,
      "ScanOptions": [
        "FS",
        "EXT"
],
      "ScanningSequence": "EP",
      "SequenceName": "epfid2d1_106",
      "SequenceVariant": [
        "SK",
        "SS"
],
      "SeriesDescription": "task-backtothefuture_run-3",
      "SeriesNumber": 11,
      "SeriesTime": "123502.624000",
      "SliceLocation": -63.771083831787,
      "SliceThickness": 2.0,
      "SmallestImagePixelValue": 0,
      "SoftwareVersions": "syngo MR E11",
      "SpacingBetweenSlices": 1.9999999462719,
      "SpecificCharacterSet": "ISO_IR 100",
      "StudyID": "1",
      "StudyTime": "104010.359000",
      "TransmitCoilName": "Body",
      "VariableFlipAngleFlag": "N",
      "WindowCenterWidthExplanation": "Algo1",
      "dBdt": 0.0},
    "slices": {}
  },
  "time": {
    "samples": {
      "AcquisitionNumber": [1, 2, 3, 4, 5, 6, 7, 8, 9, 10, 11, 12, 13, 14, 15, 16, 17, 18, 19, 20, 21, 22, 23, 24, 25, 26, 27, 28, 29, 30, 31, 32, 33, 34, 35, 36, 37, 38, 39, 40, 41, 42, 43, 44, 45, 46, 47, 48, 49, 50, 51, 52, 53, 54, 55, 56, 57, 58, 59, 60, 61, 62, 63, 64, 65, 66, 67, 68, 69, 70, 71, 72, 73, 74, 75, 76, 77, 78, 79, 80, 81, 82, 83, 84, 85, 86, 87, 88, 89, 90, 91, 92, 93, 94, 95, 96, 97, 98, 99, 100, 101, 102, 103, 104, 105, 106, 107, 108, 109, 110, 111, 112, 113, 114, 115, 116, 117, 118, 119, 120, 121, 122, 123, 124, 125, 126, 127, 128, 129, 130, 131, 132, 133, 134, 135, 136, 137, 138, 139, 140, 141, 142, 143, 144, 145, 146, 147, 148, 149, 150, 151, 152, 153, 154, 155, 156, 157, 158, 159, 160, 161, 162, 163, 164, 165, 166, 167, 168, 169, 170, 171, 172, 173, 174, 175, 176, 177, 178, 179, 180, 181, 182, 183, 184, 185, 186, 187, 188, 189, 190, 191, 192, 193, 194, 195, 196, 197, 198, 199, 200, 201, 202, 203, 204, 205, 206, 207, 208, 209, 210, 211, 212, 213, 214, 215, 216, 217, 218, 219, 220, 221, 222, 223, 224, 225, 226, 227, 228, 229, 230, 231, 232, 233, 234, 235, 236, 237, 238, 239, 240, 241, 242, 243, 244, 245, 246, 247, 248, 249, 250, 251, 252, 253, 254, 255, 256, 257, 258, 259, 260, 261, 262, 263, 264, 265, 266, 267, 268, 269, 270, 271, 272, 273, 274, 275, 276, 277, 278, 279, 280, 281, 282, 283, 284, 285, 286, 287, 288, 289, 290, 291, 292, 293, 294, 295, 296, 297, 298, 299, 300, 301, 302, 303, 304, 305, 306, 307, 308, 309, 310, 311, 312, 313, 314, 315, 316, 317, 318, 319, 320, 321, 322, 323, 324, 325, 326, 327, 328, 329, 330, 331, 332, 333, 334, 335, 336, 337, 338, 339, 340, 341, 342, 343, 344, 345, 346, 347, 348, 349, 350, 351, 352, 353, 354, 355, 356, 357, 358, 359, 360, 361, 362, 363, 364, 365, 366, 367, 368, 369, 370, 371, 372, 373, 374, 375, 376, 377, 378, 379, 380, 381, 382, 383, 384, 385, 386, 387, 388, 389, 390, 391, 392, 393, 394, 395, 396, 397, 398, 399, 400, 401, 402, 403, 404, 405, 406, 407, 408, 409, 410, 411, 412, 413, 414, 415, 416, 417, 418, 419, 420, 421, 422, 423, 424, 425, 426, 427, 428, 429, 430, 431, 432, 433, 434, 435, 436, 437, 438, 439, 440, 441, 442, 443, 444, 445, 446, 447, 448, 449, 450, 451, 452, 453, 454, 455, 456, 457, 458, 459, 460, 461, 462, 463, 464, 465, 466, 467, 468, 469, 470, 471, 472, 473, 474, 475, 476, 477, 478, 479, 480, 481, 482, 483, 484, 485, 486, 487, 488, 489, 490, 491, 492, 493, 494, 495, 496, 497, 498, 499, 500, 501, 502, 503, 504, 505, 506, 507, 508, 509, 510, 511, 512, 513, 514, 515, 516, 517, 518, 519, 520, 521, 522, 523, 524, 525, 526, 527, 528, 529, 530, 531, 532, 533, 534, 535, 536, 537, 538, 539, 540, 541, 542, 543, 544, 545, 546, 547, 548, 549, 550, 551, 552, 553, 554, 555, 556, 557, 558, 559, 560, 561, 562, 563, 564, 565, 566, 567, 568, 569, 570, 571, 572, 573, 574, 575, 576, 577, 578, 579, 580, 581, 582, 583, 584, 585, 586, 587, 588, 589, 590, 591, 592, 593, 594, 595, 596, 597, 598, 599, 600, 601, 602, 603, 604, 605, 606, 607, 608, 609, 610, 611, 612, 613, 614, 615, 616, 617, 618, 619, 620, 621, 622, 623, 624, 625, 626, 627, 628, 629, 630, 631, 632, 633, 634, 635, 636, 637, 638, 639, 640, 641, 642, 643, 644, 645, 646, 647, 648, 649, 650, 651, 652, 653, 654, 655, 656, 657, 658, 659, 660, 661, 662, 663, 664, 665, 666, 667, 668, 669, 670, 671, 672, 673, 674, 675, 676, 677, 678, 679, 680, 681, 682, 683, 684, 685, 686, 687, 688, 689, 690, 691, 692, 693, 694, 695, 696, 697, 698, 699, 700, 701, 702, 703, 704, 705, 706, 707, 708, 709, 710, 711, 712, 713, 714, 715, 716, 717, 718, 719, 720, 721, 722, 723, 724, 725, 726, 727, 728, 729, 730, 731, 732, 733, 734, 735, 736, 737, 738, 739, 740, 741, 742, 743, 744, 745, 746, 747, 748, 749, 750, 751, 752, 753, 754, 755, 756, 757, 758, 759, 760, 761, 762, 763, 764, 765, 766, 767, 768, 769, 770, 771, 772, 773, 774, 775, 776, 777, 778, 779, 780, 781, 782, 783, 784, 785, 786, 787, 788, 789, 790, 791, 792, 793, 794, 795, 796, 797, 798, 799, 800, 801, 802, 803, 804, 805, 806, 807, 808, 809, 810, 811, 812, 813, 814, 815, 816, 817, 818, 819, 820, 821, 822, 823, 824, 825, 826, 827, 828, 829, 830, 831, 832, 833, 834, 835, 836, 837, 838, 839, 840, 841, 842, 843, 844, 845, 846, 847, 848, 849, 850, 851, 852, 853, 854, 855, 856, 857, 858, 859, 860, 861, 862, 863, 864, 865, 866, 867, 868, 869, 870, 871, 872, 873, 874, 875, 876, 877, 878, 879, 880, 881, 882, 883, 884, 885, 886, 887, 888, 889, 890, 891, 892, 893, 894, 895, 896, 897, 898, 899, 900, 901, 902, 903, 904, 905, 906, 907, 908, 909, 910, 911, 912, 913, 914, 915, 916, 917, 918, 919, 920, 921, 922, 923, 924, 925, 926, 927, 928, 929, 930, 931, 932, 933, 934, 935, 936, 937, 938, 939, 940, 941, 942, 943, 944, 945, 946, 947, 948, 949, 950, 951, 952, 953, 954, 955, 956, 957, 958, 959, 960, 961, 962, 963, 964, 965, 966, 967, 968, 969, 970, 971, 972, 973, 974, 975, 976, 977, 978, 979, 980, 981, 982, 983, 984, 985, 986, 987, 988, 989, 990, 991, 992, 993, 994, 995, 996, 997, 998, 999, 1000, 1001, 1002, 1003, 1004, 1005, 1006, 1007, 1008, 1009, 1010, 1011, 1012, 1013, 1014, 1015, 1016, 1017, 1018, 1019, 1020, 1021, 1022, 1023, 1024, 1025, 1026, 1027, 1028, 1029, 1030, 1031, 1032, 1033, 1034, 1035, 1036, 1037, 1038, 1039, 1040, 1041, 1042, 1043, 1044, 1045, 1046, 1047, 1048, 1049, 1050, 1051, 1052, 1053, 1054, 1055, 1056, 1057, 1058, 1059, 1060, 1061, 1062, 1063, 1064, 1065, 1066, 1067, 1068, 1069, 1070, 1071, 1072, 1073, 1074, 1075, 1076, 1077, 1078, 1079, 1080, 1081, 1082, 1083, 1084, 1085, 1086, 1087, 1088, 1089, 1090, 1091, 1092, 1093, 1094, 1095, 1096, 1097, 1098, 1099, 1100, 1101, 1102, 1103, 1104, 1105, 1106, 1107, 1108, 1109, 1110, 1111, 1112, 1113, 1114, 1115, 1116, 1117, 1118, 1119, 1120, 1121, 1122, 1123, 1124, 1125, 1126, 1127, 1128, 1129, 1130, 1131, 1132, 1133, 1134, 1135, 1136, 1137, 1138, 1139, 1140, 1141, 1142, 1143, 1144, 1145, 1146, 1147, 1148, 1149, 1150, 1151, 1152, 1153, 1154, 1155, 1156, 1157, 1158, 1159, 1160, 1161, 1162, 1163, 1164, 1165, 1166, 1167, 1168, 1169, 1170, 1171, 1172, 1173, 1174, 1175, 1176, 1177, 1178, 1179, 1180, 1181, 1182, 1183, 1184, 1185, 1186, 1187, 1188, 1189, 1190, 1191, 1192, 1193, 1194, 1195, 1196, 1197, 1198, 1199, 1200, 1201, 1202, 1203, 1204, 1205, 1206, 1207, 1208, 1209, 1210, 1211, 1212, 1213, 1214, 1215, 1216, 1217, 1218, 1219, 1220, 1221, 1222, 1223, 1224, 1225, 1226, 1227, 1228, 1229, 1230, 1231, 1232, 1233, 1234, 1235, 1236, 1237, 1238, 1239, 1240, 1241, 1242, 1243, 1244, 1245, 1246, 1247, 1248, 1249, 1250, 1251, 1252, 1253, 1254, 1255, 1256, 1257, 1258, 1259, 1260, 1261, 1262, 1263, 1264, 1265, 1266, 1267, 1268, 1269, 1270, 1271, 1272, 1273, 1274, 1275, 1276, 1277, 1278, 1279, 1280, 1281, 1282, 1283, 1284, 1285, 1286, 1287, 1288, 1289, 1290, 1291, 1292, 1293, 1294, 1295, 1296, 1297, 1298, 1299, 1300, 1301, 1302, 1303, 1304, 1305, 1306, 1307, 1308, 1309, 1310, 1311, 1312, 1313, 1314, 1315, 1316, 1317, 1318, 1319, 1320, 1321, 1322, 1323, 1324, 1325, 1326, 1327, 1328, 1329, 1330, 1331, 1332, 1333, 1334, 1335, 1336, 1337, 1338, 1339, 1340, 1341, 1342, 1343, 1344, 1345, 1346, 1347, 1348, 1349, 1350, 1351, 1352, 1353, 1354, 1355, 1356, 1357, 1358, 1359, 1360, 1361, 1362, 1363, 1364, 1365, 1366, 1367, 1368, 1369, 1370, 1371, 1372, 1373, 1374, 1375, 1376, 1377, 1378, 1379, 1380, 1381, 1382, 1383, 1384, 1385, 1386, 1387, 1388, 1389, 1390, 1391, 1392, 1393, 1394, 1395, 1396, 1397, 1398, 1399, 1400, 1401, 1402, 1403, 1404, 1405, 1406, 1407, 1408, 1409, 1410, 1411, 1412, 1413, 1414, 1415, 1416, 1417, 1418, 1419, 1420, 1421, 1422, 1423, 1424, 1425, 1426, 1427, 1428, 1429, 1430, 1431, 1432, 1433, 1434, 1435, 1436, 1437, 1438, 1439, 1440, 1441, 1442, 1443, 1444, 1445, 1446, 1447, 1448, 1449, 1450, 1451, 1452, 1453, 1454, 1455, 1456, 1457, 1458, 1459, 1460, 1461, 1462, 1463, 1464, 1465, 1466, 1467, 1468, 1469, 1470, 1471, 1472, 1473, 1474, 1475, 1476, 1477, 1478, 1479, 1480, 1481, 1482, 1483, 1484, 1485, 1486, 1487, 1488, 1489, 1490, 1491, 1492, 1493, 1494, 1495, 1496, 1497, 1498, 1499, 1500, 1501, 1502, 1503, 1504, 1505, 1506, 1507, 1508, 1509, 1510, 1511, 1512, 1513, 1514, 1515, 1516, 1517, 1518, 1519, 1520, 1521, 1522, 1523, 1524, 1525, 1526, 1527, 1528, 1529, 1530, 1531, 1532, 1533, 1534, 1535, 1536, 1537, 1538, 1539, 1540, 1541, 1542, 1543, 1544, 1545, 1546, 1547, 1548, 1549, 1550, 1551, 1552, 1553, 1554, 1555, 1556, 1557, 1558, 1559, 1560, 1561, 1562, 1563, 1564, 1565, 1566, 1567, 1568, 1569, 1570, 1571, 1572, 1573, 1574, 1575, 1576, 1577, 1578, 1579, 1580, 1581, 1582, 1583, 1584, 1585, 1586, 1587, 1588, 1589, 1590, 1591, 1592, 1593, 1594, 1595, 1596, 1597, 1598, 1599, 1600, 1601, 1602, 1603, 1604, 1605, 1606, 1607, 1608],
      "AcquisitionTime": ["123420.135000", "123421.635000", "123423.135000", "123424.635000", "123426.135000", "123427.635000", "123429.135000", "123430.635000", "123432.135000", "123433.635000", "123435.135000", "123436.635000", "123438.135000", "123439.635000", "123441.135000", "123442.635000", "123444.135000", "123445.635000", "123447.135000", "123448.635000", "123450.135000", "123451.635000", "123453.135000", "123454.635000", "123456.135000", "123457.635000", "123459.135000", "123500.635000", "123502.135000", "123503.635000", "123505.135000", "123506.635000", "123508.135000", "123509.635000", "123511.135000", "123512.635000", "123514.135000", "123515.635000", "123517.135000", "123518.635000", "123520.135000", "123521.635000", "123523.135000", "123524.635000", "123526.135000", "123527.635000", "123529.135000", "123530.635000", "123532.135000", "123533.635000", "123535.135000", "123536.635000", "123538.135000", "123539.635000", "123541.135000", "123542.635000", "123544.135000", "123545.635000", "123547.135000", "123548.635000", "123550.135000", "123551.635000", "123553.135000", "123554.635000", "123556.135000", "123557.635000", "123559.135000", "123600.635000", "123602.135000", "123603.635000", "123605.135000", "123606.635000", "123608.135000", "123609.635000", "123611.135000", "123612.635000", "123614.135000", "123615.635000", "123617.135000", "123618.635000", "123620.135000", "123621.635000", "123623.135000", "123624.635000", "123626.135000", "123627.635000", "123629.135000", "123630.635000", "123632.135000", "123633.635000", "123635.135000", "123636.635000", "123638.135000", "123639.635000", "123641.135000", "123642.635000", "123644.135000", "123645.635000", "123647.135000", "123648.635000", "123650.135000", "123651.635000", "123653.135000", "123654.635000", "123656.135000", "123657.635000", "123659.135000", "123700.635000", "123702.135000", "123703.635000", "123705.135000", "123706.635000", "123708.135000", "123709.635000", "123711.135000", "123712.635000", "123714.135000", "123715.635000", "123717.135000", "123718.635000", "123720.135000", "123721.635000", "123723.135000", "123724.635000", "123726.135000", "123727.635000", "123729.135000", "123730.635000", "123732.135000", "123733.635000", "123735.135000", "123736.635000", "123738.135000", "123739.635000", "123741.135000", "123742.635000", "123744.135000", "123745.635000", "123747.135000", "123748.635000", "123750.135000", "123751.635000", "123753.135000", "123754.635000", "123756.135000", "123757.635000", "123759.135000", "123800.635000", "123802.135000", "123803.635000", "123805.135000", "123806.635000", "123808.135000", "123809.635000", "123811.135000", "123812.635000", "123814.135000", "123815.635000", "123817.135000", "123818.635000", "123820.135000", "123821.635000", "123823.135000", "123824.635000", "123826.135000", "123827.635000", "123829.135000", "123830.635000", "123832.135000", "123833.635000", "123835.135000", "123836.635000", "123838.135000", "123839.635000", "123841.135000", "123842.635000", "123844.135000", "123845.635000", "123847.135000", "123848.635000", "123850.135000", "123851.635000", "123853.135000", "123854.635000", "123856.135000", "123857.635000", "123859.135000", "123900.635000", "123902.135000", "123903.635000", "123905.135000", "123906.635000", "123908.135000", "123909.635000", "123911.135000", "123912.635000", "123914.135000", "123915.635000", "123917.135000", "123918.635000", "123920.135000", "123921.635000", "123923.135000", "123924.635000", "123926.135000", "123927.635000", "123929.135000", "123930.635000", "123932.135000", "123933.635000", "123935.135000", "123936.635000", "123938.135000", "123939.635000", "123941.135000", "123942.635000", "123944.135000", "123945.635000", "123947.135000", "123948.635000", "123950.135000", "123951.635000", "123953.135000", "123954.635000", "123956.135000", "123957.635000", "123959.135000", "124000.635000", "124002.135000", "124003.635000", "124005.135000", "124006.635000", "124008.135000", "124009.635000", "124011.135000", "124012.635000", "124014.135000", "124015.635000", "124017.135000", "124018.635000", "124020.135000", "124021.635000", "124023.135000", "124024.635000", "124026.135000", "124027.635000", "124029.135000", "124030.635000", "124032.135000", "124033.635000", "124035.135000", "124036.635000", "124038.135000", "124039.635000", "124041.135000", "124042.635000", "124044.135000", "124045.635000", "124047.135000", "124048.635000", "124050.135000", "124051.635000", "124053.135000", "124054.635000", "124056.135000", "124057.635000", "124059.135000", "124100.635000", "124102.135000", "124103.635000", "124105.135000", "124106.635000", "124108.135000", "124109.635000", "124111.135000", "124112.635000", "124114.135000", "124115.635000", "124117.135000", "124118.635000", "124120.135000", "124121.635000", "124123.135000", "124124.635000", "124126.135000", "124127.635000", "124129.135000", "124130.635000", "124132.135000", "124133.635000", "124135.135000", "124136.635000", "124138.135000", "124139.635000", "124141.135000", "124142.635000", "124144.135000", "124145.635000", "124147.135000", "124148.635000", "124150.135000", "124151.635000", "124153.135000", "124154.635000", "124156.135000", "124157.635000", "124159.135000", "124200.635000", "124202.135000", "124203.635000", "124205.135000", "124206.635000", "124208.135000", "124209.635000", "124211.135000", "124212.635000", "124214.135000", "124215.635000", "124217.135000", "124218.635000", "124220.135000", "124221.635000", "124223.135000", "124224.635000", "124226.135000", "124227.635000", "124229.135000", "124230.635000", "124232.135000", "124233.635000", "124235.135000", "124236.635000", "124238.135000", "124239.635000", "124241.135000", "124242.635000", "124244.135000", "124245.635000", "124247.135000", "124248.635000", "124250.135000", "124251.635000", "124253.135000", "124254.635000", "124256.135000", "124257.635000", "124259.135000", "124300.635000", "124302.135000", "124303.635000", "124305.135000", "124306.635000", "124308.135000", "124309.635000", "124311.135000", "124312.635000", "124314.135000", "124315.635000", "124317.135000", "124318.635000", "124320.135000", "124321.635000", "124323.135000", "124324.635000", "124326.135000", "124327.635000", "124329.135000", "124330.635000", "124332.135000", "124333.635000", "124335.135000", "124336.635000", "124338.135000", "124339.635000", "124341.135000", "124342.635000", "124344.135000", "124345.635000", "124347.135000", "124348.635000", "124350.135000", "124351.635000", "124353.135000", "124354.635000", "124356.135000", "124357.635000", "124359.135000", "124400.635000", "124402.135000", "124403.635000", "124405.135000", "124406.635000", "124408.135000", "124409.635000", "124411.135000", "124412.635000", "124414.135000", "124415.635000", "124417.135000", "124418.635000", "124420.135000", "124421.635000", "124423.135000", "124424.635000", "124426.135000", "124427.635000", "124429.135000", "124430.635000", "124432.135000", "124433.635000", "124435.135000", "124436.635000", "124438.135000", "124439.635000", "124441.135000", "124442.635000", "124444.135000", "124445.635000", "124447.135000", "124448.635000", "124450.135000", "124451.635000", "124453.135000", "124454.635000", "124456.135000", "124457.635000", "124459.135000", "124500.635000", "124502.135000", "124503.635000", "124505.135000", "124506.635000", "124508.135000", "124509.635000", "124511.135000", "124512.635000", "124514.135000", "124515.635000", "124517.135000", "124518.635000", "124520.135000", "124521.635000", "124523.135000", "124524.635000", "124526.135000", "124527.635000", "124529.135000", "124530.635000", "124532.135000", "124533.635000", "124535.135000", "124536.635000", "124538.135000", "124539.635000", "124541.135000", "124542.635000", "124544.135000", "124545.635000", "124547.135000", "124548.635000", "124550.135000", "124551.635000", "124553.135000", "124554.635000", "124556.135000", "124557.635000", "124559.135000", "124600.635000", "124602.135000", "124603.635000", "124605.135000", "124606.635000", "124608.135000", "124609.635000", "124611.135000", "124612.635000", "124614.135000", "124615.635000", "124617.135000", "124618.635000", "124620.135000", "124621.635000", "124623.135000", "124624.635000", "124626.135000", "124627.635000", "124629.135000", "124630.635000", "124632.135000", "124633.635000", "124635.135000", "124636.635000", "124638.135000", "124639.635000", "124641.135000", "124642.635000", "124644.135000", "124645.635000", "124647.135000", "124648.635000", "124650.135000", "124651.635000", "124653.135000", "124654.635000", "124656.135000", "124657.635000", "124659.135000", "124700.635000", "124702.135000", "124703.635000", "124705.135000", "124706.635000", "124708.135000", "124709.635000", "124711.135000", "124712.635000", "124714.135000", "124715.635000", "124717.135000", "124718.635000", "124720.135000", "124721.635000", "124723.135000", "124724.635000", "124726.135000", "124727.635000", "124729.135000", "124730.635000", "124732.135000", "124733.635000", "124735.135000", "124736.635000", "124738.135000", "124739.635000", "124741.135000", "124742.635000", "124744.135000", "124745.635000", "124747.135000", "124748.635000", "124750.135000", "124751.635000", "124753.135000", "124754.635000", "124756.135000", "124757.635000", "124759.135000", "124800.635000", "124802.135000", "124803.635000", "124805.135000", "124806.635000", "124808.135000", "124809.635000", "124811.135000", "124812.635000", "124814.135000", "124815.635000", "124817.135000", "124818.635000", "124820.135000", "124821.635000", "124823.135000", "124824.635000", "124826.135000", "124827.635000", "124829.135000", "124830.635000", "124832.135000", "124833.635000", "124835.135000", "124836.635000", "124838.135000", "124839.635000", "124841.135000", "124842.635000", "124844.135000", "124845.635000", "124847.135000", "124848.635000", "124850.135000", "124851.635000", "124853.135000", "124854.635000", "124856.135000", "124857.635000", "124859.135000", "124900.635000", "124902.135000", "124903.635000", "124905.135000", "124906.635000", "124908.135000", "124909.635000", "124911.135000", "124912.635000", "124914.135000", "124915.635000", "124917.135000", "124918.635000", "124920.135000", "124921.635000", "124923.135000", "124924.635000", "124926.135000", "124927.635000", "124929.135000", "124930.635000", "124932.135000", "124933.635000", "124935.135000", "124936.635000", "124938.135000", "124939.635000", "124941.135000", "124942.635000", "124944.135000", "124945.635000", "124947.135000", "124948.635000", "124950.135000", "124951.635000", "124953.135000", "124954.635000", "124956.135000", "124957.635000", "124959.135000", "125000.635000", "125002.135000", "125003.635000", "125005.135000", "125006.635000", "125008.135000", "125009.635000", "125011.135000", "125012.635000", "125014.135000", "125015.635000", "125017.135000", "125018.635000", "125020.135000", "125021.635000", "125023.135000", "125024.635000", "125026.135000", "125027.635000", "125029.135000", "125030.635000", "125032.135000", "125033.635000", "125035.135000", "125036.635000", "125038.135000", "125039.635000", "125041.135000", "125042.635000", "125044.135000", "125045.635000", "125047.135000", "125048.635000", "125050.135000", "125051.635000", "125053.135000", "125054.635000", "125056.135000", "125057.635000", "125059.135000", "125100.635000", "125102.135000", "125103.635000", "125105.135000", "125106.635000", "125108.135000", "125109.635000", "125111.135000", "125112.635000", "125114.135000", "125115.635000", "125117.135000", "125118.635000", "125120.135000", "125121.635000", "125123.135000", "125124.635000", "125126.135000", "125127.635000", "125129.135000", "125130.635000", "125132.135000", "125133.635000", "125135.135000", "125136.635000", "125138.135000", "125139.635000", "125141.135000", "125142.635000", "125144.135000", "125145.635000", "125147.135000", "125148.635000", "125150.135000", "125151.635000", "125153.135000", "125154.635000", "125156.135000", "125157.635000", "125159.135000", "125200.635000", "125202.135000", "125203.635000", "125205.135000", "125206.635000", "125208.135000", "125209.635000", "125211.135000", "125212.635000", "125214.135000", "125215.635000", "125217.135000", "125218.635000", "125220.135000", "125221.635000", "125223.135000", "125224.635000", "125226.135000", "125227.635000", "125229.135000", "125230.635000", "125232.135000", "125233.635000", "125235.135000", "125236.635000", "125238.135000", "125239.635000", "125241.135000", "125242.635000", "125244.135000", "125245.635000", "125247.135000", "125248.635000", "125250.135000", "125251.635000", "125253.135000", "125254.635000", "125256.135000", "125257.635000", "125259.135000", "125300.635000", "125302.135000", "125303.635000", "125305.135000", "125306.635000", "125308.135000", "125309.635000", "125311.135000", "125312.635000", "125314.135000", "125315.635000", "125317.135000", "125318.635000", "125320.135000", "125321.635000", "125323.135000", "125324.635000", "125326.135000", "125327.635000", "125329.135000", "125330.635000", "125332.135000", "125333.635000", "125335.135000", "125336.635000", "125338.135000", "125339.635000", "125341.135000", "125342.635000", "125344.135000", "125345.635000", "125347.135000", "125348.635000", "125350.135000", "125351.635000", "125353.135000", "125354.635000", "125356.135000", "125357.635000", "125359.135000", "125400.635000", "125402.135000", "125403.635000", "125405.135000", "125406.635000", "125408.135000", "125409.635000", "125411.135000", "125412.635000", "125414.135000", "125415.635000", "125417.135000", "125418.635000", "125420.135000", "125421.635000", "125423.135000", "125424.635000", "125426.135000", "125427.635000", "125429.135000", "125430.635000", "125432.135000", "125433.635000", "125435.135000", "125436.635000", "125438.135000", "125439.635000", "125441.135000", "125442.635000", "125444.135000", "125445.635000", "125447.135000", "125448.635000", "125450.135000", "125451.635000", "125453.135000", "125454.635000", "125456.135000", "125457.635000", "125459.135000", "125500.635000", "125502.135000", "125503.635000", "125505.135000", "125506.635000", "125508.135000", "125509.635000", "125511.135000", "125512.635000", "125514.135000", "125515.635000", "125517.135000", "125518.635000", "125520.135000", "125521.635000", "125523.135000", "125524.635000", "125526.135000", "125527.635000", "125529.135000", "125530.635000", "125532.135000", "125533.635000", "125535.135000", "125536.635000", "125538.135000", "125539.635000", "125541.135000", "125542.635000", "125544.135000", "125545.635000", "125547.135000", "125548.635000", "125550.135000", "125551.635000", "125553.135000", "125554.635000", "125556.135000", "125557.635000", "125559.135000", "125600.635000", "125602.135000", "125603.635000", "125605.135000", "125606.635000", "125608.135000", "125609.635000", "125611.135000", "125612.635000", "125614.135000", "125615.635000", "125617.135000", "125618.635000", "125620.135000", "125621.635000", "125623.135000", "125624.635000", "125626.135000", "125627.635000", "125629.135000", "125630.635000", "125632.135000", "125633.635000", "125635.135000", "125636.635000", "125638.135000", "125639.635000", "125641.135000", "125642.635000", "125644.135000", "125645.635000", "125647.135000", "125648.635000", "125650.135000", "125651.635000", "125653.135000", "125654.635000", "125656.135000", "125657.635000", "125659.135000", "125700.635000", "125702.135000", "125703.635000", "125705.135000", "125706.635000", "125708.135000", "125709.635000", "125711.135000", "125712.635000", "125714.135000", "125715.635000", "125717.135000", "125718.635000", "125720.135000", "125721.635000", "125723.135000", "125724.635000", "125726.135000", "125727.635000", "125729.135000", "125730.635000", "125732.135000", "125733.635000", "125