{
  "AcquisitionMatrixPE": 106,
  "AcquisitionNumber": 1,
  "AcquisitionTime": "11:52:24.062500",
  "BandwidthPerPixelPhaseEncode": 16.846,
  "BaseResolution": 106,
  "BodyPartExamined": "BRAIN",
  "CoilCombinationMethod": "Sum of Squares",
  "ConsistencyInfo": "N4_VE11C_LATEST_20160120",
  "ConversionSoftware": "dcm2niix",
  "ConversionSoftwareVersion": "v1.0.20220720",
  "DerivedVendorReportedEchoSpacing": 0.000560012,
  "DeviceSerialNumber": "166108",
  "DwellTime": 1.8e-06,
  "EchoTime": 0.0352,
  "EchoTrainLength": 106,
  "EffectiveEchoSpacing": 0.000560012,
  "FlipAngle": 60,
  "HeudiconvVersion": "1.3.0",
  "ImageComments": "Unaliased MB4/PE3/LB",
  "ImageOrientationPatientDICOM": [1, 0, 0, 0, 1, 0],
  "ImageOrientationText": "Tra",
  "ImageType": [
    "ORIGINAL",
    "PRIMARY",
    "M",
    "MB",
    "ND",
    "MOSAIC"
],
  "ImagingFrequency": 123.244,
  "InPlanePhaseEncodingDirectionDICOM": "COL",
  "InstitutionAddress": "Bedford Way 26,London,London,GB,WC1H 0AP",
  "InstitutionName": "University College",
  "InstitutionalDepartmentName": "Department",
  "MRAcquisitionType": "2D",
  "MagneticFieldStrength": 3,
  "Manufacturer": "Siemens",
  "ManufacturersModelName": "Prisma",
  "MatrixCoilMode": "SENSE",
  "Modality": "MR",
  "MultibandAccelerationFactor": 4,
  "NonlinearGradientCorrection": false,
  "PartialFourier": 1,
  "PatientPosition": "HFS",
  "PercentPhaseFOV": 100,
  "PercentSampling": 100,
  "PhaseEncodingDirection": "j-",
  "PhaseEncodingSteps": 106,
  "PhaseResolution": 1,
  "PixelBandwidth": 2620,
  "ProcedureStepDescription": "Egor^MovieProject2",
  "ProtocolName": "task-backtothefuture_run-2",
  "PulseSequenceDetails": "%CustomerSeq%\\cmrr_mbep2d_bold",
  "ReceiveCoilActiveElements": "HEA;HEP",
  "ReceiveCoilName": "Head_32",
  "ReconMatrixPE": 106,
  "RepetitionTime": 1.5,
  "SAR": 0.0753722,
  "ScanOptions": "FS\\EXT",
  "ScanningSequence": "EP",
  "SequenceName": "epfid2d1_106",
  "SequenceVariant": "SK\\SS",
  "SeriesDescription": "task-backtothefuture_run-2",
  "SeriesNumber": 7,
  "ShimSetting": [-1524, 672, 7367, 19, -125, 287, 120, -48],
  "SliceThickness": 2,
  "SliceTiming": [0, 1.07, 0.6575, 0.2475, 1.315, 0.905, 0.4925, 0.0825, 1.1525, 0.74, 0.33, 1.3975, 0.9875, 0.575, 0.165, 1.2325, 0.8225, 0.4125, 0, 1.07, 0.6575, 0.2475, 1.315, 0.905, 0.4925, 0.0825, 1.1525, 0.74, 0.33, 1.3975, 0.9875, 0.575, 0.165, 1.2325, 0.8225, 0.4125, 0, 1.07, 0.6575, 0.2475, 1.315, 0.905, 0.4925, 0.0825, 1.1525, 0.74, 0.33, 1.3975, 0.9875, 0.575, 0.165, 1.2325, 0.8225, 0.4125, 0, 1.07, 0.6575, 0.2475, 1.315, 0.905, 0.4925, 0.0825, 1.1525, 0.74, 0.33, 1.3975, 0.9875, 0.575, 0.165, 1.2325, 0.8225, 0.4125],
  "SoftwareVersions": "syngo MR E11",
  "SpacingBetweenSlices": 2,
  "StationName": "AWP166108",
  "TaskName": "backtothefuture",
  "TotalReadoutTime": 0.0588013,
  "TxRefAmp": 242.771,
  "WipMemBlock": "f88a7bcc-a40a-426a-911b-8be3f121ba15||Sequence: R016 ve11c/master r/e634e98; Dec 19 2017 11:00:25 by eja",
  "dcmmeta_affine": [
    [-2.0, 0.0, 0.0, 106.0],
    [0.0, 2.0, 0.0, -90.74698638916016],
    [0.0, 0.0, 2.0, -63.77108383178711],
    [0.0, 0.0, 0.0, 1.0]
],
  "dcmmeta_reorient_transform": [
    [0.0, -1.0, 0.0, 105.0],
    [1.0, 0.0, 0.0, 0.0],
    [0.0, 0.0, 1.0, 0.0],
    [0.0, 0.0, 0.0, 1.0]
],
  "dcmmeta_shape": [106, 106, 72, 1522],
  "dcmmeta_slice_dim": 2,
  "dcmmeta_version": 0.6,
  "global": {
    "const": {
      "AcquisitionMatrix": [106, 0, 0, 106],
      "AngioFlag": "N",
      "BitsAllocated": 16,
      "BitsStored": 16,
      "BodyPartExamined": "BRAIN",
      "CardiacNumberOfImages": 1,
      "Columns": 954,
      "EchoNumbers": 1,
      "EchoTime": 35.2,
      "EchoTrainLength": 106,
      "FlipAngle": 60.0,
      "HighBit": 15,
      "ImageOrientationPatient": [1.0, 0.0, 0.0, 0.0, 1.0, 0.0],
      "ImagePositionPatient": [-954.0, -967.25301170349, -63.771083831787],
      "ImageType": [
        "ORIGINAL",
        "PRIMARY",
        "M",
        "MB",
        "ND",
        "MOSAIC"
],
      "ImagedNucleus": "1H",
      "ImagingFrequency": 123.243665,
      "InPlanePhaseEncodingDirection": "COL",
      "MRAcquisitionType": "2D",
      "MagneticFieldStrength": 3.0,
      "Manufacturer": "SIEMENS",
      "ManufacturerModelName": "Prisma",
      "Modality": "MR",
      "NominalInterval": 0,
      "NumberOfAverages": 1.0,
      "NumberOfPhaseEncodingSteps": 106,
      "PercentPhaseFieldOfView": 100.0,
      "PercentSampling": 100.0,
      "PerformedProcedureStepStartTime": "104010.407000",
      "PhotometricInterpretation": "MONOCHROME2",
      "PixelBandwidth": 2620.0,
      "PixelRepresentation": 0,
      "PixelSpacing": [2.0, 2.0],
      "ProtocolName": "task-backtothefuture_run-2",
      "RepetitionTime": 1500.0,
      "Rows": 954,
      "SAR": 0.07537221637639,
      "SamplesPerPixel": 1,
      "ScanOptions": [
        "FS",
        "EXT"
],
      "ScanningSequence": "EP",
      "SequenceName": "epfid2d1_106",
      "SequenceVariant": [
        "SK",
        "SS"
],
      "SeriesDescription": "task-backtothefuture_run-2",
      "SeriesNumber": 7,
      "SeriesTime": "115308.932000",
      "SliceLocation": -63.771083831787,
      "SliceThickness": 2.0,
      "SmallestImagePixelValue": 0,
      "SoftwareVersions": "syngo MR E11",
      "SpacingBetweenSlices": 1.9999999462719,
      "SpecificCharacterSet": "ISO_IR 100",
      "StudyID": "1",
      "StudyTime": "104010.359000",
      "TransmitCoilName": "Body",
      "VariableFlipAngleFlag": "N",
      "WindowCenterWidthExplanation": "Algo1",
      "dBdt": 0.0},
    "slices": {}
  },
  "time": {
    "samples": {
      "AcquisitionNumber": [1, 2, 3, 4, 5, 6, 7, 8, 9, 10, 11, 12, 13, 14, 15, 16, 17, 18, 19, 20, 21, 22, 23, 24, 25, 26, 27, 28, 29, 30, 31, 32, 33, 34, 35, 36, 37, 38, 39, 40, 41, 42, 43, 44, 45, 46, 47, 48, 49, 50, 51, 52, 53, 54, 55, 56, 57, 58, 59, 60, 61, 62, 63, 64, 65, 66, 67, 68, 69, 70, 71, 72, 73, 74, 75, 76, 77, 78, 79, 80, 81, 82, 83, 84, 85, 86, 87, 88, 89, 90, 91, 92, 93, 94, 95, 96, 97, 98, 99, 100, 101, 102, 103, 104, 105, 106, 107, 108, 109, 110, 111, 112, 113, 114, 115, 116, 117, 118, 119, 120, 121, 122, 123, 124, 125, 126, 127, 128, 129, 130, 131, 132, 133, 134, 135, 136, 137, 138, 139, 140, 141, 142, 143, 144, 145, 146, 147, 148, 149, 150, 151, 152, 153, 154, 155, 156, 157, 158, 159, 160, 161, 162, 163, 164, 165, 166, 167, 168, 169, 170, 171, 172, 173, 174, 175, 176, 177, 178, 179, 180, 181, 182, 183, 184, 185, 186, 187, 188, 189, 190, 191, 192, 193, 194, 195, 196, 197, 198, 199, 200, 201, 202, 203, 204, 205, 206, 207, 208, 209, 210, 211, 212, 213, 214, 215, 216, 217, 218, 219, 220, 221, 222, 223, 224, 225, 226, 227, 228, 229, 230, 231, 232, 233, 234, 235, 236, 237, 238, 239, 240, 241, 242, 243, 244, 245, 246, 247, 248, 249, 250, 251, 252, 253, 254, 255, 256, 257, 258, 259, 260, 261, 262, 263, 264, 265, 266, 267, 268, 269, 270, 271, 272, 273, 274, 275, 276, 277, 278, 279, 280, 281, 282, 283, 284, 285, 286, 287, 288, 289, 290, 291, 292, 293, 294, 295, 296, 297, 298, 299, 300, 301, 302, 303, 304, 305, 306, 307, 308, 309, 310, 311, 312, 313, 314, 315, 316, 317, 318, 319, 320, 321, 322, 323, 324, 325, 326, 327, 328, 329, 330, 331, 332, 333, 334, 335, 336, 337, 338, 339, 340, 341, 342, 343, 344, 345, 346, 347, 348, 349, 350, 351, 352, 353, 354, 355, 356, 357, 358, 359, 360, 361, 362, 363, 364, 365, 366, 367, 368, 369, 370, 371, 372, 373, 374, 375, 376, 377, 378, 379, 380, 381, 382, 383, 384, 385, 386, 387, 388, 389, 390, 391, 392, 393, 394, 395, 396, 397, 398, 399, 400, 401, 402, 403, 404, 405, 406, 407, 408, 409, 410, 411, 412, 413, 414, 415, 416, 417, 418, 419, 420, 421, 422, 423, 424, 425, 426, 427, 428, 429, 430, 431, 432, 433, 434, 435, 436, 437, 438, 439, 440, 441, 442, 443, 444, 445, 446, 447, 448, 449, 450, 451, 452, 453, 454, 455, 456, 457, 458, 459, 460, 461, 462, 463, 464, 465, 466, 467, 468, 469, 470, 471, 472, 473, 474, 475, 476, 477, 478, 479, 480, 481, 482, 483, 484, 485, 486, 487, 488, 489, 490, 491, 492, 493, 494, 495, 496, 497, 498, 499, 500, 501, 502, 503, 504, 505, 506, 507, 508, 509, 510, 511, 512, 513, 514, 515, 516, 517, 518, 519, 520, 521, 522, 523, 524, 525, 526, 527, 528, 529, 530, 531, 532, 533, 534, 535, 536, 537, 538, 539, 540, 541, 542, 543, 544, 545, 546, 547, 548, 549, 550, 551, 552, 553, 554, 555, 556, 557, 558, 559, 560, 561, 562, 563, 564, 565, 566, 567, 568, 569, 570, 571, 572, 573, 574, 575, 576, 577, 578, 579, 580, 581, 582, 583, 584, 585, 586, 587, 588, 589, 590, 591, 592, 593, 594, 595, 596, 597, 598, 599, 600, 601, 602, 603, 604, 605, 606, 607, 608, 609, 610, 611, 612, 613, 614, 615, 616, 617, 618, 619, 620, 621, 622, 623, 624, 625, 626, 627, 628, 629, 630, 631, 632, 633, 634, 635, 636, 637, 638, 639, 640, 641, 642, 643, 644, 645, 646, 647, 648, 649, 650, 651, 652, 653, 654, 655, 656, 657, 658, 659, 660, 661, 662, 663, 664, 665, 666, 667, 668, 669, 670, 671, 672, 673, 674, 675, 676, 677, 678, 679, 680, 681, 682, 683, 684, 685, 686, 687, 688, 689, 690, 691, 692, 693, 694, 695, 696, 697, 698, 699, 700, 701, 702, 703, 704, 705, 706, 707, 708, 709, 710, 711, 712, 713, 714, 715, 716, 717, 718, 719, 720, 721, 722, 723, 724, 725, 726, 727, 728, 729, 730, 731, 732, 733, 734, 735, 736, 737, 738, 739, 740, 741, 742, 743, 744, 745, 746, 747, 748, 749, 750, 751, 752, 753, 754, 755, 756, 757, 758, 759, 760, 761, 762, 763, 764, 765, 766, 767, 768, 769, 770, 771, 772, 773, 774, 775, 776, 777, 778, 779, 780, 781, 782, 783, 784, 785, 786, 787, 788, 789, 790, 791, 792, 793, 794, 795, 796, 797, 798, 799, 800, 801, 802, 803, 804, 805, 806, 807, 808, 809, 810, 811, 812, 813, 814, 815, 816, 817, 818, 819, 820, 821, 822, 823, 824, 825, 826, 827, 828, 829, 830, 831, 832, 833, 834, 835, 836, 837, 838, 839, 840, 841, 842, 843, 844, 845, 846, 847, 848, 849, 850, 851, 852, 853, 854, 855, 856, 857, 858, 859, 860, 861, 862, 863, 864, 865, 866, 867, 868, 869, 870, 871, 872, 873, 874, 875, 876, 877, 878, 879, 880, 881, 882, 883, 884, 885, 886, 887, 888, 889, 890, 891, 892, 893, 894, 895, 896, 897, 898, 899, 900, 901, 902, 903, 904, 905, 906, 907, 908, 909, 910, 911, 912, 913, 914, 915, 916, 917, 918, 919, 920, 921, 922, 923, 924, 925, 926, 927, 928, 929, 930, 931, 932, 933, 934, 935, 936, 937, 938, 939, 940, 941, 942, 943, 944, 945, 946, 947, 948, 949, 950, 951, 952, 953, 954, 955, 956, 957, 958, 959, 960, 961, 962, 963, 964, 965, 966, 967, 968, 969, 970, 971, 972, 973, 974, 975, 976, 977, 978, 979, 980, 981, 982, 983, 984, 985, 986, 987, 988, 989, 990, 991, 992, 993, 994, 995, 996, 997, 998, 999, 1000, 1001, 1002, 1003, 1004, 1005, 1006, 1007, 1008, 1009, 1010, 1011, 1012, 1013, 1014, 1015, 1016, 1017, 1018, 1019, 1020, 1021, 1022, 1023, 1024, 1025, 1026, 1027, 1028, 1029, 1030, 1031, 1032, 1033, 1034, 1035, 1036, 1037, 1038, 1039, 1040, 1041, 1042, 1043, 1044, 1045, 1046, 1047, 1048, 1049, 1050, 1051, 1052, 1053, 1054, 1055, 1056, 1057, 1058, 1059, 1060, 1061, 1062, 1063, 1064, 1065, 1066, 1067, 1068, 1069, 1070, 1071, 1072, 1073, 1074, 1075, 1076, 1077, 1078, 1079, 1080, 1081, 1082, 1083, 1084, 1085, 1086, 1087, 1088, 1089, 1090, 1091, 1092, 1093, 1094, 1095, 1096, 1097, 1098, 1099, 1100, 1101, 1102, 1103, 1104, 1105, 1106, 1107, 1108, 1109, 1110, 1111, 1112, 1113, 1114, 1115, 1116, 1117, 1118, 1119, 1120, 1121, 1122, 1123, 1124, 1125, 1126, 1127, 1128, 1129, 1130, 1131, 1132, 1133, 1134, 1135, 1136, 1137, 1138, 1139, 1140, 1141, 1142, 1143, 1144, 1145, 1146, 1147, 1148, 1149, 1150, 1151, 1152, 1153, 1154, 1155, 1156, 1157, 1158, 1159, 1160, 1161, 1162, 1163, 1164, 1165, 1166, 1167, 1168, 1169, 1170, 1171, 1172, 1173, 1174, 1175, 1176, 1177, 1178, 1179, 1180, 1181, 1182, 1183, 1184, 1185, 1186, 1187, 1188, 1189, 1190, 1191, 1192, 1193, 1194, 1195, 1196, 1197, 1198, 1199, 1200, 1201, 1202, 1203, 1204, 1205, 1206, 1207, 1208, 1209, 1210, 1211, 1212, 1213, 1214, 1215, 1216, 1217, 1218, 1219, 1220, 1221, 1222, 1223, 1224, 1225, 1226, 1227, 1228, 1229, 1230, 1231, 1232, 1233, 1234, 1235, 1236, 1237, 1238, 1239, 1240, 1241, 1242, 1243, 1244, 1245, 1246, 1247, 1248, 1249, 1250, 1251, 1252, 1253, 1254, 1255, 1256, 1257, 1258, 1259, 1260, 1261, 1262, 1263, 1264, 1265, 1266, 1267, 1268, 1269, 1270, 1271, 1272, 1273, 1274, 1275, 1276, 1277, 1278, 1279, 1280, 1281, 1282, 1283, 1284, 1285, 1286, 1287, 1288, 1289, 1290, 1291, 1292, 1293, 1294, 1295, 1296, 1297, 1298, 1299, 1300, 1301, 1302, 1303, 1304, 1305, 1306, 1307, 1308, 1309, 1310, 1311, 1312, 1313, 1314, 1315, 1316, 1317, 1318, 1319, 1320, 1321, 1322, 1323, 1324, 1325, 1326, 1327, 1328, 1329, 1330, 1331, 1332, 1333, 1334, 1335, 1336, 1337, 1338, 1339, 1340, 1341, 1342, 1343, 1344, 1345, 1346, 1347, 1348, 1349, 1350, 1351, 1352, 1353, 1354, 1355, 1356, 1357, 1358, 1359, 1360, 1361, 1362, 1363, 1364, 1365, 1366, 1367, 1368, 1369, 1370, 1371, 1372, 1373, 1374, 1375, 1376, 1377, 1378, 1379, 1380, 1381, 1382, 1383, 1384, 1385, 1386, 1387, 1388, 1389, 1390, 1391, 1392, 1393, 1394, 1395, 1396, 1397, 1398, 1399, 1400, 1401, 1402, 1403, 1404, 1405, 1406, 1407, 1408, 1409, 1410, 1411, 1412, 1413, 1414, 1415, 1416, 1417, 1418, 1419, 1420, 1421, 1422, 1423, 1424, 1425, 1426, 1427, 1428, 1429, 1430, 1431, 1432, 1433, 1434, 1435, 1436, 1437, 1438, 1439, 1440, 1441, 1442, 1443, 1444, 1445, 1446, 1447, 1448, 1449, 1450, 1451, 1452, 1453, 1454, 1455, 1456, 1457, 1458, 1459, 1460, 1461, 1462, 1463, 1464, 1465, 1466, 1467, 1468, 1469, 1470, 1471, 1472, 1473, 1474, 1475, 1476, 1477, 1478, 1479, 1480, 1481, 1482, 1483, 1484, 1485, 1486, 1487, 1488, 1489, 1490, 1491, 1492, 1493, 1494, 1495, 1496, 1497, 1498, 1499, 1500, 1501, 1502, 1503, 1504, 1505, 1506, 1507, 1508, 1509, 1510, 1511, 1512, 1513, 1514, 1515, 1516, 1517, 1518, 1519, 1520, 1521, 1522],
      "AcquisitionTime": ["115224.062500", "115225.562500", "115227.062500", "115228.562500", "115230.062500", "115231.562500", "115233.062500", "115234.562500", "115236.062500", "115237.562500", "115239.062500", "115240.562500", "115242.062500", "115243.562500", "115245.062500", "115246.562500", "115248.062500", "115249.562500", "115251.062500", "115252.562500", "115254.062500", "115255.562500", "115257.062500", "115258.562500", "115300.062500", "115301.562500", "115303.062500", "115304.562500", "115306.062500", "115307.562500", "115309.062500", "115310.562500", "115312.062500", "115313.562500", "115315.062500", "115316.562500", "115318.062500", "115319.562500", "115321.062500", "115322.562500", "115324.062500", "115325.562500", "115327.062500", "115328.562500", "115330.062500", "115331.562500", "115333.062500", "115334.562500", "115336.062500", "115337.562500", "115339.062500", "115340.562500", "115342.062500", "115343.562500", "115345.062500", "115346.562500", "115348.062500", "115349.562500", "115351.062500", "115352.562500", "115354.062500", "115355.562500", "115357.062500", "115358.562500", "115400.062500", "115401.562500", "115403.062500", "115404.562500", "115406.062500", "115407.562500", "115409.062500", "115410.562500", "115412.062500", "115413.562500", "115415.062500", "115416.562500", "115418.062500", "115419.562500", "115421.062500", "115422.562500", "115424.062500", "115425.562500", "115427.062500", "115428.562500", "115430.062500", "115431.562500", "115433.062500", "115434.562500", "115436.062500", "115437.562500", "115439.062500", "115440.562500", "115442.062500", "115443.562500", "115445.062500", "115446.562500", "115448.062500", "115449.562500", "115451.062500", "115452.562500", "115454.062500", "115455.562500", "115457.062500", "115458.562500", "115500.062500", "115501.562500", "115503.062500", "115504.562500", "115506.062500", "115507.562500", "115509.062500", "115510.562500", "115512.062500", "115513.562500", "115515.062500", "115516.562500", "115518.062500", "115519.562500", "115521.062500", "115522.562500", "115524.062500", "115525.562500", "115527.062500", "115528.562500", "115530.062500", "115531.562500", "115533.062500", "115534.562500", "115536.062500", "115537.562500", "115539.062500", "115540.562500", "115542.062500", "115543.562500", "115545.062500", "115546.562500", "115548.062500", "115549.562500", "115551.062500", "115552.562500", "115554.062500", "115555.562500", "115557.062500", "115558.562500", "115600.062500", "115601.562500", "115603.062500", "115604.562500", "115606.062500", "115607.562500", "115609.062500", "115610.562500", "115612.062500", "115613.562500", "115615.062500", "115616.562500", "115618.062500", "115619.562500", "115621.062500", "115622.562500", "115624.062500", "115625.562500", "115627.062500", "115628.562500", "115630.062500", "115631.562500", "115633.062500", "115634.562500", "115636.062500", "115637.562500", "115639.062500", "115640.562500", "115642.062500", "115643.562500", "115645.062500", "115646.562500", "115648.062500", "115649.562500", "115651.062500", "115652.562500", "115654.062500", "115655.562500", "115657.062500", "115658.562500", "115700.062500", "115701.562500", "115703.062500", "115704.562500", "115706.062500", "115707.562500", "115709.062500", "115710.562500", "115712.062500", "115713.562500", "115715.062500", "115716.562500", "115718.062500", "115719.562500", "115721.062500", "115722.562500", "115724.062500", "115725.562500", "115727.062500", "115728.562500", "115730.062500", "115731.562500", "115733.062500", "115734.562500", "115736.062500", "115737.562500", "115739.062500", "115740.562500", "115742.062500", "115743.562500", "115745.062500", "115746.562500", "115748.062500", "115749.562500", "115751.062500", "115752.562500", "115754.062500", "115755.562500", "115757.062500", "115758.562500", "115800.062500", "115801.562500", "115803.062500", "115804.562500", "115806.062500", "115807.562500", "115809.062500", "115810.562500", "115812.062500", "115813.562500", "115815.062500", "115816.562500", "115818.062500", "115819.562500", "115821.062500", "115822.562500", "115824.062500", "115825.562500", "115827.062500", "115828.562500", "115830.062500", "115831.562500", "115833.062500", "115834.562500", "115836.062500", "115837.562500", "115839.062500", "115840.562500", "115842.062500", "115843.562500", "115845.062500", "115846.562500", "115848.062500", "115849.562500", "115851.062500", "115852.562500", "115854.062500", "115855.562500", "115857.062500", "115858.562500", "115900.062500", "115901.562500", "115903.062500", "115904.562500", "115906.062500", "115907.562500", "115909.062500", "115910.562500", "115912.062500", "115913.562500", "115915.062500", "115916.562500", "115918.062500", "115919.562500", "115921.062500", "115922.562500", "115924.062500", "115925.562500", "115927.062500", "115928.562500", "115930.062500", "115931.562500", "115933.062500", "115934.562500", "115936.062500", "115937.562500", "115939.062500", "115940.562500", "115942.062500", "115943.562500", "115945.062500", "115946.562500", "115948.062500", "115949.562500", "115951.062500", "115952.562500", "115954.062500", "115955.562500", "115957.062500", "115958.562500", "120000.062500", "120001.562500", "120003.062500", "120004.562500", "120006.062500", "120007.562500", "120009.062500", "120010.562500", "120012.062500", "120013.562500", "120015.062500", "120016.562500", "120018.062500", "120019.562500", "120021.062500", "120022.562500", "120024.062500", "120025.562500", "120027.062500", "120028.562500", "120030.062500", "120031.562500", "120033.062500", "120034.562500", "120036.062500", "120037.562500", "120039.062500", "120040.562500", "120042.062500", "120043.562500", "120045.062500", "120046.562500", "120048.062500", "120049.562500", "120051.062500", "120052.562500", "120054.062500", "120055.562500", "120057.062500", "120058.562500", "120100.062500", "120101.562500", "120103.062500", "120104.562500", "120106.062500", "120107.562500", "120109.062500", "120110.562500", "120112.062500", "120113.562500", "120115.062500", "120116.562500", "120118.062500", "120119.562500", "120121.062500", "120122.562500", "120124.062500", "120125.562500", "120127.062500", "120128.562500", "120130.062500", "120131.562500", "120133.062500", "120134.562500", "120136.062500", "120137.562500", "120139.062500", "120140.562500", "120142.062500", "120143.562500", "120145.062500", "120146.562500", "120148.062500", "120149.562500", "120151.062500", "120152.562500", "120154.062500", "120155.562500", "120157.062500", "120158.562500", "120200.062500", "120201.562500", "120203.062500", "120204.562500", "120206.062500", "120207.562500", "120209.062500", "120210.562500", "120212.062500", "120213.562500", "120215.062500", "120216.562500", "120218.062500", "120219.562500", "120221.062500", "120222.562500", "120224.062500", "120225.562500", "120227.062500", "120228.562500", "120230.062500", "120231.562500", "120233.062500", "120234.562500", "120236.062500", "120237.562500", "120239.062500", "120240.562500", "120242.062500", "120243.562500", "120245.062500", "120246.562500", "120248.062500", "120249.562500", "120251.062500", "120252.562500", "120254.062500", "120255.562500", "120257.062500", "120258.562500", "120300.062500", "120301.562500", "120303.062500", "120304.562500", "120306.062500", "120307.562500", "120309.062500", "120310.562500", "120312.062500", "120313.562500", "120315.062500", "120316.562500", "120318.062500", "120319.562500", "120321.062500", "120322.562500", "120324.062500", "120325.562500", "120327.062500", "120328.562500", "120330.062500", "120331.562500", "120333.062500", "120334.562500", "120336.062500", "120337.562500", "120339.062500", "120340.562500", "120342.062500", "120343.562500", "120345.062500", "120346.562500", "120348.062500", "120349.562500", "120351.062500", "120352.562500", "120354.062500", "120355.562500", "120357.062500", "120358.562500", "120400.062500", "120401.562500", "120403.062500", "120404.562500", "120406.062500", "120407.562500", "120409.062500", "120410.562500", "120412.062500", "120413.562500", "120415.062500", "120416.562500", "120418.062500", "120419.562500", "120421.062500", "120422.562500", "120424.062500", "120425.562500", "120427.062500", "120428.562500", "120430.062500", "120431.562500", "120433.062500", "120434.562500", "120436.062500", "120437.562500", "120439.062500", "120440.562500", "120442.062500", "120443.562500", "120445.062500", "120446.562500", "120448.062500", "120449.562500", "120451.062500", "120452.562500", "120454.062500", "120455.562500", "120457.062500", "120458.562500", "120500.062500", "120501.562500", "120503.062500", "120504.562500", "120506.062500", "120507.562500", "120509.062500", "120510.562500", "120512.062500", "120513.562500", "120515.062500", "120516.562500", "120518.062500", "120519.562500", "120521.062500", "120522.562500", "120524.062500", "120525.562500", "120527.062500", "120528.562500", "120530.062500", "120531.562500", "120533.062500", "120534.562500", "120536.062500", "120537.562500", "120539.062500", "120540.562500", "120542.062500", "120543.562500", "120545.062500", "120546.562500", "120548.062500", "120549.562500", "120551.062500", "120552.562500", "120554.062500", "120555.562500", "120557.062500", "120558.562500", "120600.062500", "120601.562500", "120603.062500", "120604.562500", "120606.062500", "120607.562500", "120609.062500", "120610.562500", "120612.062500", "120613.562500", "120615.062500", "120616.562500", "120618.062500", "120619.562500", "120621.062500", "120622.562500", "120624.062500", "120625.562500", "120627.062500", "120628.562500", "120630.062500", "120631.562500", "120633.062500", "120634.562500", "120636.062500", "120637.562500", "120639.062500", "120640.562500", "120642.062500", "120643.562500", "120645.062500", "120646.562500", "120648.062500", "120649.562500", "120651.062500", "120652.562500", "120654.062500", "120655.562500", "120657.062500", "120658.562500", "120700.062500", "120701.562500", "120703.062500", "120704.562500", "120706.062500", "120707.562500", "120709.062500", "120710.562500", "120712.062500", "120713.562500", "120715.062500", "120716.562500", "120718.062500", "120719.562500", "120721.062500", "120722.562500", "120724.062500", "120725.562500", "120727.062500", "120728.562500", "120730.062500", "120731.562500", "120733.062500", "120734.562500", "120736.062500", "120737.562500", "120739.062500", "120740.562500", "120742.062500", "120743.562500", "120745.062500", "120746.562500", "120748.062500", "120749.562500", "120751.062500", "120752.562500", "120754.062500", "120755.562500", "120757.062500", "120758.562500", "120800.062500", "120801.562500", "120803.062500", "120804.562500", "120806.062500", "120807.562500", "120809.062500", "120810.562500", "120812.062500", "120813.562500", "120815.062500", "120816.562500", "120818.062500", "120819.562500", "120821.062500", "120822.562500", "120824.062500", "120825.562500", "120827.062500", "120828.562500", "120830.062500", "120831.562500", "120833.062500", "120834.562500", "120836.062500", "120837.562500", "120839.062500", "120840.562500", "120842.062500", "120843.562500", "120845.062500", "120846.562500", "120848.062500", "120849.562500", "120851.062500", "120852.562500", "120854.062500", "120855.562500", "120857.062500", "120858.562500", "120900.062500", "120901.562500", "120903.062500", "120904.562500", "120906.062500", "120907.562500", "120909.062500", "120910.562500", "120912.062500", "120913.562500", "120915.062500", "120916.562500", "120918.062500", "120919.562500", "120921.062500", "120922.562500", "120924.062500", "120925.562500", "120927.062500", "120928.562500", "120930.062500", "120931.562500", "120933.062500", "120934.562500", "120936.062500", "120937.562500", "120939.062500", "120940.562500", "120942.062500", "120943.562500", "120945.062500", "120946.562500", "120948.062500", "120949.562500", "120951.062500", "120952.562500", "120954.062500", "120955.562500", "120957.062500", "120958.562500", "121000.062500", "121001.562500", "121003.062500", "121004.562500", "121006.062500", "121007.562500", "121009.062500", "121010.562500", "121012.062500", "121013.562500", "121015.062500", "121016.562500", "121018.062500", "121019.562500", "121021.062500", "121022.562500", "121024.062500", "121025.562500", "121027.062500", "121028.562500", "121030.062500", "121031.562500", "121033.062500", "121034.562500", "121036.062500", "121037.562500", "121039.062500", "121040.562500", "121042.062500", "121043.562500", "121045.062500", "121046.562500", "121048.062500", "121049.562500", "121051.062500", "121052.562500", "121054.062500", "121055.562500", "121057.062500", "121058.562500", "121100.062500", "121101.562500", "121103.062500", "121104.562500", "121106.062500", "121107.562500", "121109.062500", "121110.562500", "121112.062500", "121113.562500", "121115.062500", "121116.562500", "121118.062500", "121119.562500", "121121.062500", "121122.562500", "121124.062500", "121125.562500", "121127.062500", "121128.562500", "121130.062500", "121131.562500", "121133.062500", "121134.562500", "121136.062500", "121137.562500", "121139.062500", "121140.562500", "121142.062500", "121143.562500", "121145.062500", "121146.562500", "121148.062500", "121149.562500", "121151.062500", "121152.562500", "121154.062500", "121155.562500", "121157.062500", "121158.562500", "121200.062500", "121201.562500", "121203.062500", "121204.562500", "121206.062500", "121207.562500", "121209.062500", "121210.562500", "121212.062500", "121213.562500", "121215.062500", "121216.562500", "121218.062500", "121219.562500", "121221.062500", "121222.562500", "121224.062500", "121225.562500", "121227.062500", "121228.562500", "121230.062500", "121231.562500", "121233.062500", "121234.562500", "121236.062500", "121237.562500", "121239.062500", "121240.562500", "121242.062500", "121243.562500", "121245.062500", "121246.562500", "121248.062500", "121249.562500", "121251.062500", "121252.562500", "121254.062500", "121255.562500", "121257.062500", "121258.562500", "121300.062500", "121301.562500", "121303.062500", "121304.562500", "121306.062500", "121307.562500", "121309.062500", "121310.562500", "121312.062500", "121313.562500", "121315.062500", "121316.562500", "121318.062500", "121319.562500", "121321.062500", "121322.562500", "121324.062500", "121325.562500", "121327.062500", "121328.562500", "121330.062500", "121331.562500", "121333.062500", "121334.562500", "121336.062500", "121337.562500", "121339.062500", "121340.562500", "121342.062500", "121343.562500", "121345.062500", "121346.562500", "121348.062500", "121349.562500", "121351.062500", "121352.562500", "121354.062500", "121355.562500", "121357.062500", "121358.562500", "121400.062500", "121401.562500", "121403.062500", "121404.562500", "121406.062500", "121407.562500", "121409.062500", "121410.562500", "121412.062500", "121413.562500", "121415.062500", "121416.562500", "121418.062500", "121419.562500", "121421.062500", "121422.562500", "121424.062500", "121425.562500", "121427.062500", "121428.562500", "121430.062500", "121431.562500", "121433.062500", "121434.562500", "121436.062500", "121437.562500", "121439.062500", "121440.562500", "121442.062500", "121443.562500", "121445.062500", "121446.562500", "121448.062500", "121449.562500", "121451.062500", "121452.562500", "121454.062500", "121455.562500", "121457.062500", "121458.562500", "121500.062500", "121501.562500", "121503.062500", "121504.562500", "121506.062500", "121507.562500", "121509.062500", "121510.562500", "121512.062500", "121513.562500", "121515.062500", "121516.562500", "121518.062500", "121519.562500", "121521.062500", "121522.562500", "121524.062500", "121525.562500", "121527.062500", "121528.562500", "121530.062500", "121531.562500", "121533.062500", "121534.562500", "121536.062500", "121537.562500", "121539.062500", "121540.562500", "121542.062500", "121543.562500", "121545.062500", "121546.562500", "121548.062500", "121549.562500", "121551.062500", "121552.562500", "121554.062500", "121555.562500", "121557.062500", "121558.562500", "121600.062500", "121601.562500", "121603.062500", "121604.562500", "121606.062500", "121607.562500", "121609.062500", "121610.562500", "121612.062500", "121613.562500", "121615.062500", "121616.562500", "121618.062500", "121619.562500", "121621.062500", "121622.56250