{
  "AcquisitionMatrixPE": 106,
  "AcquisitionNumber": 1,
  "AcquisitionTime": "16:35:5.610000",
  "BandwidthPerPixelPhaseEncode": 13.477,
  "BaseResolution": 106,
  "BodyPartExamined": "BRAIN",
  "CoilCombinationMethod": "Sum of Squares",
  "ConsistencyInfo": "N4_VE11C_LATEST_20160120",
  "ConversionSoftware": "dcm2niix",
  "ConversionSoftwareVersion": "v1.0.20220720",
  "DerivedVendorReportedEchoSpacing": 0.000700005,
  "DeviceSerialNumber": "166108",
  "DwellTime": 2.6e-06,
  "EchoTime": 0.03,
  "EchoTrainLength": 80,
  "EffectiveEchoSpacing": 0.000700005,
  "FlipAngle": 62,
  "HeudiconvVersion": "1.3.0",
  "ImageComments": "Unaliased MB4/PE3/LB",
  "ImageOrientationPatientDICOM": [1, 0, 0, 0, 0.992966, -0.118404],
  "ImageOrientationText": "Tra>Cor(-6.8)",
  "ImageType": [
    "ORIGINAL",
    "PRIMARY",
    "M",
    "MB",
    "ND",
    "MOSAIC"
],
  "ImagingFrequency": 123.244,
  "InPlanePhaseEncodingDirectionDICOM": "COL",
  "InstitutionAddress": "Bedford Way 26,London,London,GB,WC1H 0AP",
  "InstitutionName": "University College",
  "InstitutionalDepartmentName": "Department",
  "MRAcquisitionType": "2D",
  "MagneticFieldStrength": 3,
  "Manufacturer": "Siemens",
  "ManufacturersModelName": "Prisma",
  "MatrixCoilMode": "SENSE",
  "Modality": "MR",
  "MultibandAccelerationFactor": 4,
  "NonlinearGradientCorrection": false,
  "PartialFourier": 0.75,
  "PatientPosition": "HFS",
  "PercentPhaseFOV": 100,
  "PercentSampling": 100,
  "PhaseEncodingDirection": "j-",
  "PhaseEncodingSteps": 80,
  "PhaseResolution": 1,
  "PixelBandwidth": 1815,
  "ProcedureStepDescription": "Egor^MovieProject2",
  "ProtocolName": "func-bold_task-motor_run-01",
  "PulseSequenceDetails": "%CustomerSeq%\\cmrr_mbep2d_bold",
  "ReceiveCoilActiveElements": "HEA;HEP",
  "ReceiveCoilName": "Head_32",
  "ReconMatrixPE": 106,
  "RepetitionTime": 1,
  "SAR": 0.0416616,
  "ScanOptions": "PFP\\FS\\EXT",
  "ScanningSequence": "EP",
  "SequenceName": "epfid2d1_106",
  "SequenceVariant": "SK\\SS",
  "SeriesDescription": "func-bold_task-motor_run-01",
  "SeriesNumber": 4,
  "ShimSetting": [-1509, 557, 7348, -47, -68, 179, 150, -6],
  "SliceThickness": 2,
  "SliceTiming": [0, 0.535, 0.09, 0.6225, 0.1775, 0.7125, 0.2675, 0.8025, 0.3575, 0.89, 0.445, 0, 0.535, 0.09, 0.6225, 0.1775, 0.7125, 0.2675, 0.8025, 0.3575, 0.89, 0.445, 0, 0.535, 0.09, 0.6225, 0.1775, 0.7125, 0.2675, 0.8025, 0.3575, 0.89, 0.445, 0, 0.535, 0.09, 0.6225, 0.1775, 0.7125, 0.2675, 0.8025, 0.3575, 0.89, 0.445],
  "SoftwareVersions": "syngo MR E11",
  "SpacingBetweenSlices": 2,
  "StationName": "AWP166108",
  "TaskName": "somatotopy",
  "TotalReadoutTime": 0.0735005,
  "TxRefAmp": 239.986,
  "WipMemBlock": "55571fd0-5bd3-469a-a42a-0622922fe230||Sequence: R016 ve11c/master r/e634e98; Dec 19 2017 11:00:25 by eja",
  "dcmmeta_affine": [
    [-2.0, 0.0, 0.0, 106.0],
    [0.0, 1.9859310388565063, -0.2368079423904419, -93.91197967529297],
    [0.0, 0.2368079274892807, 1.9859310388565063, -14.010324478149414],
    [0.0, 0.0, 0.0, 1.0]
],
  "dcmmeta_reorient_transform": [
    [0.0, -1.0, 0.0, 105.0],
    [1.0, 0.0, 0.0, 0.0],
    [0.0, 0.0, 1.0, 0.0],
    [0.0, 0.0, 0.0, 1.0]
],
  "dcmmeta_shape": [106, 106, 44, 467],
  "dcmmeta_slice_dim": 2,
  "dcmmeta_version": 0.6,
  "global": {
    "const": {
      "AcquisitionMatrix": [106, 0, 0, 106],
      "AngioFlag": "N",
      "BitsAllocated": 16,
      "BitsStored": 16,
      "BodyPartExamined": "BRAIN",
      "CardiacNumberOfImages": 1,
      "Columns": 742,
      "EchoNumbers": 1,
      "EchoTime": 30.0,
      "EchoTrainLength": 80,
      "FlipAngle": 62.0,
      "HighBit": 15,
      "ImageOrientationPatient": [1.0, 0.0, 0.0, 0.0, 0.99296550822323, -0.1184039673279],
      "ImagePositionPatient": [-742.0, -746.13683810902, 86.159431687379],
      "ImageType": [
        "ORIGINAL",
        "PRIMARY",
        "M",
        "MB",
        "ND",
        "MOSAIC"
],
      "ImagedNucleus": "1H",
      "ImagingFrequency": 123.24363,
      "InPlanePhaseEncodingDirection": "COL",
      "MRAcquisitionType": "2D",
      "MagneticFieldStrength": 3.0,
      "Manufacturer": "SIEMENS",
      "ManufacturerModelName": "Prisma",
      "Modality": "MR",
      "NominalInterval": 0,
      "NumberOfAverages": 1.0,
      "NumberOfPhaseEncodingSteps": 80,
      "PercentPhaseFieldOfView": 100.0,
      "PercentSampling": 100.0,
      "PerformedProcedureStepStartTime": "161509.413000",
      "PhotometricInterpretation": "MONOCHROME2",
      "PixelBandwidth": 1815.0,
      "PixelRepresentation": 0,
      "PixelSpacing": [2.0, 2.0],
      "ProtocolName": "func-bold_task-motor_run-01",
      "RepetitionTime": 1000.0,
      "Rows": 742,
      "SAR": 0.04166157678131,
      "SamplesPerPixel": 1,
      "ScanOptions": [
        "PFP",
        "FS",
        "EXT"
],
      "ScanningSequence": "EP",
      "SequenceName": "epfid2d1_106",
      "SequenceVariant": [
        "SK",
        "SS"
],
      "SeriesDescription": "func-bold_task-motor_run-01",
      "SeriesNumber": 4,
      "SeriesTime": "163530.444000",
      "SliceLocation": -2.7922179278902,
      "SliceThickness": 2.0,
      "SmallestImagePixelValue": 0,
      "SoftwareVersions": "syngo MR E11",
      "SpacingBetweenSlices": 2.0000000283456,
      "SpecificCharacterSet": "ISO_IR 100",
      "StudyID": "1",
      "StudyTime": "161509.292000",
      "TransmitCoilName": "Body",
      "VariableFlipAngleFlag": "N",
      "WindowCenterWidthExplanation": "Algo1",
      "dBdt": 0.0},
    "slices": {}
  },
  "time": {
    "samples": {
      "AcquisitionNumber": [1, 2, 3, 4, 5, 6, 7, 8, 9, 10, 11, 12, 13, 14, 15, 16, 17, 18, 19, 20, 21, 22, 23, 24, 25, 26, 27, 28, 29, 30, 31, 32, 33, 34, 35, 36, 37, 38, 39, 40, 41, 42, 43, 44, 45, 46, 47, 48, 49, 50, 51, 52, 53, 54, 55, 56, 57, 58, 59, 60, 61, 62, 63, 64, 65, 66, 67, 68, 69, 70, 71, 72, 73, 74, 75, 76, 77, 78, 79, 80, 81, 82, 83, 84, 85, 86, 87, 88, 89, 90, 91, 92, 93, 94, 95, 96, 97, 98, 99, 100, 101, 102, 103, 104, 105, 106, 107, 108, 109, 110, 111, 112, 113, 114, 115, 116, 117, 118, 119, 120, 121, 122, 123, 124, 125, 126, 127, 128, 129, 130, 131, 132, 133, 134, 135, 136, 137, 138, 139, 140, 141, 142, 143, 144, 145, 146, 147, 148, 149, 150, 151, 152, 153, 154, 155, 156, 157, 158, 159, 160, 161, 162, 163, 164, 165, 166, 167, 168, 169, 170, 171, 172, 173, 174, 175, 176, 177, 178, 179, 180, 181, 182, 183, 184, 185, 186, 187, 188, 189, 190, 191, 192, 193, 194, 195, 196, 197, 198, 199, 200, 201, 202, 203, 204, 205, 206, 207, 208, 209, 210, 211, 212, 213, 214, 215, 216, 217, 218, 219, 220, 221, 222, 223, 224, 225, 226, 227, 228, 229, 230, 231, 232, 233, 234, 235, 236, 237, 238, 239, 240, 241, 242, 243, 244, 245, 246, 247, 248, 249, 250, 251, 252, 253, 254, 255, 256, 257, 258, 259, 260, 261, 262, 263, 264, 265, 266, 267, 268, 269, 270, 271, 272, 273, 274, 275, 276, 277, 278, 279, 280, 281, 282, 283, 284, 285, 286, 287, 288, 289, 290, 291, 292, 293, 294, 295, 296, 297, 298, 299, 300, 301, 302, 303, 304, 305, 306, 307, 308, 309, 310, 311, 312, 313, 314, 315, 316, 317, 318, 319, 320, 321, 322, 323, 324, 325, 326, 327, 328, 329, 330, 331, 332, 333, 334, 335, 336, 337, 338, 339, 340, 341, 342, 343, 344, 345, 346, 347, 348, 349, 350, 351, 352, 353, 354, 355, 356, 357, 358, 359, 360, 361, 362, 363, 364, 365, 366, 367, 368, 369, 370, 371, 372, 373, 374, 375, 376, 377, 378, 379, 380, 381, 382, 383, 384, 385, 386, 387, 388, 389, 390, 391, 392, 393, 394, 395, 396, 397, 398, 399, 400, 401, 402, 403, 404, 405, 406, 407, 408, 409, 410, 411, 412, 413, 414, 415, 416, 417, 418, 419, 420, 421, 422, 423, 424, 425, 426, 427, 428, 429, 430, 431, 432, 433, 434, 435, 436, 437, 438, 439, 440, 441, 442, 443, 444, 445, 446, 447, 448, 449, 450, 451, 452, 453, 454, 455, 456, 457, 458, 459, 460, 461, 462, 463, 464, 465, 466, 467],
      "AcquisitionTime": ["163505.610000", "163506.610000", "163507.610000", "163508.610000", "163509.610000", "163510.610000", "163511.610000", "163512.610000", "163513.610000", "163514.610000", "163515.610000", "163516.610000", "163517.610000", "163518.610000", "163519.610000", "163520.610000", "163521.610000", "163522.610000", "163523.610000", "163524.610000", "163525.610000", "163526.610000", "163527.610000", "163528.610000", "163529.610000", "163530.610000", "163531.610000", "163532.610000", "163533.610000", "163534.610000", "163535.610000", "163536.610000", "163537.610000", "163538.610000", "163539.610000", "163540.610000", "163541.610000", "163542.610000", "163543.610000", "163544.610000", "163545.610000", "163546.610000", "163547.610000", "163548.610000", "163549.610000", "163550.610000", "163551.610000", "163552.610000", "163553.610000", "163554.610000", "163555.610000", "163556.610000", "163557.610000", "163558.610000", "163559.610000", "163600.610000", "163601.610000", "163602.610000", "163603.610000", "163604.610000", "163605.610000", "163606.610000", "163607.610000", "163608.610000", "163609.610000", "163610.610000", "163611.610000", "163612.610000", "163613.610000", "163614.610000", "163615.610000", "163616.610000", "163617.610000", "163618.610000", "163619.610000", "163620.610000", "163621.610000", "163622.610000", "163623.610000", "163624.610000", "163625.610000", "163626.610000", "163627.610000", "163628.610000", "163629.610000", "163630.610000", "163631.610000", "163632.610000", "163633.610000", "163634.610000", "163635.610000", "163636.610000", "163637.610000", "163638.610000", "163639.610000", "163640.610000", "163641.610000", "163642.610000", "163643.610000", "163644.610000", "163645.610000", "163646.610000", "163647.610000", "163648.610000", "163649.610000", "163650.610000", "163651.610000", "163652.610000", "163653.610000", "163654.610000", "163655.610000", "163656.610000", "163657.610000", "163658.610000", "163659.610000", "163700.610000", "163701.610000", "163702.610000", "163703.610000", "163704.610000", "163705.610000", "163706.610000", "163707.610000", "163708.610000", "163709.610000", "163710.610000", "163711.610000", "163712.610000", "163713.610000", "163714.610000", "163715.610000", "163716.610000", "163717.610000", "163718.610000", "163719.610000", "163720.610000", "163721.610000", "163722.610000", "163723.610000", "163724.610000", "163725.610000", "163726.610000", "163727.610000", "163728.610000", "163729.610000", "163730.610000", "163731.610000", "163732.610000", "163733.610000", "163734.610000", "163735.610000", "163736.610000", "163737.610000", "163738.610000", "163739.610000", "163740.610000", "163741.610000", "163742.610000", "163743.610000", "163744.610000", "163745.610000", "163746.610000", "163747.610000", "163748.610000", "163749.610000", "163750.610000", "163751.610000", "163752.610000", "163753.610000", "163754.610000", "163755.610000", "163756.610000", "163757.610000", "163758.610000", "163759.610000", "163800.610000", "163801.610000", "163802.610000", "163803.610000", "163804.610000", "163805.610000", "163806.610000", "163807.610000", "163808.610000", "163809.610000", "163810.610000", "163811.610000", "163812.610000", "163813.610000", "163814.610000", "163815.610000", "163816.610000", "163817.610000", "163818.610000", "163819.610000", "163820.610000", "163821.610000", "163822.610000", "163823.610000", "163824.610000", "163825.610000", "163826.610000", "163827.610000", "163828.610000", "163829.610000", "163830.610000", "163831.610000", "163832.610000", "163833.610000", "163834.610000", "163835.610000", "163836.610000", "163837.610000", "163838.610000", "163839.610000", "163840.610000", "163841.610000", "163842.610000", "163843.610000", "163844.610000", "163845.610000", "163846.610000", "163847.610000", "163848.610000", "163849.610000", "163850.610000", "163851.610000", "163852.610000", "163853.610000", "163854.610000", "163855.610000", "163856.610000", "163857.610000", "163858.610000", "163859.610000", "163900.610000", "163901.610000", "163902.610000", "163903.610000", "163904.610000", "163905.610000", "163906.610000", "163907.610000", "163908.610000", "163909.610000", "163910.610000", "163911.610000", "163912.610000", "163913.610000", "163914.610000", "163915.610000", "163916.610000", "163917.610000", "163918.610000", "163919.610000", "163920.610000", "163921.610000", "163922.610000", "163923.610000", "163924.610000", "163925.610000", "163926.610000", "163927.610000", "163928.610000", "163929.610000", "163930.610000", "163931.610000", "163932.610000", "163933.610000", "163934.610000", "163935.610000", "163936.610000", "163937.610000", "163938.610000", "163939.610000", "163940.610000", "163941.610000", "163942.610000", "163943.610000", "163944.610000", "163945.610000", "163946.610000", "163947.610000", "163948.610000", "163949.610000", "163950.610000", "163951.610000", "163952.610000", "163953.610000", "163954.610000", "163955.610000", "163956.610000", "163957.610000", "163958.610000", "163959.610000", "164000.610000", "164001.610000", "164002.610000", "164003.610000", "164004.610000", "164005.610000", "164006.610000", "164007.610000", "164008.610000", "164009.610000", "164010.610000", "164011.610000", "164012.610000", "164013.610000", "164014.610000", "164015.610000", "164016.610000", "164017.610000", "164018.610000", "164019.610000", "164020.610000", "164021.610000", "164022.610000", "164023.610000", "164024.610000", "164025.610000", "164026.610000", "164027.610000", "164028.610000", "164029.610000", "164030.610000", "164031.610000", "164032.610000", "164033.610000", "164034.610000", "164035.610000", "164036.610000", "164037.610000", "164038.610000", "164039.610000", "164040.610000", "164041.610000", "164042.610000", "164043.610000", "164044.610000", "164045.610000", "164046.610000", "164047.610000", "164048.610000", "164049.610000", "164050.610000", "164051.610000", "164052.610000", "164053.610000", "164054.610000", "164055.610000", "164056.610000", "164057.610000", "164058.610000", "164059.610000", "164100.610000", "164101.610000", "164102.610000", "164103.610000", "164104.610000", "164105.610000", "164106.610000", "164107.610000", "164108.610000", "164109.610000", "164110.610000", "164111.610000", "164112.610000", "164113.610000", "164114.610000", "164115.610000", "164116.610000", "164117.610000", "164118.610000", "164119.610000", "164120.610000", "164121.610000", "164122.610000", "164123.610000", "164124.610000", "164125.610000", "164126.610000", "164127.610000", "164128.610000", "164129.610000", "164130.610000", "164131.610000", "164132.610000", "164133.610000", "164134.610000", "164135.610000", "164136.610000", "164137.610000", "164138.610000", "164139.610000", "164140.610000", "164141.610000", "164142.610000", "164143.610000", "164144.610000", "164145.610000", "164146.610000", "164147.610000", "164148.610000", "164149.610000", "164150.610000", "164151.610000", "164152.610000", "164153.610000", "164154.610000", "164155.610000", "164156.610000", "164157.610000", "164158.610000", "164159.610000", "164200.610000", "164201.610000", "164202.610000", "164203.610000", "164204.610000", "164205.610000", "164206.610000", "164207.610000", "164208.610000", "164209.610000", "164210.610000", "164211.610000", "164212.610000", "164213.610000", "164214.610000", "164215.610000", "164216.610000", "164217.610000", "164218.610000", "164219.610000", "164220.610000", "164221.610000", "164222.610000", "164223.610000", "164224.610000", "164225.610000", "164226.610000", "164227.610000", "164228.610000", "164229.610000", "164230.610000", "164231.610000", "164232.610000", "164233.610000", "164234.610000", "164235.610000", "164236.610000", "164237.610000", "164238.610000", "164239.610000", "164240.610000", "164241.610000", "164242.610000", "164243.610000", "164244.610000", "164245.610000", "164246.610000", "164247.610000", "164248.610000", "164249.610000", "164250.610000", "164251.610000"],
      "ContentTime": ["163530.447000", "163530.449000", "163530.452000", "163530.454000", "163530.458000", "163530.460000", "163530.463000", "163530.465000", "163530.468000", "163530.470000", "163530.473000", "163530.481000", "163530.483000", "163530.497000", "163530.499000", "163530.502000", "163530.504000", "163530.507000", "163530.509000", "163530.512000", "163530.515000", "163530.517000", "163530.520000", "163550.408000", "163550.410000", "163550.413000", "163550.415000", "163550.417000", "163550.420000", "163550.422000", "163550.425000", "163550.427000", "163550.430000", "163550.432000", "163550.435000", "163550.437000", "163550.439000", "163550.442000", "163550.444000", "163550.447000", "163550.449000", "163550.452000", "163550.454000", "163610.407000", "163610.410000", "163610.413000", "163610.415000", "163610.417000", "163610.420000", "163610.422000", "163610.425000", "163610.427000", "163610.430000", "163610.432000", "163610.435000", "163610.437000", "163610.439000", "163610.442000", "163610.454000", "163610.458000", "163610.461000", "163610.463000", "163610.466000", "163630.407000", "163630.410000", "163630.413000", "163630.415000", "163630.417000", "163630.420000", "163630.422000", "163630.425000", "163630.427000", "163630.430000", "163630.432000", "163630.434000", "163630.437000", "163630.439000", "163630.442000", "163630.444000", "163630.447000", "163630.449000", "163630.452000", "163630.454000", "163650.408000", "163650.410000", "163650.413000", "163650.415000", "163650.418000", "163650.420000", "163650.423000", "163650.425000", "163650.427000", "163650.430000", "163650.432000", "163650.435000", "163650.437000", "163650.440000", "163650.442000", "163650.445000", "163650.447000", "163650.450000", "163650.452000", "163650.454000", "163710.406000", "163710.409000", "163710.412000", "163710.414000", "163710.416000", "163710.419000", "163710.421000", "163710.424000", "163710.426000", "163710.428000", "163710.431000", "163710.434000", "163710.436000", "163710.438000", "163710.441000", "163710.443000", "163710.446000", "163710.448000", "163710.451000", "163710.453000", "163730.407000", "163730.409000", "163730.412000", "163730.414000", "163730.416000", "163730.419000", "163730.422000", "163730.424000", "163730.426000", "163730.429000", "163730.431000", "163730.434000", "163730.436000", "163730.439000", "163730.441000", "163730.444000", "163730.446000", "163730.449000", "163730.451000", "163730.453000", "163750.406000", "163750.409000", "163750.412000", "163750.414000", "163750.417000", "163750.419000", "163750.422000", "163750.424000", "163750.426000", "163750.429000", "163750.431000", "163750.434000", "163750.436000", "163750.439000", "163750.441000", "163750.444000", "163750.446000", "163750.448000", "163750.451000", "163750.453000", "163810.426000", "163810.429000", "163810.431000", "163810.434000", "163810.436000", "163810.439000", "163810.441000", "163810.443000", "163810.446000", "163810.448000", "163810.451000", "163810.453000", "163810.456000", "163810.459000", "163810.462000", "163810.464000", "163810.467000", "163810.469000", "163810.472000", "163810.474000", "163830.408000", "163830.410000", "163830.413000", "163830.415000", "163830.418000", "163830.420000", "163830.422000", "163830.425000", "163830.427000", "163830.430000", "163830.432000", "163830.435000", "163830.437000", "163830.440000", "163830.442000", "163830.444000", "163830.447000", "163830.449000", "163830.452000", "163830.454000", "163850.407000", "163850.410000", "163850.412000", "163850.415000", "163850.417000", "163850.420000", "163850.422000", "163850.425000", "163850.427000", "163850.430000", "163850.432000", "163850.435000", "163850.437000", "163850.440000", "163850.442000", "163850.445000", "163850.447000", "163850.450000", "163850.452000", "163850.454000", "163910.407000", "163910.410000", "163910.413000", "163910.415000", "163910.417000", "163910.420000", "163910.422000", "163910.425000", "163910.427000", "163910.430000", "163910.432000", "163910.435000", "163910.437000", "163910.440000", "163910.442000", "163910.445000", "163910.447000", "163910.449000", "163910.452000", "163910.454000", "163930.406000", "163930.409000", "163930.411000", "163930.414000", "163930.416000", "163930.419000", "163930.421000", "163930.424000", "163930.426000", "163930.428000", "163930.431000", "163930.433000", "163930.436000", "163930.438000", "163930.441000", "163930.443000", "163930.445000", "163930.448000", "163930.450000", "163930.453000", "163950.407000", "163950.409000", "163950.412000", "163950.414000", "163950.417000", "163950.419000", "163950.422000", "163950.424000", "163950.427000", "163950.429000", "163950.431000", "163950.434000", "163950.436000", "163950.439000", "163950.441000", "163950.444000", "163950.446000", "163950.449000", "163950.451000", "163950.454000", "164010.406000", "164010.409000", "164010.411000", "164010.414000", "164010.416000", "164010.419000", "164010.421000", "164010.424000", "164010.426000", "164010.429000", "164010.431000", "164010.434000", "164010.436000", "164010.439000", "164010.441000", "164010.443000", "164010.446000", "164010.448000", "164010.451000", "164010.453000", "164030.408000", "164030.410000", "164030.413000", "164030.415000", "164030.418000", "164030.420000", "164030.423000", "164030.425000", "164030.427000", "164030.430000", "164030.432000", "164030.435000", "164030.437000", "164030.440000", "164030.442000", "164030.445000", "164030.447000", "164030.450000", "164030.452000", "164030.454000", "164050.407000", "164050.410000", "164050.413000", "164050.415000", "164050.417000", "164050.420000", "164050.422000", "164050.425000", "164050.427000", "164050.430000", "164050.432000", "164050.435000", "164050.437000", "164050.440000", "164050.442000", "164050.445000", "164050.447000", "164050.449000", "164050.452000", "164050.454000", "164110.408000", "164110.410000", "164110.413000", "164110.415000", "164110.418000", "164110.420000", "164110.423000", "164110.425000", "164110.427000", "164110.430000", "164110.432000", "164110.435000", "164110.437000", "164110.440000", "164110.442000", "164110.444000", "164110.447000", "164110.449000", "164110.452000", "164110.454000", "164130.408000", "164130.410000", "164130.413000", "164130.415000", "164130.418000", "164130.420000", "164130.422000", "164130.425000", "164130.427000", "164130.430000", "164130.432000", "164130.435000", "164130.437000", "164130.439000", "164130.442000", "164130.444000", "164130.447000", "164130.449000", "164130.452000", "164130.454000", "164150.407000", "164150.409000", "164150.412000", "164150.414000", "164150.417000", "164150.419000", "164150.422000", "164150.424000", "164150.426000", "164150.429000", "164150.431000", "164150.434000", "164150.436000", "164150.439000", "164150.441000", "164150.444000", "164150.446000", "164150.449000", "164150.451000", "164150.454000", "164210.406000", "164210.409000", "164210.412000", "164210.414000", "164210.416000", "164210.419000", "164210.421000", "164210.424000", "164210.426000", "164210.429000", "164210.431000", "164210.434000", "164210.436000", "164210.439000", "164210.441000", "164210.444000", "164210.446000", "164210.448000", "164210.451000", "164210.453000", "164230.406000", "164230.409000", "164230.412000", "164230.414000", "164230.416000", "164230.419000", "164230.421000", "164230.424000", "164230.426000", "164230.429000", "164230.431000", "164230.434000", "164230.436000", "164230.438000", "164230.441000", "164230.443000", "164230.446000", "164230.448000", "164230.451000", "164230.453000", "164250.407000", "164250.410000", "164250.413000", "164250.415000", "164250.418000", "164250.420000", "164250.422000", "164250.425000", "164250.427000", "164250.430000", "164250.432000", "164250.435000", "164250.437000", "164250.440000", "164250.442000", "164250.444000", "164250.447000", "164250.449000", "164250.452000", "164250.454000", "164253.562000", "164253.565000", "164253.567000", "164253.570000"],
