{
  "AcquisitionMatrixPE": 106,
  "AcquisitionNumber": 1,
  "AcquisitionTime": "17:26:39.160000",
  "BandwidthPerPixelPhaseEncode": 13.477,
  "BaseResolution": 106,
  "BodyPartExamined": "BRAIN",
  "CoilCombinationMethod": "Sum of Squares",
  "ConsistencyInfo": "N4_VE11C_LATEST_20160120",
  "ConversionSoftware": "dcm2niix",
  "ConversionSoftwareVersion": "v1.0.20220720",
  "DerivedVendorReportedEchoSpacing": 0.000700005,
  "DeviceSerialNumber": "166108",
  "DwellTime": 2.6e-06,
  "EchoTime": 0.03,
  "EchoTrainLength": 80,
  "EffectiveEchoSpacing": 0.000700005,
  "FlipAngle": 62,
  "HeudiconvVersion": "1.3.0",
  "ImageComments": "Unaliased MB4/PE3/LB",
  "ImageOrientationPatientDICOM": [1, 0, 0, 0, 0.941471, -0.337095],
  "ImageOrientationText": "Tra>Cor(-19.7)",
  "ImageType": [
    "ORIGINAL",
    "PRIMARY",
    "M",
    "MB",
    "ND",
    "MOSAIC"
],
  "ImagingFrequency": 123.244,
  "InPlanePhaseEncodingDirectionDICOM": "COL",
  "InstitutionAddress": "Bedford Way 26,London,London,GB,WC1H 0AP",
  "InstitutionName": "University College",
  "InstitutionalDepartmentName": "Department",
  "MRAcquisitionType": "2D",
  "MagneticFieldStrength": 3,
  "Manufacturer": "Siemens",
  "ManufacturersModelName": "Prisma",
  "MatrixCoilMode": "SENSE",
  "Modality": "MR",
  "MultibandAccelerationFactor": 4,
  "NonlinearGradientCorrection": false,
  "PartialFourier": 0.75,
  "PatientPosition": "HFS",
  "PercentPhaseFOV": 100,
  "PercentSampling": 100,
  "PhaseEncodingDirection": "j-",
  "PhaseEncodingSteps": 80,
  "PhaseResolution": 1,
  "PixelBandwidth": 1815,
  "ProcedureStepDescription": "Egor^MovieProject2",
  "ProtocolName": "func-bold_task-tono_run-01",
  "PulseSequenceDetails": "%CustomerSeq%\\cmrr_mbep2d_bold",
  "ReceiveCoilActiveElements": "HEA;HEP",
  "ReceiveCoilName": "Head_32",
  "ReconMatrixPE": 106,
  "RepetitionTime": 1,
  "SAR": 0.0415224,
  "ScanOptions": "PFP\\FS\\EXT",
  "ScanningSequence": "EP",
  "SequenceName": "epfid2d1_106",
  "SequenceVariant": "SK\\SS",
  "SeriesDescription": "func-bold_task-tono_run-01",
  "SeriesNumber": 18,
  "ShimSetting": [-1521, 569, 7408, 287, -186, 229, 142, -45],
  "SliceThickness": 2,
  "SliceTiming": [0, 0.535, 0.09, 0.625, 0.18, 0.7125, 0.2675, 0.8025, 0.3575, 0.8925, 0.4475, 0, 0.535, 0.09, 0.625, 0.18, 0.7125, 0.2675, 0.8025, 0.3575, 0.8925, 0.4475, 0, 0.535, 0.09, 0.625, 0.18, 0.7125, 0.2675, 0.8025, 0.3575, 0.8925, 0.4475, 0, 0.535, 0.09, 0.625, 0.18, 0.7125, 0.2675, 0.8025, 0.3575, 0.8925, 0.4475],
  "SoftwareVersions": "syngo MR E11",
  "SpacingBetweenSlices": 2,
  "StationName": "AWP166108",
  "TaskName": "tonotopy",
  "TotalReadoutTime": 0.0735005,
  "TxRefAmp": 239.986,
  "WipMemBlock": "ef22c35d-bec6-4848-9aea-7c82418351ae||Sequence: R016 ve11c/master r/e634e98; Dec 19 2017 11:00:25 by eja",
  "dcmmeta_affine": [
    [-2.0, 0.0, 0.0, 106.0],
    [0.0, 1.8829411268234253, -0.6741905808448792, -79.77949523925781],
    [0.0, 0.6741905808448792, 1.8829411268234253, -65.96099853515625],
    [0.0, 0.0, 0.0, 1.0]
],
  "dcmmeta_reorient_transform": [
    [0.0, -1.0, 0.0, 105.0],
    [1.0, 0.0, 0.0, 0.0],
    [0.0, 0.0, 1.0, 0.0],
    [0.0, 0.0, 0.0, 1.0]
],
  "dcmmeta_shape": [106, 106, 44, 264],
  "dcmmeta_slice_dim": 2,
  "dcmmeta_version": 0.6,
  "global": {
    "const": {
      "AcquisitionMatrix": [106, 0, 0, 106],
      "AngioFlag": "N",
      "BitsAllocated": 16,
      "BitsStored": 16,
      "BodyPartExamined": "BRAIN",
      "CardiacNumberOfImages": 1,
      "Columns": 742,
      "EchoNumbers": 1,
      "EchoTime": 30.0,
      "EchoTrainLength": 80,
      "FlipAngle": 62.0,
      "HighBit": 15,
      "ImageOrientationPatient": [1.0, 0.0, 0.0, 0.0, 0.94147053802673, -0.3370952773737],
      "ImagePositionPatient": [-742.0, -716.70457923353, 219.22160247328],
      "ImageType": [
        "ORIGINAL",
        "PRIMARY",
        "M",
        "MB",
        "ND",
        "MOSAIC"
],
      "ImagedNucleus": "1H",
      "ImagingFrequency": 123.243643,
      "InPlanePhaseEncodingDirection": "COL",
      "MRAcquisitionType": "2D",
      "MagneticFieldStrength": 3.0,
      "Manufacturer": "SIEMENS",
      "ManufacturerModelName": "Prisma",
      "Modality": "MR",
      "NominalInterval": 0,
      "NumberOfAverages": 1.0,
      "NumberOfPhaseEncodingSteps": 80,
      "PercentPhaseFieldOfView": 100.0,
      "PercentSampling": 100.0,
      "PerformedProcedureStepStartTime": "161509.413000",
      "PhotometricInterpretation": "MONOCHROME2",
      "PixelBandwidth": 1815.0,
      "PixelRepresentation": 0,
      "PixelSpacing": [2.0, 2.0],
      "ProtocolName": "func-bold_task-tono_run-01",
      "RepetitionTime": 1000.0,
      "Rows": 742,
      "SAR": 0.04152242704647,
      "SamplesPerPixel": 1,
      "ScanOptions": [
        "PFP",
        "FS",
        "EXT"
],
      "ScanningSequence": "EP",
      "SequenceName": "epfid2d1_106",
      "SequenceVariant": [
        "SK",
        "SS"
],
      "SeriesDescription": "func-bold_task-tono_run-01",
      "SeriesNumber": 18,
      "SeriesTime": "172717.461000",
      "SliceLocation": -35.207048904135,
      "SliceThickness": 2.0,
      "SmallestImagePixelValue": 0,
      "SoftwareVersions": "syngo MR E11",
      "SpacingBetweenSlices": 2.0000000025727,
      "SpecificCharacterSet": "ISO_IR 100",
      "StudyID": "1",
      "StudyTime": "161509.292000",
      "TransmitCoilName": "Body",
      "VariableFlipAngleFlag": "N",
      "WindowCenterWidthExplanation": "Algo1",
      "dBdt": 0.0},
    "slices": {}
  },
  "time": {
    "samples": {
      "AcquisitionNumber": [1, 2, 3, 4, 5, 6, 7, 8, 9, 10, 11, 12, 13, 14, 15, 16, 17, 18, 19, 20, 21, 22, 23, 24, 25, 26, 27, 28, 29, 30, 31, 32, 33, 34, 35, 36, 37, 38, 39, 40, 41, 42, 43, 44, 45, 46, 47, 48, 49, 50, 51, 52, 53, 54, 55, 56, 57, 58, 59, 60, 61, 62, 63, 64, 65, 66, 67, 68, 69, 70, 71, 72, 73, 74, 75, 76, 77, 78, 79, 80, 81, 82, 83, 84, 85, 86, 87, 88, 89, 90, 91, 92, 93, 94, 95, 96, 97, 98, 99, 100, 101, 102, 103, 104, 105, 106, 107, 108, 109, 110, 111, 112, 113, 114, 115, 116, 117, 118, 119, 120, 121, 122, 123, 124, 125, 126, 127, 128, 129, 130, 131, 132, 133, 134, 135, 136, 137, 138, 139, 140, 141, 142, 143, 144, 145, 146, 147, 148, 149, 150, 151, 152, 153, 154, 155, 156, 157, 158, 159, 160, 161, 162, 163, 164, 165, 166, 167, 168, 169, 170, 171, 172, 173, 174, 175, 176, 177, 178, 179, 180, 181, 182, 183, 184, 185, 186, 187, 188, 189, 190, 191, 192, 193, 194, 195, 196, 197, 198, 199, 200, 201, 202, 203, 204, 205, 206, 207, 208, 209, 210, 211, 212, 213, 214, 215, 216, 217, 218, 219, 220, 221, 222, 223, 224, 225, 226, 227, 228, 229, 230, 231, 232, 233, 234, 235, 236, 237, 238, 239, 240, 241, 242, 243, 244, 245, 246, 247, 248, 249, 250, 251, 252, 253, 254, 255, 256, 257, 258, 259, 260, 261, 262, 263, 264],
      "AcquisitionTime": ["172639.160000", "172640.160000", "172641.160000", "172642.160000", "172643.160000", "172644.160000", "172645.160000", "172646.160000", "172647.160000", "172648.160000", "172649.160000", "172650.160000", "172651.160000", "172652.160000", "172653.160000", "172654.160000", "172655.160000", "172656.160000", "172657.160000", "172658.160000", "172659.160000", "172700.160000", "172701.160000", "172702.160000", "172703.160000", "172704.160000", "172705.160000", "172706.160000", "172707.160000", "172708.160000", "172709.160000", "172710.160000", "172711.160000", "172712.160000", "172713.160000", "172714.160000", "172715.160000", "172716.160000", "172717.160000", "172718.160000", "172719.160000", "172720.160000", "172721.160000", "172722.160000", "172723.160000", "172724.160000", "172725.160000", "172726.160000", "172727.160000", "172728.160000", "172729.160000", "172730.160000", "172731.160000", "172732.160000", "172733.160000", "172734.160000", "172735.160000", "172736.160000", "172737.160000", "172738.160000", "172739.160000", "172740.160000", "172741.160000", "172742.160000", "172743.160000", "172744.160000", "172745.160000", "172746.160000", "172747.160000", "172748.160000", "172749.160000", "172750.160000", "172751.160000", "172752.160000", "172753.160000", "172754.160000", "172755.160000", "172756.160000", "172757.160000", "172758.160000", "172759.160000", "172800.160000", "172801.160000", "172802.160000", "172803.160000", "172804.160000", "172805.160000", "172806.160000", "172807.160000", "172808.160000", "172809.160000", "172810.160000", "172811.160000", "172812.160000", "172813.160000", "172814.160000", "172815.160000", "172816.160000", "172817.160000", "172818.160000", "172819.160000", "172820.160000", "172821.160000", "172822.160000", "172823.160000", "172824.160000", "172825.160000", "172826.160000", "172827.160000", "172828.160000", "172829.160000", "172830.160000", "172831.160000", "172832.160000", "172833.160000", "172834.160000", "172835.160000", "172836.160000", "172837.160000", "172838.160000", "172839.160000", "172840.160000", "172841.160000", "172842.160000", "172843.160000", "172844.160000", "172845.160000", "172846.160000", "172847.160000", "172848.160000", "172849.160000", "172850.160000", "172851.160000", "172852.160000", "172853.160000", "172854.160000", "172855.160000", "172856.160000", "172857.160000", "172858.160000", "172859.160000", "172900.160000", "172901.160000", "172902.160000", "172903.160000", "172904.160000", "172905.160000", "172906.160000", "172907.160000", "172908.160000", "172909.160000", "172910.160000", "172911.160000", "172912.160000", "172913.160000", "172914.160000", "172915.160000", "172916.160000", "172917.160000", "172918.160000", "172919.160000", "172920.160000", "172921.160000", "172922.160000", "172923.160000", "172924.160000", "172925.160000", "172926.160000", "172927.160000", "172928.160000", "172929.160000", "172930.160000", "172931.160000", "172932.160000", "172933.160000", "172934.160000", "172935.160000", "172936.160000", "172937.160000", "172938.160000", "172939.160000", "172940.160000", "172941.160000", "172942.160000", "172943.160000", "172944.160000", "172945.160000", "172946.160000", "172947.160000", "172948.160000", "172949.160000", "172950.160000", "172951.160000", "172952.160000", "172953.160000", "172954.160000", "172955.160000", "172956.160000", "172957.160000", "172958.160000", "172959.160000", "173000.160000", "173001.160000", "173002.160000", "173003.160000", "173004.160000", "173005.160000", "173006.160000", "173007.160000", "173008.160000", "173009.160000", "173010.160000", "173011.160000", "173012.160000", "173013.160000", "173014.160000", "173015.160000", "173016.160000", "173017.160000", "173018.160000", "173019.160000", "173020.160000", "173021.160000", "173022.160000", "173023.160000", "173024.160000", "173025.160000", "173026.160000", "173027.160000", "173028.160000", "173029.160000", "173030.160000", "173031.160000", "173032.160000", "173033.160000", "173034.160000", "173035.160000", "173036.160000", "173037.160000", "173038.160000", "173039.160000", "173040.160000", "173041.160000", "173042.160000", "173043.160000", "173044.160000", "173045.160000", "173046.160000", "173047.160000", "173048.160000", "173049.160000", "173050.160000", "173051.160000", "173052.160000", "173053.160000", "173054.160000", "173055.160000", "173056.160000", "173057.160000", "173058.160000", "173059.160000", "173100.160000", "173101.160000", "173102.160000"],
      "ContentTime": ["172717.463000", "172717.466000", "172717.469000", "172717.471000", "172717.483000", "172717.485000", "172717.488000", "172717.490000", "172717.493000", "172717.495000", "172717.498000", "172717.500000", "172717.503000", "172717.505000", "172717.508000", "172717.510000", "172717.513000", "172717.515000", "172717.521000", "172717.524000", "172717.526000", "172717.529000", "172717.531000", "172717.534000", "172717.536000", "172717.539000", "172717.541000", "172717.544000", "172717.546000", "172717.548000", "172717.551000", "172717.553000", "172717.556000", "172717.558000", "172717.561000", "172717.563000", "172717.566000", "172737.432000", "172737.435000", "172737.438000", "172737.440000", "172737.443000", "172737.445000", "172737.447000", "172737.450000", "172737.452000", "172737.455000", "172737.457000", "172737.460000", "172737.462000", "172737.465000", "172737.467000", "172737.469000", "172737.472000", "172737.474000", "172737.477000", "172737.479000", "172757.433000", "172757.435000", "172757.438000", "172757.440000", "172757.443000", "172757.445000", "172757.447000", "172757.450000", "172757.452000", "172757.455000", "172757.457000", "172757.460000", "172757.462000", "172757.465000", "172757.467000", "172757.470000", "172757.472000", "172757.475000", "172757.477000", "172757.480000", "172817.433000", "172817.436000", "172817.439000", "172817.441000", "172817.444000", "172817.446000", "172817.449000", "172817.451000", "172817.453000", "172817.456000", "172817.458000", "172817.461000", "172817.463000", "172817.466000", "172817.468000", "172817.471000", "172817.473000", "172817.475000", "172817.478000", "172817.481000", "172837.433000", "172837.436000", "172837.438000", "172837.441000", "172837.443000", "172837.446000", "172837.448000", "172837.451000", "172837.454000", "172837.456000", "172837.458000", "172837.461000", "172837.463000", "172837.466000", "172837.468000", "172837.471000", "172837.473000", "172837.476000", "172837.478000", "172837.481000", "172857.434000", "172857.436000", "172857.439000", "172857.441000", "172857.444000", "172857.446000", "172857.449000", "172857.451000", "172857.454000", "172857.456000", "172857.458000", "172857.461000", "172857.464000", "172857.466000", "172857.469000", "172857.471000", "172857.474000", "172857.476000", "172857.479000", "172857.481000", "172917.432000", "172917.435000", "172917.438000", "172917.440000", "172917.443000", "172917.445000", "172917.448000", "172917.450000", "172917.453000", "172917.455000", "172917.458000", "172917.460000", "172917.463000", "172917.465000", "172917.468000", "172917.470000", "172917.473000", "172917.475000", "172917.478000", "172917.480000", "172937.432000", "172937.435000", "172937.438000", "172937.440000", "172937.443000", "172937.445000", "172937.448000", "172937.450000", "172937.453000", "172937.455000", "172937.458000", "172937.476000", "172937.479000", "172937.481000", "172937.484000", "172937.486000", "172937.489000", "172937.491000", "172937.494000", "172937.496000", "172957.432000", "172957.435000", "172957.452000", "172957.455000", "172957.457000", "172957.460000", "172957.462000", "172957.465000", "172957.467000", "172957.469000", "172957.472000", "172957.474000", "172957.477000", "172957.479000", "172957.482000", "172957.484000", "172957.487000", "172957.489000", "172957.491000", "172957.494000", "173017.432000", "173017.435000", "173017.438000", "173017.440000", "173017.442000", "173017.445000", "173017.447000", "173017.450000", "173017.452000", "173017.455000", "173017.457000", "173017.460000", "173017.462000", "173017.465000", "173017.467000", "173017.470000", "173017.472000", "173017.475000", "173017.477000", "173017.479000", "173037.433000", "173037.436000", "173037.439000", "173037.441000", "173037.444000", "173037.446000", "173037.449000", "173037.451000", "173037.453000", "173037.456000", "173037.458000", "173037.461000", "173037.463000", "173037.466000", "173037.468000", "173037.471000", "173037.473000", "173037.476000", "173037.478000", "173037.481000", "173057.433000", "173057.436000", "173057.439000", "173057.441000", "173057.443000", "173057.446000", "173057.448000", "173057.451000", "173057.453000", "173057.456000", "173057.458000", "173057.461000", "173057.463000", "173057.466000", "173057.468000", "173057.470000", "173057.473000", "173057.475000", "173057.478000", "173057.480000", "173103.699000", "173103.702000", "173103.704000", "173103.707000", "173103.709000", "173103.712000", "173103.715000"],
      "InstanceCreationTime": ["172717.463000", "172717.466000", "172717.469000", "172717.471000", "172717.483000", "172717.485000", "172717.488000", "172717.490000", "172717.493000", "172717.495000", "172717.498000", "172717.500000", "172717.503000", "172717.505000", "172717.508000", "172717.510000", "172717.513000", "172717.515000", "172717.521000", "172717.524000", "172717.526000", "172717.529000", "172717.531000", "172717.534000", "172717.536000", "172717.539000", "172717.541000", "172717.544000", "172717.546000", "172717.548000", "172717.551000", "172717.553000", "172717.556000", "172717.558000", "172717.561000", "172717.563000", "172717.566000", "172737.432000", "172737.435000", "172737.438000", "172737.440000", "172737.443000", "172737.445000", "172737.447000", "172737.450000", "172737.452000", "172737.455000", "172737.457000", "172737.460000", "172737.462000", "172737.465000", "172737.467000", "172737.469000", "172737.472000", "172737.474000", "172737.477000", "172737.479000", "172757.433000", "172757.435000", "172757.438000", "172757.440000", "172757.443000", "172757.445000", "172757.447000", "172757.450000", "172757.452000", "172757.455000", "172757.457000", "172757.460000", "172757.462000", "172757.465000", "172757.467000", "172757.470000", "172757.472000", "172757.475000", "172757.477000", "172757.480000", "172817.433000", "172817.436000", "172817.439000", "172817.441000", "172817.444000", "172817.446000", "172817.449000", "172817.451000", "172817.453000", "172817.456000", "172817.458000", "172817.461000", "172817.463000", "172817.466000", "172817.468000", "172817.471000", "172817.473000", "172817.475000", "172817.478000", "172817.481000", "172837.433000", "172837.436000", "172837.438000", "172837.441000", "172837.443000", "172837.446000", "172837.448000", "172837.451000", "172837.454000", "172837.456000", "172837.458000", "172837.461000", "172837.463000", "172837.466000", "172837.468000", "172837.471000", "172837.473000", "172837.476000", "172837.478000", "172837.481000", "172857.434000", "172857.436000", "172857.439000", "172857.441000", "172857.444000", "172857.446000", "172857.449000", "172857.451000", "172857.454000", "172857.456000", "172857.458000", "172857.461000", "172857.464000", "172857.466000", "172857.469000", "172857.471000", "172857.474000", "172857.476000", "172857.479000", "172857.481000", "172917.432000", "172917.435000", "172917.438000", "172917.440000", "172917.443000", "172917.445000", "172917.448000", "172917.450000", "172917.453000", "172917.455000", "172917.458000", "172917.460000", "172917.463000", "172917.465000", "172917.468000", "172917.470000", "172917.473000", "172917.475000", "172917.478000", "172917.480000", "172937.432000", "172937.435000", "172937.438000", "172937.440000", "172937.443000", "172937.445000", "172937.448000", "172937.450000", "172937.453000", "172937.455000", "172937.458000", "172937.476000", "172937.479000", "172937.481000", "172937.484000", "172937.486000", "172937.489000", "172937.491000", "172937.494000", "172937.496000", "172957.432000", "172957.435000", "172957.452000", "172957.455000", "172957.457000", "172957.460000", "172957.462000", "172957.465000", "172957.467000", "172957.469000", "172957.472000", "172957.474000", "172957.477000", "172957.479000", "172957.482000", "172957.484000", "172957.487000", "172957.489000", "172957.491000", "172957.494000", "173017.432000", "173017.435000", "173017.438000", "173017.440000", "173017.442000", "173017.445000", "173017.447000", "173017.450000", "173017.452000", "173017.455000", "173017.457000", "173017.460000", "173017.462000", "173017.465000", "173017.467000", "173017.470000", "173017.472000", "173017.475000", "173017.477000", "173017.479000", "173037.433000", "173037.436000", "173037.439000", "173037.441000", "173037.444000", "173037.446000", "173037.449000", "173037.451000", "173037.453000", "173037.456000", "173037.458000", "173037.461000", "173037.463000", "173037.466000", "173037.468000", "173037.471000", "173037.473000", "173037.476000", "173037.478000", "173037.481000", "173057.433000", "173057.436000", "173057.439000", "173057.441000", "173057.443000", "173057.446000", "173057.448000", "173057.451000", "173057.453000", "173057.456000", "173057.458000", "173057.461000", "173057.463000", "173057.466000", "173057.468000", "173057.470000", "173057.473000", "173057.475000", "173057.478000", "173057.480000", "173103.699000", "173103.702000", "173103.704000", "173103.707000", "173103.709000", "173103.712000", "173103.715000"],
      "InstanceNumber": [1, 2, 3, 4, 5, 6, 7, 8, 9, 10, 11, 12, 13, 14, 15, 16, 17, 18, 19, 20, 21, 22, 23, 24, 25, 26, 27, 28, 29, 30, 31, 32, 33, 34, 35, 36, 37, 38, 39, 40, 41, 42, 43, 44, 45, 46, 47, 48, 49, 50, 51, 52, 53, 54, 55, 56, 57, 58, 59, 60, 61, 62, 63, 64, 65, 66, 67, 68, 69, 70, 71, 72, 73, 74, 75, 76, 77, 78, 79, 80, 81, 82, 83, 84, 85, 86, 87, 88, 89, 90, 91, 92, 93, 94, 95, 96, 97, 98, 99, 100, 101, 102, 103, 104, 105, 106, 107, 108, 109, 110, 111, 112, 113, 114, 115, 116, 117, 118, 119, 120, 121, 122, 123, 124, 125, 126, 127, 128, 129, 130, 131, 132, 133, 134, 135, 136, 137, 138, 139, 140, 141, 142, 143, 144, 145, 146, 147, 148, 149, 150, 151, 152, 153, 154, 155, 156, 157, 158, 159, 160, 161, 162, 163, 164, 165, 166, 167, 168, 169, 170, 171, 172, 173, 174, 175, 176, 177, 178, 179, 180, 181, 182, 183, 184, 185, 186, 187, 188, 189, 190, 191, 192, 193, 194, 195, 196, 197, 198, 199, 200, 201, 202, 203, 204, 205, 206, 207, 208, 209, 210, 211, 212, 213, 214, 215, 216, 217, 218, 219, 220, 221, 222, 223, 224, 225, 226, 227, 228, 229, 230, 231, 232, 233, 234, 235, 236, 237, 238, 239, 240, 241, 242, 243, 244, 245, 246, 247, 248, 249, 250, 251, 252, 253, 254, 255, 256, 257, 258, 259, 260, 261, 262, 263, 264],
      "LargestImagePixelValue": [10099, 10151, 9798, 9838, 9974, 9804, 10036, 9829, 9735, 9840, 9944, 9680, 9852, 9745, 9581, 9924, 9649, 9667, 9948, 9683, 9784, 9833, 9786, 9809, 9780, 9771, 10060, 9801, 9811, 9877, 9752, 9981, 9800, 9724, 9887, 9810, 9780, 9934, 9646, 9728, 9893, 9663, 9938, 9822, 9716, 9938, 9678, 9623, 9747, 9570, 9633, 9821, 9847, 9716, 9700, 9656, 9770, 9638, 9693, 9679, 9667, 9740, 9611, 9624, 9639, 9691, 9803, 9811, 9706, 9794, 9689, 9525, 9841, 9653, 9688, 9731, 9651, 9601, 9562, 9483, 9706, 9731, 9867, 9707, 9590, 9679, 9620, 9628, 9431, 9410, 9492, 9386, 9612, 9479, 9471, 9618, 9648, 9761, 9641, 9759, 9749, 9547, 9607, 9801, 9660, 9796, 9579, 9678, 9590, 9521, 9689, 9658, 9602, 9693, 9538, 9548, 9706, 9570, 9579, 9682, 9557, 9570, 9522, 9665, 9691, 9581, 9695, 9708, 9861, 9738, 9589, 9710, 9683, 9811, 9643, 9613, 9631, 9721, 9676, 9702, 9690, 9879, 9489, 9647, 9670, 9672, 9591, 9839, 9520, 9596, 9664, 9758, 9734, 9625, 9642, 9545, 9541, 9595, 9613, 9815, 9675, 9575, 9622, 9525, 9437, 9636, 9564, 9537, 9594, 9542, 9519, 9783, 9578, 9557, 9433, 9635, 9762, 9711, 9676, 9625, 9585, 9490, 9493, 9482, 9566, 9569, 9619, 9661, 9379, 9621, 9509, 9528, 9653, 9574, 9717, 9693, 9660, 9654, 9479, 9613, 9638, 9744, 9500, 9443, 9509, 9520, 9516, 9333, 9416, 9547, 9627, 9487, 9577, 9443, 9473, 9536, 9481, 9554, 9599, 9594, 9536, 9550, 9607, 9584, 9388, 9552, 9505, 9345, 9380, 9425, 9480, 9436, 9417, 9501, 9549, 9461, 9513, 9701, 9697, 9572, 10616, 9959, 9571, 9762, 9702, 9792, 9460, 9599, 9497, 9454, 9722, 9513, 9680, 9447, 9510, 9678, 9694, 9735, 9475, 9651, 9559, 9541, 9527, 9571],
      "TriggerTime": [8102.5, 9102.5, 10102.5, 11102.5, 12102.5, 13102.5, 14102.5, 15102.5, 16102.5, 17102.5, 18102.5, 19102.5, 20102.5, 21102.5, 22102.5, 23102.5, 24102.5, 25102.5, 26102.5, 27102.5, 28102.5, 29102.5, 30102.5, 31102.5, 32102.5, 33102.5, 34102.5, 35102.5, 36102.5, 37102.5, 38102.5, 39102.5, 40102.5, 41102.5, 42102.5, 43102.5, 44102.5, 45102.5, 46102.5, 47102.5, 48102.5, 49102.5, 50102.5, 51102.5, 52102.5, 53102.5, 54102.5, 55102.5, 56102.5, 57102.5, 58102.5, 59102.5, 60102.5, 61102.5, 62102.5, 63102.5, 64102.5, 65102.5, 66102.5, 67102.5, 68102.5, 69102.5, 70102.5, 71102.5, 72102.5, 73102.5, 74102.5, 75102.5, 76102.5, 77102.5, 78102.5, 79102.5, 80102.5, 81102.5, 82102.5, 83102.5, 84102.5, 85102.5, 86102.5, 87102.5, 88102.5, 89102.5, 90102.5, 91102.5, 92102.5, 93102.5, 94102.5, 95102.5, 96102.5, 97102.5, 98102.5, 99102.5, 100102.5, 101102.5, 102102.5, 103102.5, 104102.5, 105102.5, 106102.5, 107102.5, 108102.5, 109102.5, 110102.5, 111102.5, 112102.5, 113102.5, 114102.5, 115102.5, 116102.5, 117102.5, 118102.5, 119102.5, 120102.5, 121102.5, 122102.5, 123102.5, 124102.5, 125102.5, 126102.5, 127102.5, 128102.5, 129102.5, 130102.5, 131102.5, 132102.5, 133102.5, 134102.5, 135102.5, 136102.5, 137102.5, 138102.5, 139102.5, 140102.5, 141102.5, 142102.5, 143102.5, 144102.5, 145102.5, 146102.5, 147102.5, 148102.5, 149102.5, 150102.5, 151102.5, 152102.5, 153102.5, 154102.5, 155102.5, 156102.5, 157102.5, 158102.5, 159102.5, 160102.5, 161102.5, 162102.5, 163102.5, 164102.5, 165102.5, 166102.5, 167102.5, 168102.5, 169102.5, 170102.5, 171102.5, 172102.5, 173102.5, 174102.5, 175102.5, 176102.5, 177102.5, 178102.5, 179102.5, 180102.5, 181102.5, 182102.5, 183102.5, 184102.5, 185102.5, 186102.5, 187102.5, 188102.5, 189102.5, 190102.5, 191102.5, 192102.5, 193102.5, 194102.5, 195102.5, 196102.5, 197102.5, 198102.5, 199102.5, 200102.5, 201102.5, 202102.5, 203102.5, 204102.5, 205102.5, 206102.5, 207102.5, 208102.5, 209102.5, 210102.5, 211102.5, 212102.5, 213102.5, 214102.5, 215102.5, 216102.5, 217102.5, 218102.5, 219102.5, 220102.5, 221102.5, 222102.5, 223102.5, 224102.5, 225102.5, 226102.5, 227102.5, 228102.5, 229102.5, 230102.5, 231102.5, 232102.5, 233102.5, 234102.5, 235102.5, 236102.5, 237102.5, 238102.5, 239102.5, 240102.5, 241102.5, 242102.5, 243102.5, 244102.5, 245102.5, 246102.5, 247102.5, 248102.5, 249102.5, 250102.5, 251102.5, 252102.5, 253102.5, 254102.5, 255102.5, 256102.5, 257102.5, 258102.5, 259102.5, 260102.5, 261102.5, 262102.5, 263102.5, 264102.5, 265102.5, 266102.5, 267102.5, 268102.5, 269102.5, 270102.5, 271102.5],
      "WindowCenter": [4311.0, 4308.0, 4296.0, 4286.0, 4298.0, 4284.0, 4298.0, 4287.0, 4288.0, 4287.0, 4297.0, 4274.0, 4285.0, 4272.0, 4272.0, 4285.0, 4276.0, 4272.0, 4289.0, 4289.0, 4295.0, 4298.0, 4297.0, 4295.0, 4297.0, 4298.0, 4298.0, 4298.0, 4296.0, 4299.0, 4287.0, 4296.0, 4296.0, 4287.0, 4298.0, 4297.0, 4296.0, 4297.0, 4286.0, 4274.0, 4300.0, 4289.0, 4297.0, 4298.0, 4285.0, 4283.0, 4272.0, 4270.0, 4286.0, 4297.0, 4300.0, 4299.0, 4300.0, 4288.0, 4287.0, 4289.0, 4298.0, 4285.0, 4276.0, 4286.0, 4287.0, 4274.0, 4285.0, 4285.0, 4287.0, 4285.0, 4298.0, 4299.0, 4286.0, 4301.0, 4285.0, 4289.0, 4301.0, 4289.0, 4285.0, 4286.0, 4286.0, 4287.0, 4276.0, 4288.0, 4286.0, 4273.0, 4298.0, 4290.0, 4285.0, 4290.0, 4287.0, 4289.0, 4274.0, 4262.0, 4272.0, 4261.0, 4275.0, 4286.0, 4286.0, 4289.0, 4286.0, 4298.0, 4303.0, 4288.0, 4291.0, 4288.0, 4292.0, 4298.0, 4290.0, 4289.0, 4288.0, 4290.0, 4276.0, 4285.0, 4274.0, 4285.0, 4285.0, 4289.0, 4276.0, 4287.0, 4271.0, 4286.0, 4274.0, 4284.0, 4286.0, 4288.0, 4286.0, 4289.0, 4287.0, 4288.0, 4288.0, 4298.0, 4298.0, 4291.0, 4288.0, 4288.0, 4276.0, 4272.0, 4273.0, 4274.0, 4272.0, 4275.0, 4275.0, 4288.0, 4286.0, 4287.0, 4286.0, 4290.0, 4287.0, 4286.0, 4285.0, 4300.0, 4288.0, 4276.0, 4289.0, 4286.0, 4287.0, 4275.0, 4276.0, 4289.0, 4285.0, 4289.0, 4286.0, 4300.0, 4287.0, 4290.0, 4286.0, 4287.0, 4264.0, 4272.0, 4271.0, 4274.0, 4272.0, 4275.0, 4274.0, 4299.0, 4291.0, 4284.0, 4291.0, 4286.0, 4296.0, 4286.0, 4272.0, 4273.0, 4287.0, 4274.0, 4270.0, 4260.0, 4259.0, 4273.0, 4273.0, 4277.0, 4274.0, 4275.0, 4277.0, 4275.0, 4277.0, 4287.0, 4287.0, 4286.0, 4289.0, 4288.0, 4288.0, 4277.0, 4278.0, 4288.0, 4288.0, 4275.0, 4273.0, 4276.0, 4259.0, 4261.0, 4266.0, 4287.0, 4288.0, 4287.0, 4288.0, 4276.0, 4274.0, 4275.0, 4273.0, 4272.0, 4275.0, 4274.0, 4274.0, 4274.0, 4275.0, 4275.0, 4263.0, 4271.0, 4273.0, 4263.0, 4261.0, 4262.0, 4274.0, 4261.0, 4262.0, 4276.0, 4284.0, 4274.0, 4289.0, 4290.0, 4299.0, 4291.0, 4321.0, 4282.0, 4273.0, 4282.0, 4272.0, 4283.0, 4269.0, 4271.0, 4259.0, 4271.0, 4271.0, 4273.0, 4272.0, 4273.0, 4274.0, 4276.0, 4274.0, 4287.0, 4287.0, 4284.0, 4275.0, 4270.0, 4260.0, 4261.0],
