{
  "AcquisitionMatrixPE": 106,
  "AcquisitionNumber": 1,
  "AcquisitionTime": "16:43:54.022500",
  "BandwidthPerPixelPhaseEncode": 13.477,
  "BaseResolution": 106,
  "BodyPartExamined": "BRAIN",
  "CoilCombinationMethod": "Sum of Squares",
  "ConsistencyInfo": "N4_VE11C_LATEST_20160120",
  "ConversionSoftware": "dcm2niix",
  "ConversionSoftwareVersion": "v1.0.20220720",
  "DerivedVendorReportedEchoSpacing": 0.000700005,
  "DeviceSerialNumber": "166108",
  "DwellTime": 2.6e-06,
  "EchoTime": 0.03,
  "EchoTrainLength": 80,
  "EffectiveEchoSpacing": 0.000700005,
  "FlipAngle": 62,
  "HeudiconvVersion": "1.3.0",
  "ImageComments": "Unaliased MB4/PE3/LB",
  "ImageOrientationPatientDICOM": [1, 0, 0, 0, 0.992966, -0.118404],
  "ImageOrientationText": "Tra>Cor(-6.8)",
  "ImageType": [
    "ORIGINAL",
    "PRIMARY",
    "M",
    "MB",
    "ND",
    "MOSAIC"
],
  "ImagingFrequency": 123.244,
  "InPlanePhaseEncodingDirectionDICOM": "COL",
  "InstitutionAddress": "Bedford Way 26,London,London,GB,WC1H 0AP",
  "InstitutionName": "University College",
  "InstitutionalDepartmentName": "Department",
  "MRAcquisitionType": "2D",
  "MagneticFieldStrength": 3,
  "Manufacturer": "Siemens",
  "ManufacturersModelName": "Prisma",
  "MatrixCoilMode": "SENSE",
  "Modality": "MR",
  "MultibandAccelerationFactor": 4,
  "NonlinearGradientCorrection": false,
  "PartialFourier": 0.75,
  "PatientPosition": "HFS",
  "PercentPhaseFOV": 100,
  "PercentSampling": 100,
  "PhaseEncodingDirection": "j-",
  "PhaseEncodingSteps": 80,
  "PhaseResolution": 1,
  "PixelBandwidth": 1815,
  "ProcedureStepDescription": "Egor^MovieProject2",
  "ProtocolName": "func-bold_task-motor_run-02",
  "PulseSequenceDetails": "%CustomerSeq%\\cmrr_mbep2d_bold",
  "ReceiveCoilActiveElements": "HEA;HEP",
  "ReceiveCoilName": "Head_32",
  "ReconMatrixPE": 106,
  "RepetitionTime": 1,
  "SAR": 0.0416624,
  "ScanOptions": "PFP\\FS\\EXT",
  "ScanningSequence": "EP",
  "SequenceName": "epfid2d1_106",
  "SequenceVariant": "SK\\SS",
  "SeriesDescription": "func-bold_task-motor_run-02",
  "SeriesNumber": 6,
  "ShimSetting": [-1509, 557, 7348, -47, -68, 179, 150, -6],
  "SliceThickness": 2,
  "SliceTiming": [0, 0.5325, 0.0875, 0.6225, 0.1775, 0.7125, 0.2675, 0.8, 0.355, 0.89, 0.445, 0, 0.5325, 0.0875, 0.6225, 0.1775, 0.7125, 0.2675, 0.8, 0.355, 0.89, 0.445, 0, 0.5325, 0.0875, 0.6225, 0.1775, 0.7125, 0.2675, 0.8, 0.355, 0.89, 0.445, 0, 0.5325, 0.0875, 0.6225, 0.1775, 0.7125, 0.2675, 0.8, 0.355, 0.89, 0.445],
  "SoftwareVersions": "syngo MR E11",
  "SpacingBetweenSlices": 2,
  "StationName": "AWP166108",
  "TaskName": "somatotopy",
  "TotalReadoutTime": 0.0735005,
  "TxRefAmp": 239.986,
  "WipMemBlock": "e57b9c02-6a81-4c2b-9978-69d53121e516||Sequence: R016 ve11c/master r/e634e98; Dec 19 2017 11:00:25 by eja",
  "dcmmeta_affine": [
    [-2.0, 0.0, 0.0, 106.0],
    [0.0, 1.9859310388565063, -0.2368079423904419, -93.91197967529297],
    [0.0, 0.2368079274892807, 1.9859310388565063, -14.010324478149414],
    [0.0, 0.0, 0.0, 1.0]
],
  "dcmmeta_reorient_transform": [
    [0.0, -1.0, 0.0, 105.0],
    [1.0, 0.0, 0.0, 0.0],
    [0.0, 0.0, 1.0, 0.0],
    [0.0, 0.0, 0.0, 1.0]
],
  "dcmmeta_shape": [106, 106, 44, 469],
  "dcmmeta_slice_dim": 2,
  "dcmmeta_version": 0.6,
  "global": {
    "const": {
      "AcquisitionMatrix": [106, 0, 0, 106],
      "AngioFlag": "N",
      "BitsAllocated": 16,
      "BitsStored": 16,
      "BodyPartExamined": "BRAIN",
      "CardiacNumberOfImages": 1,
      "Columns": 742,
      "EchoNumbers": 1,
      "EchoTime": 30.0,
      "EchoTrainLength": 80,
      "FlipAngle": 62.0,
      "HighBit": 15,
      "ImageOrientationPatient": [1.0, 0.0, 0.0, 0.0, 0.99296550822323, -0.1184039673279],
      "ImagePositionPatient": [-742.0, -746.13683810902, 86.159431687379],
      "ImageType": [
        "ORIGINAL",
        "PRIMARY",
        "M",
        "MB",
        "ND",
        "MOSAIC"
],
      "ImagedNucleus": "1H",
      "ImagingFrequency": 123.243634,
      "InPlanePhaseEncodingDirection": "COL",
      "MRAcquisitionType": "2D",
      "MagneticFieldStrength": 3.0,
      "Manufacturer": "SIEMENS",
      "ManufacturerModelName": "Prisma",
      "Modality": "MR",
      "NominalInterval": 0,
      "NumberOfAverages": 1.0,
      "NumberOfPhaseEncodingSteps": 80,
      "PercentPhaseFieldOfView": 100.0,
      "PercentSampling": 100.0,
      "PerformedProcedureStepStartTime": "161509.413000",
      "PhotometricInterpretation": "MONOCHROME2",
      "PixelBandwidth": 1815.0,
      "PixelRepresentation": 0,
      "PixelSpacing": [2.0, 2.0],
      "ProtocolName": "func-bold_task-motor_run-02",
      "RepetitionTime": 1000.0,
      "Rows": 742,
      "SAR": 0.04166235889935,
      "SamplesPerPixel": 1,
      "ScanOptions": [
        "PFP",
        "FS",
        "EXT"
],
      "ScanningSequence": "EP",
      "SequenceName": "epfid2d1_106",
      "SequenceVariant": [
        "SK",
        "SS"
],
      "SeriesDescription": "func-bold_task-motor_run-02",
      "SeriesNumber": 6,
      "SeriesTime": "164417.457000",
      "SliceLocation": -2.7922179278902,
      "SliceThickness": 2.0,
      "SmallestImagePixelValue": 0,
      "SoftwareVersions": "syngo MR E11",
      "SpacingBetweenSlices": 2.0000000283456,
      "SpecificCharacterSet": "ISO_IR 100",
      "StudyID": "1",
      "StudyTime": "161509.292000",
      "TransmitCoilName": "Body",
      "VariableFlipAngleFlag": "N",
      "WindowCenterWidthExplanation": "Algo1",
      "dBdt": 0.0},
    "slices": {}
  },
  "time": {
    "samples": {
      "AcquisitionNumber": [1, 2, 3, 4, 5, 6, 7, 8, 9, 10, 11, 12, 13, 14, 15, 16, 17, 18, 19, 20, 21, 22, 23, 24, 25, 26, 27, 28, 29, 30, 31, 32, 33, 34, 35, 36, 37, 38, 39, 40, 41, 42, 43, 44, 45, 46, 47, 48, 49, 50, 51, 52, 53, 54, 55, 56, 57, 58, 59, 60, 61, 62, 63, 64, 65, 66, 67, 68, 69, 70, 71, 72, 73, 74, 75, 76, 77, 78, 79, 80, 81, 82, 83, 84, 85, 86, 87, 88, 89, 90, 91, 92, 93, 94, 95, 96, 97, 98, 99, 100, 101, 102, 103, 104, 105, 106, 107, 108, 109, 110, 111, 112, 113, 114, 115, 116, 117, 118, 119, 120, 121, 122, 123, 124, 125, 126, 127, 128, 129, 130, 131, 132, 133, 134, 135, 136, 137, 138, 139, 140, 141, 142, 143, 144, 145, 146, 147, 148, 149, 150, 151, 152, 153, 154, 155, 156, 157, 158, 159, 160, 161, 162, 163, 164, 165, 166, 167, 168, 169, 170, 171, 172, 173, 174, 175, 176, 177, 178, 179, 180, 181, 182, 183, 184, 185, 186, 187, 188, 189, 190, 191, 192, 193, 194, 195, 196, 197, 198, 199, 200, 201, 202, 203, 204, 205, 206, 207, 208, 209, 210, 211, 212, 213, 214, 215, 216, 217, 218, 219, 220, 221, 222, 223, 224, 225, 226, 227, 228, 229, 230, 231, 232, 233, 234, 235, 236, 237, 238, 239, 240, 241, 242, 243, 244, 245, 246, 247, 248, 249, 250, 251, 252, 253, 254, 255, 256, 257, 258, 259, 260, 261, 262, 263, 264, 265, 266, 267, 268, 269, 270, 271, 272, 273, 274, 275, 276, 277, 278, 279, 280, 281, 282, 283, 284, 285, 286, 287, 288, 289, 290, 291, 292, 293, 294, 295, 296, 297, 298, 299, 300, 301, 302, 303, 304, 305, 306, 307, 308, 309, 310, 311, 312, 313, 314, 315, 316, 317, 318, 319, 320, 321, 322, 323, 324, 325, 326, 327, 328, 329, 330, 331, 332, 333, 334, 335, 336, 337, 338, 339, 340, 341, 342, 343, 344, 345, 346, 347, 348, 349, 350, 351, 352, 353, 354, 355, 356, 357, 358, 359, 360, 361, 362, 363, 364, 365, 366, 367, 368, 369, 370, 371, 372, 373, 374, 375, 376, 377, 378, 379, 380, 381, 382, 383, 384, 385, 386, 387, 388, 389, 390, 391, 392, 393, 394, 395, 396, 397, 398, 399, 400, 401, 402, 403, 404, 405, 406, 407, 408, 409, 410, 411, 412, 413, 414, 415, 416, 417, 418, 419, 420, 421, 422, 423, 424, 425, 426, 427, 428, 429, 430, 431, 432, 433, 434, 435, 436, 437, 438, 439, 440, 441, 442, 443, 444, 445, 446, 447, 448, 449, 450, 451, 452, 453, 454, 455, 456, 457, 458, 459, 460, 461, 462, 463, 464, 465, 466, 467, 468, 469],
      "AcquisitionTime": ["164354.022500", "164355.022500", "164356.022500", "164357.022500", "164358.022500", "164359.022500", "164400.022500", "164401.022500", "164402.022500", "164403.022500", "164404.022500", "164405.022500", "164406.022500", "164407.022500", "164408.022500", "164409.022500", "164410.022500", "164411.022500", "164412.022500", "164413.022500", "164414.022500", "164415.022500", "164416.022500", "164417.022500", "164418.022500", "164419.022500", "164420.022500", "164421.022500", "164422.022500", "164423.022500", "164424.022500", "164425.022500", "164426.022500", "164427.022500", "164428.022500", "164429.022500", "164430.022500", "164431.022500", "164432.022500", "164433.022500", "164434.022500", "164435.022500", "164436.022500", "164437.022500", "164438.022500", "164439.022500", "164440.022500", "164441.022500", "164442.022500", "164443.022500", "164444.022500", "164445.022500", "164446.022500", "164447.022500", "164448.022500", "164449.022500", "164450.022500", "164451.022500", "164452.022500", "164453.022500", "164454.022500", "164455.022500", "164456.022500", "164457.022500", "164458.022500", "164459.022500", "164500.022500", "164501.022500", "164502.022500", "164503.022500", "164504.022500", "164505.022500", "164506.022500", "164507.022500", "164508.022500", "164509.022500", "164510.022500", "164511.022500", "164512.022500", "164513.022500", "164514.022500", "164515.022500", "164516.022500", "164517.022500", "164518.022500", "164519.022500", "164520.022500", "164521.022500", "164522.022500", "164523.022500", "164524.022500", "164525.022500", "164526.022500", "164527.022500", "164528.022500", "164529.022500", "164530.022500", "164531.022500", "164532.022500", "164533.022500", "164534.022500", "164535.022500", "164536.022500", "164537.022500", "164538.022500", "164539.022500", "164540.022500", "164541.022500", "164542.022500", "164543.022500", "164544.022500", "164545.022500", "164546.022500", "164547.022500", "164548.022500", "164549.022500", "164550.022500", "164551.022500", "164552.022500", "164553.022500", "164554.022500", "164555.022500", "164556.022500", "164557.022500", "164558.022500", "164559.022500", "164600.022500", "164601.022500", "164602.022500", "164603.022500", "164604.022500", "164605.022500", "164606.022500", "164607.022500", "164608.022500", "164609.022500", "164610.022500", "164611.022500", "164612.022500", "164613.022500", "164614.022500", "164615.022500", "164616.022500", "164617.022500", "164618.022500", "164619.022500", "164620.022500", "164621.022500", "164622.022500", "164623.022500", "164624.022500", "164625.022500", "164626.022500", "164627.022500", "164628.022500", "164629.022500", "164630.022500", "164631.022500", "164632.022500", "164633.022500", "164634.022500", "164635.022500", "164636.022500", "164637.022500", "164638.022500", "164639.022500", "164640.022500", "164641.022500", "164642.022500", "164643.022500", "164644.022500", "164645.022500", "164646.022500", "164647.022500", "164648.022500", "164649.022500", "164650.022500", "164651.022500", "164652.022500", "164653.022500", "164654.022500", "164655.022500", "164656.022500", "164657.022500", "164658.022500", "164659.022500", "164700.022500", "164701.022500", "164702.022500", "164703.022500", "164704.022500", "164705.022500", "164706.022500", "164707.022500", "164708.022500", "164709.022500", "164710.022500", "164711.022500", "164712.022500", "164713.022500", "164714.022500", "164715.022500", "164716.022500", "164717.022500", "164718.022500", "164719.022500", "164720.022500", "164721.022500", "164722.022500", "164723.022500", "164724.022500", "164725.022500", "164726.022500", "164727.022500", "164728.022500", "164729.022500", "164730.022500", "164731.022500", "164732.022500", "164733.022500", "164734.022500", "164735.022500", "164736.022500", "164737.022500", "164738.022500", "164739.022500", "164740.022500", "164741.022500", "164742.022500", "164743.022500", "164744.022500", "164745.022500", "164746.022500", "164747.022500", "164748.022500", "164749.022500", "164750.022500", "164751.022500", "164752.022500", "164753.022500", "164754.022500", "164755.022500", "164756.022500", "164757.022500", "164758.022500", "164759.022500", "164800.022500", "164801.022500", "164802.022500", "164803.022500", "164804.022500", "164805.022500", "164806.022500", "164807.022500", "164808.022500", "164809.022500", "164810.022500", "164811.022500", "164812.022500", "164813.022500", "164814.022500", "164815.022500", "164816.022500", "164817.022500", "164818.022500", "164819.022500", "164820.022500", "164821.022500", "164822.022500", "164823.022500", "164824.022500", "164825.022500", "164826.022500", "164827.022500", "164828.022500", "164829.022500", "164830.022500", "164831.022500", "164832.022500", "164833.022500", "164834.022500", "164835.022500", "164836.022500", "164837.022500", "164838.022500", "164839.022500", "164840.022500", "164841.022500", "164842.022500", "164843.022500", "164844.022500", "164845.022500", "164846.022500", "164847.022500", "164848.022500", "164849.022500", "164850.022500", "164851.022500", "164852.022500", "164853.022500", "164854.022500", "164855.022500", "164856.022500", "164857.022500", "164858.022500", "164859.022500", "164900.022500", "164901.022500", "164902.022500", "164903.022500", "164904.022500", "164905.022500", "164906.022500", "164907.022500", "164908.022500", "164909.022500", "164910.022500", "164911.022500", "164912.022500", "164913.022500", "164914.022500", "164915.022500", "164916.022500", "164917.022500", "164918.022500", "164919.022500", "164920.022500", "164921.022500", "164922.022500", "164923.022500", "164924.022500", "164925.022500", "164926.022500", "164927.022500", "164928.022500", "164929.022500", "164930.022500", "164931.022500", "164932.022500", "164933.022500", "164934.022500", "164935.022500", "164936.022500", "164937.022500", "164938.022500", "164939.022500", "164940.022500", "164941.022500", "164942.022500", "164943.022500", "164944.022500", "164945.022500", "164946.022500", "164947.022500", "164948.022500", "164949.022500", "164950.022500", "164951.022500", "164952.022500", "164953.022500", "164954.022500", "164955.022500", "164956.022500", "164957.022500", "164958.022500", "164959.022500", "165000.022500", "165001.022500", "165002.022500", "165003.022500", "165004.022500", "165005.022500", "165006.022500", "165007.022500", "165008.022500", "165009.022500", "165010.022500", "165011.022500", "165012.022500", "165013.022500", "165014.022500", "165015.022500", "165016.022500", "165017.022500", "165018.022500", "165019.022500", "165020.022500", "165021.022500", "165022.022500", "165023.022500", "165024.022500", "165025.022500", "165026.022500", "165027.022500", "165028.022500", "165029.022500", "165030.022500", "165031.022500", "165032.022500", "165033.022500", "165034.022500", "165035.022500", "165036.022500", "165037.022500", "165038.022500", "165039.022500", "165040.022500", "165041.022500", "165042.022500", "165043.022500", "165044.022500", "165045.022500", "165046.022500", "165047.022500", "165048.022500", "165049.022500", "165050.022500", "165051.022500", "165052.022500", "165053.022500", "165054.022500", "165055.022500", "165056.022500", "165057.022500", "165058.022500", "165059.022500", "165100.022500", "165101.022500", "165102.022500", "165103.022500", "165104.022500", "165105.022500", "165106.022500", "165107.022500", "165108.022500", "165109.022500", "165110.022500", "165111.022500", "165112.022500", "165113.022500", "165114.022500", "165115.022500", "165116.022500", "165117.022500", "165118.022500", "165119.022500", "165120.022500", "165121.022500", "165122.022500", "165123.022500", "165124.022500", "165125.022500", "165126.022500", "165127.022500", "165128.022500", "165129.022500", "165130.022500", "165131.022500", "165132.022500", "165133.022500", "165134.022500", "165135.022500", "165136.022500", "165137.022500", "165138.022500", "165139.022500", "165140.022500", "165141.022500", "165142.022500"],
      "ContentTime": ["164417.459000", "164417.462000", "164417.475000", "164417.477000", "164417.480000", "164417.482000", "164417.491000", "164417.494000", "164417.496000", "164417.499000", "164417.501000", "164417.504000", "164417.506000", "164417.508000", "164417.511000", "164417.513000", "164417.516000", "164417.518000", "164417.521000", "164417.523000", "164417.526000", "164417.528000", "164437.433000", "164437.445000", "164437.447000", "164437.450000", "164437.453000", "164437.455000", "164437.457000", "164437.460000", "164437.462000", "164437.465000", "164437.467000", "164437.470000", "164437.472000", "164437.475000", "164437.477000", "164437.479000", "164437.482000", "164437.484000", "164437.487000", "164437.489000", "164457.433000", "164457.436000", "164457.438000", "164457.441000", "164457.443000", "164457.446000", "164457.448000", "164457.451000", "164457.453000", "164457.456000", "164457.458000", "164457.460000", "164457.463000", "164457.465000", "164457.468000", "164457.470000", "164457.472000", "164457.475000", "164457.477000", "164457.480000", "164517.432000", "164517.435000", "164517.437000", "164517.440000", "164517.442000", "164517.445000", "164517.447000", "164517.450000", "164517.452000", "164517.455000", "164517.457000", "164517.459000", "164517.462000", "164517.464000", "164517.467000", "164517.469000", "164517.472000", "164517.474000", "164517.477000", "164517.479000", "164537.432000", "164537.435000", "164537.437000", "164537.440000", "164537.442000", "164537.445000", "164537.447000", "164537.450000", "164537.452000", "164537.455000", "164537.457000", "164537.460000", "164537.462000", "164537.465000", "164537.467000", "164537.470000", "164537.472000", "164537.474000", "164537.477000", "164537.479000", "164557.432000", "164557.435000", "164557.437000", "164557.440000", "164557.442000", "164557.445000", "164557.447000", "164557.450000", "164557.452000", "164557.454000", "164557.457000", "164557.459000", "164557.475000", "164557.477000", "164557.480000", "164557.482000", "164557.485000", "164557.498000", "164557.501000", "164557.503000", "164617.432000", "164617.435000", "164617.437000", "164617.440000", "164617.442000", "164617.445000", "164617.447000", "164617.450000", "164617.452000", "164617.455000", "164617.457000", "164617.459000", "164617.462000", "164617.464000", "164617.467000", "164617.469000", "164617.472000", "164617.474000", "164617.477000", "164617.479000", "164637.433000", "164637.436000", "164637.438000", "164637.441000", "164637.443000", "164637.446000", "164637.448000", "164637.451000", "164637.453000", "164637.456000", "164637.458000", "164637.461000", "164637.463000", "164637.466000", "164637.468000", "164637.470000", "164637.473000", "164637.475000", "164637.478000", "164637.480000", "164657.433000", "164657.436000", "164657.439000", "164657.441000", "164657.444000", "164657.446000", "164657.449000", "164657.451000", "164657.453000", "164657.456000", "164657.458000", "164657.461000", "164657.463000", "164657.466000", "164657.468000", "164657.470000", "164657.473000", "164657.475000", "164657.478000", "164657.480000", "164717.433000", "164717.436000", "164717.439000", "164717.441000", "164717.444000", "164717.446000", "164717.448000", "164717.451000", "164717.453000", "164717.456000", "164717.458000", "164717.461000", "164717.463000", "164717.475000", "164717.477000", "164717.480000", "164717.482000", "164717.485000", "164717.487000", "164717.489000", "164737.433000", "164737.435000", "164737.438000", "164737.440000", "164737.443000", "164737.445000", "164737.448000", "164737.450000", "164737.453000", "164737.455000", "164737.458000", "164737.460000", "164737.463000", "164737.465000", "164737.468000", "164737.470000", "164737.473000", "164737.475000", "164737.478000", "164737.480000", "164757.432000", "164757.435000", "164757.437000", "164757.440000", "164757.442000", "164757.445000", "164757.447000", "164757.450000", "164757.452000", "164757.455000", "164757.457000", "164757.459000", "164757.462000", "164757.464000", "164757.467000", "164757.469000", "164757.472000", "164757.474000", "164757.476000", "164757.479000", "164817.432000", "164817.435000", "164817.437000", "164817.440000", "164817.442000", "164817.445000", "164817.447000", "164817.450000", "164817.452000", "164817.455000", "164817.457000", "164817.459000", "164817.462000", "164817.464000", "164817.467000", "164817.469000", "164817.472000", "164817.474000", "164817.476000", "164817.479000", "164837.433000", "164837.435000", "164837.438000", "164837.440000", "164837.443000", "164837.445000", "164837.447000", "164837.450000", "164837.453000", "164837.455000", "164837.457000", "164837.460000", "164837.462000", "164837.465000", "164837.467000", "164837.470000", "164837.472000", "164837.475000", "164837.477000", "164837.479000", "164857.433000", "164857.436000", "164857.438000", "164857.441000", "164857.443000", "164857.446000", "164857.448000", "164857.451000", "164857.453000", "164857.456000", "164857.458000", "164857.461000", "164857.463000", "164857.466000", "164857.468000", "164857.470000", "164857.473000", "164857.475000", "164857.478000", "164857.480000", "164917.433000", "164917.436000", "164917.438000", "164917.441000", "164917.443000", "164917.446000", "164917.448000", "164917.451000", "164917.453000", "164917.456000", "164917.458000", "164917.461000", "164917.463000", "164917.465000", "164917.468000", "164917.470000", "164917.473000", "164917.475000", "164917.478000", "164917.480000", "164937.433000", "164937.436000", "164937.439000", "164937.441000", "164937.444000", "164937.446000", "164937.449000", "164937.451000", "164937.453000", "164937.456000", "164937.458000", "164937.461000", "164937.463000", "164937.466000", "164937.468000", "164937.471000", "164937.473000", "164937.475000", "164937.478000", "164937.480000", "164957.433000", "164957.435000", "164957.438000", "164957.440000", "164957.443000", "164957.445000", "164957.448000", "164957.450000", "164957.453000", "164957.455000", "164957.458000", "164957.460000", "164957.462000", "164957.465000", "164957.467000", "164957.470000", "164957.472000", "164957.475000", "164957.477000", "164957.480000", "165017.432000", "165017.435000", "165017.438000", "165017.440000", "165017.443000", "165017.445000", "165017.448000", "165017.450000", "165017.453000", "165017.455000", "165017.457000", "165017.460000", "165017.462000", "165017.465000", "165017.467000", "165017.470000", "165017.472000", "165017.475000", "165017.477000", "165017.480000", "165037.432000", "165037.435000", "165037.438000", "165037.440000", "165037.442000", "165037.445000", "165037.447000", "165037.450000", "165037.452000", "165037.455000", "165037.457000", "165037.460000", "165037.462000", "165037.465000", "165037.467000", "165037.470000", "165037.472000", "165037.475000", "165037.477000", "165037.480000", "165057.432000", "165057.435000", "165057.438000", "165057.440000", "165057.443000", "165057.445000", "165057.448000", "165057.450000", "165057.453000", "165057.455000", "165057.458000", "165057.460000", "165057.462000", "165057.465000", "165057.467000", "165057.470000", "165057.472000", "165057.475000", "165057.477000", "165057.480000", "165117.433000", "165117.436000", "165117.438000", "165117.441000", "165117.443000", "165117.446000", "165117.448000", "165117.451000", "165117.454000", "165117.456000", "165117.459000", "165117.461000", "165117.464000", "165117.466000", "165117.469000", "165117.471000", "165117.474000", "165117.476000", "165117.479000", "165117.481000", "165137.433000", "165137.436000", "165137.439000", "165137.441000", "165137.444000", "165137.446000", "165137.448000", "165137.451000", "165137.453000", "165137.456000", "165137.459000", "165137.461000", "165137.463000", "165137.466000", "165137.468000", "165137.471000", "165137.473000", "165137.476000", "165137.478000", "165137.481000", "165144.004000", "165144.007000", "165144.011000", "165144.014000", "165144.017000", "165144.019000", "165144.023000"],
