{
  "AcquisitionMatrixPE": 106,
  "AcquisitionNumber": 1,
  "AcquisitionTime": "17:31:58.805000",
  "BandwidthPerPixelPhaseEncode": 13.477,
  "BaseResolution": 106,
  "BodyPartExamined": "BRAIN",
  "CoilCombinationMethod": "Sum of Squares",
  "ConsistencyInfo": "N4_VE11C_LATEST_20160120",
  "ConversionSoftware": "dcm2niix",
  "ConversionSoftwareVersion": "v1.0.20220720",
  "DerivedVendorReportedEchoSpacing": 0.000700005,
  "DeviceSerialNumber": "166108",
  "DwellTime": 2.6e-06,
  "EchoTime": 0.03,
  "EchoTrainLength": 80,
  "EffectiveEchoSpacing": 0.000700005,
  "FlipAngle": 62,
  "HeudiconvVersion": "1.3.0",
  "ImageComments": "Unaliased MB4/PE3/LB",
  "ImageOrientationPatientDICOM": [1, 0, 0, 0, 0.941471, -0.337095],
  "ImageOrientationText": "Tra>Cor(-19.7)",
  "ImageType": [
    "ORIGINAL",
    "PRIMARY",
    "M",
    "MB",
    "ND",
    "MOSAIC"
],
  "ImagingFrequency": 123.244,
  "InPlanePhaseEncodingDirectionDICOM": "COL",
  "InstitutionAddress": "Bedford Way 26,London,London,GB,WC1H 0AP",
  "InstitutionName": "University College",
  "InstitutionalDepartmentName": "Department",
  "MRAcquisitionType": "2D",
  "MagneticFieldStrength": 3,
  "Manufacturer": "Siemens",
  "ManufacturersModelName": "Prisma",
  "MatrixCoilMode": "SENSE",
  "Modality": "MR",
  "MultibandAccelerationFactor": 4,
  "NonlinearGradientCorrection": false,
  "PartialFourier": 0.75,
  "PatientPosition": "HFS",
  "PercentPhaseFOV": 100,
  "PercentSampling": 100,
  "PhaseEncodingDirection": "j-",
  "PhaseEncodingSteps": 80,
  "PhaseResolution": 1,
  "PixelBandwidth": 1815,
  "ProcedureStepDescription": "Egor^MovieProject2",
  "ProtocolName": "func-bold_task-tono_run-02",
  "PulseSequenceDetails": "%CustomerSeq%\\cmrr_mbep2d_bold",
  "ReceiveCoilActiveElements": "HEA;HEP",
  "ReceiveCoilName": "Head_32",
  "ReconMatrixPE": 106,
  "RepetitionTime": 1,
  "SAR": 0.0415224,
  "ScanOptions": "PFP\\FS\\EXT",
  "ScanningSequence": "EP",
  "SequenceName": "epfid2d1_106",
  "SequenceVariant": "SK\\SS",
  "SeriesDescription": "func-bold_task-tono_run-02",
  "SeriesNumber": 20,
  "ShimSetting": [-1521, 569, 7408, 287, -186, 229, 142, -45],
  "SliceThickness": 2,
  "SliceTiming": [0, 0.535, 0.09, 0.625, 0.18, 0.7125, 0.2675, 0.8025, 0.3575, 0.8925, 0.445, 0, 0.535, 0.09, 0.625, 0.18, 0.7125, 0.2675, 0.8025, 0.3575, 0.8925, 0.445, 0, 0.535, 0.09, 0.625, 0.18, 0.7125, 0.2675, 0.8025, 0.3575, 0.8925, 0.445, 0, 0.535, 0.09, 0.625, 0.18, 0.7125, 0.2675, 0.8025, 0.3575, 0.8925, 0.445],
  "SoftwareVersions": "syngo MR E11",
  "SpacingBetweenSlices": 2,
  "StationName": "AWP166108",
  "TaskName": "tonotopy",
  "TotalReadoutTime": 0.0735005,
  "TxRefAmp": 239.986,
  "WipMemBlock": "891d1032-18cb-4f24-80f4-e68dfb5ca2ad||Sequence: R016 ve11c/master r/e634e98; Dec 19 2017 11:00:25 by eja",
  "dcmmeta_affine": [
    [-2.0, 0.0, 0.0, 106.0],
    [0.0, 1.8829411268234253, -0.6741905808448792, -79.77949523925781],
    [0.0, 0.6741905808448792, 1.8829411268234253, -65.96099853515625],
    [0.0, 0.0, 0.0, 1.0]
],
  "dcmmeta_reorient_transform": [
    [0.0, -1.0, 0.0, 105.0],
    [1.0, 0.0, 0.0, 0.0],
    [0.0, 0.0, 1.0, 0.0],
    [0.0, 0.0, 0.0, 1.0]
],
  "dcmmeta_shape": [106, 106, 44, 264],
  "dcmmeta_slice_dim": 2,
  "dcmmeta_version": 0.6,
  "global": {
    "const": {
      "AcquisitionMatrix": [106, 0, 0, 106],
      "AngioFlag": "N",
      "BitsAllocated": 16,
      "BitsStored": 16,
      "BodyPartExamined": "BRAIN",
      "CardiacNumberOfImages": 1,
      "Columns": 742,
      "EchoNumbers": 1,
      "EchoTime": 30.0,
      "EchoTrainLength": 80,
      "FlipAngle": 62.0,
      "HighBit": 15,
      "ImageOrientationPatient": [1.0, 0.0, 0.0, 0.0, 0.94147053802673, -0.3370952773737],
      "ImagePositionPatient": [-742.0, -716.70457923353, 219.22160247328],
      "ImageType": [
        "ORIGINAL",
        "PRIMARY",
        "M",
        "MB",
        "ND",
        "MOSAIC"
],
      "ImagedNucleus": "1H",
      "ImagingFrequency": 123.243649,
      "InPlanePhaseEncodingDirection": "COL",
      "MRAcquisitionType": "2D",
      "MagneticFieldStrength": 3.0,
      "Manufacturer": "SIEMENS",
      "ManufacturerModelName": "Prisma",
      "Modality": "MR",
      "NominalInterval": 0,
      "NumberOfAverages": 1.0,
      "NumberOfPhaseEncodingSteps": 80,
      "PercentPhaseFieldOfView": 100.0,
      "PercentSampling": 100.0,
      "PerformedProcedureStepStartTime": "161509.413000",
      "PhotometricInterpretation": "MONOCHROME2",
      "PixelBandwidth": 1815.0,
      "PixelRepresentation": 0,
      "PixelSpacing": [2.0, 2.0],
      "ProtocolName": "func-bold_task-tono_run-02",
      "RepetitionTime": 1000.0,
      "Rows": 742,
      "SAR": 0.04152242704647,
      "SamplesPerPixel": 1,
      "ScanOptions": [
        "PFP",
        "FS",
        "EXT"
],
      "ScanningSequence": "EP",
      "SequenceName": "epfid2d1_106",
      "SequenceVariant": [
        "SK",
        "SS"
],
      "SeriesDescription": "func-bold_task-tono_run-02",
      "SeriesNumber": 20,
      "SeriesTime": "173219.970000",
      "SliceLocation": -35.207048904135,
      "SliceThickness": 2.0,
      "SmallestImagePixelValue": 0,
      "SoftwareVersions": "syngo MR E11",
      "SpacingBetweenSlices": 2.0000000025727,
      "SpecificCharacterSet": "ISO_IR 100",
      "StudyID": "1",
      "StudyTime": "161509.292000",
      "TransmitCoilName": "Body",
      "VariableFlipAngleFlag": "N",
      "WindowCenterWidthExplanation": "Algo1",
      "dBdt": 0.0},
    "slices": {}
  },
  "time": {
    "samples": {
      "AcquisitionNumber": [1, 2, 3, 4, 5, 6, 7, 8, 9, 10, 11, 12, 13, 14, 15, 16, 17, 18, 19, 20, 21, 22, 23, 24, 25, 26, 27, 28, 29, 30, 31, 32, 33, 34, 35, 36, 37, 38, 39, 40, 41, 42, 43, 44, 45, 46, 47, 48, 49, 50, 51, 52, 53, 54, 55, 56, 57, 58, 59, 60, 61, 62, 63, 64, 65, 66, 67, 68, 69, 70, 71, 72, 73, 74, 75, 76, 77, 78, 79, 80, 81, 82, 83, 84, 85, 86, 87, 88, 89, 90, 91, 92, 93, 94, 95, 96, 97, 98, 99, 100, 101, 102, 103, 104, 105, 106, 107, 108, 109, 110, 111, 112, 113, 114, 115, 116, 117, 118, 119, 120, 121, 122, 123, 124, 125, 126, 127, 128, 129, 130, 131, 132, 133, 134, 135, 136, 137, 138, 139, 140, 141, 142, 143, 144, 145, 146, 147, 148, 149, 150, 151, 152, 153, 154, 155, 156, 157, 158, 159, 160, 161, 162, 163, 164, 165, 166, 167, 168, 169, 170, 171, 172, 173, 174, 175, 176, 177, 178, 179, 180, 181, 182, 183, 184, 185, 186, 187, 188, 189, 190, 191, 192, 193, 194, 195, 196, 197, 198, 199, 200, 201, 202, 203, 204, 205, 206, 207, 208, 209, 210, 211, 212, 213, 214, 215, 216, 217, 218, 219, 220, 221, 222, 223, 224, 225, 226, 227, 228, 229, 230, 231, 232, 233, 234, 235, 236, 237, 238, 239, 240, 241, 242, 243, 244, 245, 246, 247, 248, 249, 250, 251, 252, 253, 254, 255, 256, 257, 258, 259, 260, 261, 262, 263, 264],
      "AcquisitionTime": ["173158.805000", "173159.805000", "173200.805000", "173201.805000", "173202.805000", "173203.805000", "173204.805000", "173205.805000", "173206.805000", "173207.805000", "173208.805000", "173209.805000", "173210.805000", "173211.805000", "173212.805000", "173213.805000", "173214.805000", "173215.805000", "173216.805000", "173217.805000", "173218.805000", "173219.805000", "173220.805000", "173221.805000", "173222.805000", "173223.805000", "173224.805000", "173225.805000", "173226.805000", "173227.805000", "173228.805000", "173229.805000", "173230.805000", "173231.805000", "173232.805000", "173233.805000", "173234.805000", "173235.805000", "173236.805000", "173237.805000", "173238.805000", "173239.805000", "173240.805000", "173241.805000", "173242.805000", "173243.805000", "173244.805000", "173245.805000", "173246.805000", "173247.805000", "173248.805000", "173249.805000", "173250.805000", "173251.805000", "173252.805000", "173253.805000", "173254.805000", "173255.805000", "173256.805000", "173257.805000", "173258.805000", "173259.805000", "173300.805000", "173301.805000", "173302.805000", "173303.805000", "173304.805000", "173305.805000", "173306.805000", "173307.805000", "173308.805000", "173309.805000", "173310.805000", "173311.805000", "173312.805000", "173313.805000", "173314.805000", "173315.805000", "173316.805000", "173317.805000", "173318.805000", "173319.805000", "173320.805000", "173321.805000", "173322.805000", "173323.805000", "173324.805000", "173325.805000", "173326.805000", "173327.805000", "173328.805000", "173329.805000", "173330.805000", "173331.805000", "173332.805000", "173333.805000", "173334.805000", "173335.805000", "173336.805000", "173337.805000", "173338.805000", "173339.805000", "173340.805000", "173341.805000", "173342.805000", "173343.805000", "173344.805000", "173345.805000", "173346.805000", "173347.805000", "173348.805000", "173349.805000", "173350.805000", "173351.805000", "173352.805000", "173353.805000", "173354.805000", "173355.805000", "173356.805000", "173357.805000", "173358.805000", "173359.805000", "173400.805000", "173401.805000", "173402.805000", "173403.805000", "173404.805000", "173405.805000", "173406.805000", "173407.805000", "173408.805000", "173409.805000", "173410.805000", "173411.805000", "173412.805000", "173413.805000", "173414.805000", "173415.805000", "173416.805000", "173417.805000", "173418.805000", "173419.805000", "173420.805000", "173421.805000", "173422.805000", "173423.805000", "173424.805000", "173425.805000", "173426.805000", "173427.805000", "173428.805000", "173429.805000", "173430.805000", "173431.805000", "173432.805000", "173433.805000", "173434.805000", "173435.805000", "173436.805000", "173437.805000", "173438.805000", "173439.805000", "173440.805000", "173441.805000", "173442.805000", "173443.805000", "173444.805000", "173445.805000", "173446.805000", "173447.805000", "173448.805000", "173449.805000", "173450.805000", "173451.805000", "173452.805000", "173453.805000", "173454.805000", "173455.805000", "173456.805000", "173457.805000", "173458.805000", "173459.805000", "173500.805000", "173501.805000", "173502.805000", "173503.805000", "173504.805000", "173505.805000", "173506.805000", "173507.805000", "173508.805000", "173509.805000", "173510.805000", "173511.805000", "173512.805000", "173513.805000", "173514.805000", "173515.805000", "173516.805000", "173517.805000", "173518.805000", "173519.805000", "173520.805000", "173521.805000", "173522.805000", "173523.805000", "173524.805000", "173525.805000", "173526.805000", "173527.805000", "173528.805000", "173529.805000", "173530.805000", "173531.805000", "173532.805000", "173533.805000", "173534.805000", "173535.805000", "173536.805000", "173537.805000", "173538.805000", "173539.805000", "173540.805000", "173541.805000", "173542.805000", "173543.805000", "173544.805000", "173545.805000", "173546.805000", "173547.805000", "173548.805000", "173549.805000", "173550.805000", "173551.805000", "173552.805000", "173553.805000", "173554.805000", "173555.805000", "173556.805000", "173557.805000", "173558.805000", "173559.805000", "173600.805000", "173601.805000", "173602.805000", "173603.805000", "173604.805000", "173605.805000", "173606.805000", "173607.805000", "173608.805000", "173609.805000", "173610.805000", "173611.805000", "173612.805000", "173613.805000", "173614.805000", "173615.805000", "173616.805000", "173617.805000", "173618.805000", "173619.805000", "173620.805000", "173621.805000"],
      "ContentTime": ["173219.973000", "173219.975000", "173219.978000", "173219.980000", "173219.983000", "173219.994000", "173219.996000", "173220.000000", "173220.002000", "173220.005000", "173220.007000", "173220.010000", "173220.018000", "173220.021000", "173220.023000", "173220.026000", "173220.028000", "173220.031000", "173220.033000", "173220.036000", "173239.945000", "173239.948000", "173239.951000", "173239.953000", "173239.955000", "173239.958000", "173239.960000", "173239.963000", "173239.965000", "173239.968000", "173239.970000", "173239.973000", "173239.975000", "173239.978000", "173239.980000", "173239.983000", "173239.985000", "173239.988000", "173239.990000", "173239.992000", "173259.945000", "173259.948000", "173259.950000", "173259.953000", "173259.955000", "173259.958000", "173259.960000", "173259.963000", "173259.965000", "173259.967000", "173259.970000", "173259.972000", "173259.975000", "173259.977000", "173259.980000", "173259.982000", "173259.985000", "173259.987000", "173259.998000", "173300.001000", "173319.944000", "173319.947000", "173319.950000", "173319.952000", "173319.955000", "173319.957000", "173319.960000", "173319.962000", "173319.965000", "173319.967000", "173319.969000", "173319.972000", "173319.974000", "173319.977000", "173319.979000", "173319.982000", "173319.984000", "173319.987000", "173319.989000", "173319.991000", "173339.944000", "173339.947000", "173339.950000", "173339.952000", "173339.955000", "173339.957000", "173339.960000", "173339.962000", "173339.964000", "173339.967000", "173339.970000", "173339.972000", "173339.974000", "173339.977000", "173339.979000", "173339.982000", "173339.984000", "173339.987000", "173339.989000", "173339.992000", "173359.944000", "173359.947000", "173359.950000", "173359.952000", "173359.955000", "173359.957000", "173359.959000", "173359.962000", "173359.964000", "173359.967000", "173359.969000", "173359.979000", "173359.981000", "173359.984000", "173359.996000", "173359.998000", "173400.002000", "173400.004000", "173400.006000", "173400.009000", "173419.944000", "173419.947000", "173419.949000", "173419.952000", "173419.954000", "173419.957000", "173419.959000", "173419.962000", "173419.964000", "173419.966000", "173419.969000", "173419.971000", "173419.974000", "173419.976000", "173419.979000", "173419.981000", "173419.984000", "173419.986000", "173419.988000", "173419.991000", "173439.945000", "173439.947000", "173439.950000", "173439.952000", "173439.955000", "173439.957000", "173439.959000", "173439.962000", "173439.964000", "173439.967000", "173439.970000", "173439.972000", "173439.974000", "173439.977000", "173439.979000", "173439.982000", "173439.984000", "173439.987000", "173439.989000", "173439.992000", "173459.945000", "173459.948000", "173459.950000", "173459.953000", "173459.955000", "173459.958000", "173459.960000", "173459.963000", "173459.965000", "173459.968000", "173459.970000", "173459.973000", "173459.975000", "173459.977000", "173459.980000", "173459.982000", "173459.985000", "173459.987000", "173459.990000", "173459.992000", "173519.945000", "173519.948000", "173519.950000", "173519.953000", "173519.955000", "173519.958000", "173519.960000", "173519.963000", "173519.965000", "173519.968000", "173519.970000", "173519.973000", "173519.975000", "173519.977000", "173519.980000", "173519.982000", "173519.985000", "173519.987000", "173519.990000", "173519.992000", "173539.944000", "173539.947000", "173539.950000", "173539.952000", "173539.954000", "173539.957000", "173539.959000", "173539.962000", "173539.964000", "173539.967000", "173539.969000", "173539.972000", "173539.974000", "173539.977000", "173539.979000", "173539.982000", "173539.984000", "173539.987000", "173539.989000", "173539.992000", "173559.944000", "173559.947000", "173559.950000", "173559.952000", "173559.954000", "173559.957000", "173559.959000", "173559.962000", "173559.964000", "173559.967000", "173559.969000", "173559.972000", "173559.974000", "173559.977000", "173559.979000", "173559.982000", "173559.984000", "173559.986000", "173559.989000", "173559.991000", "173619.944000", "173619.947000", "173619.950000", "173619.952000", "173619.955000", "173619.957000", "173619.960000", "173619.962000", "173619.965000", "173619.967000", "173619.970000", "173619.972000", "173619.974000", "173619.977000", "173619.979000", "173619.982000", "173619.984000", "173619.987000", "173619.989000", "173619.992000", "173623.187000", "173623.190000", "173623.193000", "173623.195000"],
      "InstanceCreationTime": ["173219.973000", "173219.975000", "173219.978000", "173219.980000", "173219.983000", "173219.994000", "173219.996000", "173220.000000", "173220.002000", "173220.005000", "173220.007000", "173220.010000", "173220.018000", "173220.021000", "173220.023000", "173220.026000", "173220.028000", "173220.031000", "173220.033000", "173220.036000", "173239.945000", "173239.948000", "173239.951000", "173239.953000", "173239.955000", "173239.958000", "173239.960000", "173239.963000", "173239.965000", "173239.968000", "173239.970000", "173239.973000", "173239.975000", "173239.978000", "173239.980000", "173239.983000", "173239.985000", "173239.988000", "173239.990000", "173239.992000", "173259.945000", "173259.948000", "173259.950000", "173259.953000", "173259.955000", "173259.958000", "173259.960000", "173259.963000", "173259.965000", "173259.967000", "173259.970000", "173259.972000", "173259.975000", "173259.977000", "173259.980000", "173259.982000", "173259.985000", "173259.987000", "173259.998000", "173300.001000", "173319.944000", "173319.947000", "173319.950000", "173319.952000", "173319.955000", "173319.957000", "173319.960000", "173319.962000", "173319.965000", "173319.967000", "173319.969000", "173319.972000", "173319.974000", "173319.977000", "173319.979000", "173319.982000", "173319.984000", "173319.987000", "173319.989000", "173319.991000", "173339.944000", "173339.947000", "173339.950000", "173339.952000", "173339.955000", "173339.957000", "173339.960000", "173339.962000", "173339.964000", "173339.967000", "173339.970000", "173339.972000", "173339.974000", "173339.977000", "173339.979000", "173339.982000", "173339.984000", "173339.987000", "173339.989000", "173339.992000", "173359.944000", "173359.947000", "173359.950000", "173359.952000", "173359.955000", "173359.957000", "173359.959000", "173359.962000", "173359.964000", "173359.967000", "173359.969000", "173359.979000", "173359.981000", "173359.984000", "173359.996000", "173359.998000", "173400.002000", "173400.004000", "173400.006000", "173400.009000", "173419.944000", "173419.947000", "173419.949000", "173419.952000", "173419.954000", "173419.957000", "173419.959000", "173419.962000", "173419.964000", "173419.966000", "173419.969000", "173419.971000", "173419.974000", "173419.976000", "173419.979000", "173419.981000", "173419.984000", "173419.986000", "173419.988000", "173419.991000", "173439.945000", "173439.947000", "173439.950000", "173439.952000", "173439.955000", "173439.957000", "173439.959000", "173439.962000", "173439.964000", "173439.967000", "173439.970000", "173439.972000", "173439.974000", "173439.977000", "173439.979000", "173439.982000", "173439.984000", "173439.987000", "173439.989000", "173439.992000", "173459.945000", "173459.948000", "173459.950000", "173459.953000", "173459.955000", "173459.958000", "173459.960000", "173459.963000", "173459.965000", "173459.968000", "173459.970000", "173459.973000", "173459.975000", "173459.977000", "173459.980000", "173459.982000", "173459.985000", "173459.987000", "173459.990000", "173459.992000", "173519.945000", "173519.948000", "173519.950000", "173519.953000", "173519.955000", "173519.958000", "173519.960000", "173519.963000", "173519.965000", "173519.968000", "173519.970000", "173519.973000", "173519.975000", "173519.977000", "173519.980000", "173519.982000", "173519.985000", "173519.987000", "173519.990000", "173519.992000", "173539.944000", "173539.947000", "173539.950000", "173539.952000", "173539.954000", "173539.957000", "173539.959000", "173539.962000", "173539.964000", "173539.967000", "173539.969000", "173539.972000", "173539.974000", "173539.977000", "173539.979000", "173539.982000", "173539.984000", "173539.987000", "173539.989000", "173539.992000", "173559.944000", "173559.947000", "173559.950000", "173559.952000", "173559.954000", "173559.957000", "173559.959000", "173559.962000", "173559.964000", "173559.967000", "173559.969000", "173559.972000", "173559.974000", "173559.977000", "173559.979000", "173559.982000", "173559.984000", "173559.986000", "173559.989000", "173559.991000", "173619.944000", "173619.947000", "173619.950000", "173619.952000", "173619.955000", "173619.957000", "173619.960000", "173619.962000", "173619.965000", "173619.967000", "173619.970000", "173619.972000", "173619.974000", "173619.977000", "173619.979000", "173619.982000", "173619.984000", "173619.987000", "173619.989000", "173619.992000", "173623.187000", "173623.190000", "173623.193000", "173623.195000"],
      "InstanceNumber": [1, 2, 3, 4, 5, 6, 7, 8, 9, 10, 11, 12, 13, 14, 15, 16, 17, 18, 19, 20, 21, 22, 23, 24, 25, 26, 27, 28, 29, 30, 31, 32, 33, 34, 35, 36, 37, 38, 39, 40, 41, 42, 43, 44, 45, 46, 47, 48, 49, 50, 51, 52, 53, 54, 55, 56, 57, 58, 59, 60, 61, 62, 63, 64, 65, 66, 67, 68, 69, 70, 71, 72, 73, 74, 75, 76, 77, 78, 79, 80, 81, 82, 83, 84, 85, 86, 87, 88, 89, 90, 91, 92, 93, 94, 95, 96, 97, 98, 99, 100, 101, 102, 103, 104, 105, 106, 107, 108, 109, 110, 111, 112, 113, 114, 115, 116, 117, 118, 119, 120, 121, 122, 123, 124, 125, 126, 127, 128, 129, 130, 131, 132, 133, 134, 135, 136, 137, 138, 139, 140, 141, 142, 143, 144, 145, 146, 147, 148, 149, 150, 151, 152, 153, 154, 155, 156, 157, 158, 159, 160, 161, 162, 163, 164, 165, 166, 167, 168, 169, 170, 171, 172, 173, 174, 175, 176, 177, 178, 179, 180, 181, 182, 183, 184, 185, 186, 187, 188, 189, 190, 191, 192, 193, 194, 195, 196, 197, 198, 199, 200, 201, 202, 203, 204, 205, 206, 207, 208, 209, 210, 211, 212, 213, 214, 215, 216, 217, 218, 219, 220, 221, 222, 223, 224, 225, 226, 227, 228, 229, 230, 231, 232, 233, 234, 235, 236, 237, 238, 239, 240, 241, 242, 243, 244, 245, 246, 247, 248, 249, 250, 251, 252, 253, 254, 255, 256, 257, 258, 259, 260, 261, 262, 263, 264],
      "LargestImagePixelValue": [10294, 10251, 10207, 10183, 10071, 10021, 9895, 10073, 10097, 10152, 10135, 10055, 10190, 10144, 10095, 10143, 10094, 10072, 9995, 10011, 10083, 9978, 10249, 10400, 10096, 10151, 10074, 10039, 10232, 9932, 10234, 10253, 10215, 10185, 10080, 10077, 10447, 9995, 10078, 10343, 9800, 10035, 10189, 10216, 10096, 10100, 10092, 10484, 10064, 9938, 10252, 10025, 10208, 10178, 10224, 10399, 10024, 10063, 10621, 10072, 9945, 10550, 9822, 9867, 10516, 10082, 10248, 10476, 10136, 10446, 10008, 10057, 10466, 9853, 10131, 10469, 10179, 10379, 10198, 10061, 10327, 10655, 9883, 10298, 10117, 9818, 10281, 10053, 9974, 10507, 10027, 10110, 10729, 9890, 10204, 10407, 10098, 10653, 10240, 10216, 10675, 10042, 10301, 10574, 9896, 10709, 10833, 10075, 10108, 10269, 10016, 10603, 10019, 10283, 10793, 10048, 10661, 10247, 10371, 10666, 10274, 10404, 10399, 10031, 10082, 10289, 10839, 10601, 10487, 10798, 10518, 10351, 10468, 10235, 10380, 10412, 10114, 10693, 10424, 10404, 10841, 10483, 10716, 10312, 10285, 10981, 10334, 10683, 10777, 10400, 10703, 10577, 10328, 10870, 10588, 10600, 10933, 10355, 10749, 10611, 10213, 10803, 10335, 10303, 10859, 10498, 10650, 10689, 10335, 10680, 10244, 10469, 10690, 10311, 10537, 10760, 10255, 10526, 10448, 9718, 9863, 10355, 9871, 10039, 10188, 9585, 10297, 10132, 9756, 9939, 9855, 10361, 10103, 9977, 10262, 9814, 9991, 9716, 9805, 10413, 10018, 9963, 10271, 9861, 10267, 10240, 9868, 10284, 10126, 9850, 10571, 10079, 10148, 10337, 9928, 10052, 10523, 10112, 9995, 10296, 10196, 10039, 10407, 10264, 9994, 10509, 10201, 9999, 10563, 9959, 9985, 10303, 9872, 9759, 9775, 9961, 9862, 10001, 9963, 10025, 9981, 9857, 9796, 9902, 9590, 9743, 9777, 9669, 9839, 9938, 9857, 9904, 10038, 9918, 10059, 9881, 9936, 9869, 10072, 10092, 9968, 10009, 9866, 9881],
      "TriggerTime": [8102.5, 9102.5, 10102.5, 11102.5, 12102.5, 13102.5, 14102.5, 15102.5, 16102.5, 17102.5, 18102.5, 19102.5, 20102.5, 21102.5, 22102.5, 23102.5, 24102.5, 25102.5, 26102.5, 27102.5, 28102.5, 29102.5, 30102.5, 31102.5, 32102.5, 33102.5, 34102.5, 35102.5, 36102.5, 37102.5, 38102.5, 39102.5, 40102.5, 41102.5, 42102.5, 43102.5, 44102.5, 45102.5, 46102.5, 47102.5, 48102.5, 49102.5, 50102.5, 51102.5, 52102.5, 53102.5, 54102.5, 55102.5, 56102.5, 57102.5, 58102.5, 59102.5, 60102.5, 61102.5, 62102.5, 63102.5, 64102.5, 65102.5, 66102.5, 67102.5, 68102.5, 69102.5, 70102.5, 71102.5, 72102.5, 73102.5, 74102.5, 75102.5, 76102.5, 77102.5, 78102.5, 79102.5, 80102.5, 81102.5, 82102.5, 83102.5, 84102.5, 85102.5, 86102.5, 87102.5, 88102.5, 89102.5, 90102.5, 91102.5, 92102.5, 93102.5, 94102.5, 95102.5, 96102.5, 97102.5, 98102.5, 99102.5, 100102.5, 101102.5, 102102.5, 103102.5, 104102.5, 105102.5, 106102.5, 107102.5, 108102.5, 109102.5, 110102.5, 111102.5, 112102.5, 113102.5, 114102.5, 115102.5, 116102.5, 117102.5, 118102.5, 119102.5, 120102.5, 121102.5, 122102.5, 123102.5, 124102.5, 125102.5, 126102.5, 127102.5, 128102.5, 129102.5, 130102.5, 131102.5, 132102.5, 133102.5, 134102.5, 135102.5, 136102.5, 137102.5, 138102.5, 139102.5, 140102.5, 141102.5, 142102.5, 143102.5, 144102.5, 145102.5, 146102.5, 147102.5, 148102.5, 149102.5, 150102.5, 151102.5, 152102.5, 153102.5, 154102.5, 155102.5, 156102.5, 157102.5, 158102.5, 159102.5, 160102.5, 161102.5, 162102.5, 163102.5, 164102.5, 165102.5, 166102.5, 167102.5, 168102.5, 169102.5, 170102.5, 171102.5, 172102.5, 173102.5, 174102.5, 175102.5, 176102.5, 177102.5, 178102.5, 179102.5, 180102.5, 181102.5, 182102.5, 183102.5, 184102.5, 185102.5, 186102.5, 187102.5, 188102.5, 189102.5, 190102.5, 191102.5, 192102.5, 193102.5, 194102.5, 195102.5, 196102.5, 197102.5, 198102.5, 199102.5, 200102.5, 201102.5, 202102.5, 203102.5, 204102.5, 205102.5, 206102.5, 207102.5, 208102.5, 209102.5, 210102.5, 211102.5, 212102.5, 213102.5, 214102.5, 215102.5, 216102.5, 217102.5, 218102.5, 219102.5, 220102.5, 221102.5, 222102.5, 223102.5, 224102.5, 225102.5, 226102.5, 227102.5, 228102.5, 229102.5, 230102.5, 231102.5, 232102.5, 233102.5, 234102.5, 235102.5, 236102.5, 237102.5, 238102.5, 239102.5, 240102.5, 241102.5, 242102.5, 243102.5, 244102.5, 245102.5, 246102.5, 247102.5, 248102.5, 249102.5, 250102.5, 251102.5, 252102.5, 253102.5, 254102.5, 255102.5, 256102.5, 257102.5, 258102.5, 259102.5, 260102.5, 261102.5, 262102.5, 263102.5, 264102.5, 265102.5, 266102.5, 267102.5, 268102.5, 269102.5, 270102.5, 271102.5],
      "WindowCenter": [4307.0, 4297.0, 4292.0, 4295.0, 4278.0, 4284.0, 4281.0, 4283.0, 4290.0, 4293.0, 4292.0, 4284.0, 4294.0, 4295.0, 4290.0, 4289.0, 4281.0, 4282.0, 4280.0, 4281.0, 4295.0, 4280.0, 4293.0, 4304.0, 4291.0, 4294.0, 4285.0, 4283.0, 4302.0, 4284.0, 4293.0, 4295.0, 4295.0, 4294.0, 4296.0, 4280.0, 4303.0, 4284.0, 4278.0, 4293.0, 4281.0, 4281.0, 4290.0, 4296.0, 4295.0, 4294.0, 4292.0, 4318.0, 4294.0, 4284.0, 4296.0, 4283.0, 4292.0, 4294.0, 4290.0, 4296.0, 4282.0, 4281.0, 4302.0, 4282.0, 4282.0, 4303.0, 4283.0, 4281.0, 4302.0, 4294.0, 4290.0, 4308.0, 4294.0, 4303.0, 4283.0, 4283.0, 4292.0, 4279.0, 4281.0, 4289.0, 4280.0, 4282.0, 4293.0, 4280.0, 4288.0, 4291.0, 4282.0, 4282.0, 4277.0, 4271.0, 4280.0, 4267.0, 4265.0, 4290.0, 4280.0, 4279.0, 4299.0, 4278.0, 4282.0, 4295.0, 4293.0, 4305.0, 4291.0, 4290.0, 4305.0, 4281.0, 4278.0, 4293.0, 4280.0, 4290.0, 4304.0, 4278.0, 4280.0, 4277.0, 4270.0, 4289.0, 4266.0, 4281.0, 4302.0, 4280.0, 4291.0, 4279.0, 4277.0, 4292.0, 4277.0, 4290.0, 4290.0, 4281.0, 4292.0, 4292.0, 4303.0, 4286.0, 4279.0, 4288.0, 4274.0, 4266.0, 4273.0, 4264.0, 4265.0, 4278.0, 4264.0, 4280.0, 4275.0, 4275.0, 4299.0, 4293.0, 4291.0, 4293.0, 4290.0, 4305.0, 4295.0, 4304.0, 4306.0, 4305.0, 4306.0, 4307.0, 4295.0, 4320.0, 4308.0, 4303.0, 4317.0, 4292.0, 4317.0, 4306.0, 4294.0, 4306.0, 4293.0, 4285.0, 4304.0, 4294.0, 4297.0, 4290.0, 4284.0, 4291.0, 4290.0, 4290.0, 4292.0, 4280.0, 4276.0, 4290.0, 4280.0, 4287.0, 4293.0, 4285.0, 4288.0, 4297.0, 4283.0, 4267.0, 4269.0, 4244.0, 4277.0, 4267.0, 4258.0, 4271.0, 4283.0, 4279.0, 4283.0, 4269.0, 4268.0, 4268.0, 4267.0, 4269.0, 4269.0, 4292.0, 4279.0, 4268.0, 4283.0, 4271.0, 4281.0, 4295.0, 4283.0, 4298.0, 4295.0, 4285.0, 4306.0, 4287.0, 4297.0, 4297.0, 4299.0, 4296.0, 4307.0, 4296.0, 4280.0, 4293.0, 4282.0, 4270.0, 4280.0, 4268.0, 4267.0, 4291.0, 4279.0, 4283.0, 4305.0, 4284.0, 4296.0, 4305.0, 4298.0, 4290.0, 4301.0, 4290.0, 4283.0, 4273.0, 4258.0, 4260.0, 4250.0, 4243.0, 4236.0, 4243.0, 4244.0, 4244.0, 4268.0, 4255.0, 4268.0, 4269.0, 4268.0, 4268.0, 4270.0, 4268.0, 4268.0, 4268.0, 4270.0, 4281.0, 4300.0, 4325.0, 4279.0, 4285.0, 4284.0, 4282.0],
