{
  "AcquisitionMatrixPE": 106,
  "AcquisitionNumber": 1,
  "AcquisitionTime": "10:43:21.787500",
  "BandwidthPerPixelPhaseEncode": 16.846,
  "BaseResolution": 106,
  "BodyPartExamined": "BRAIN",
  "CoilCombinationMethod": "Sum of Squares",
  "ConsistencyInfo": "N4_VE11C_LATEST_20160120",
  "ConversionSoftware": "dcm2niix",
  "ConversionSoftwareVersion": "v1.0.20220720",
  "DerivedVendorReportedEchoSpacing": 0.000560012,
  "DeviceSerialNumber": "166108",
  "DwellTime": 1.8e-06,
  "EchoTime": 0.0352,
  "EchoTrainLength": 106,
  "EffectiveEchoSpacing": 0.000560012,
  "FlipAngle": 60,
  "HeudiconvVersion": "1.3.0",
  "ImageComments": "Unaliased MB4/PE3/LB",
  "ImageOrientationPatientDICOM": [1, 0, 0, 0, 0.938493, -0.345298],
  "ImageOrientationText": "Tra>Cor(-20.2)",
  "ImageType": [
    "ORIGINAL",
    "PRIMARY",
    "M",
    "MB",
    "ND",
    "MOSAIC"
],
  "ImagingFrequency": 123.244,
  "InPlanePhaseEncodingDirectionDICOM": "COL",
  "InstitutionAddress": "Bedford Way 26,London,London,GB,WC1H 0AP",
  "InstitutionName": "University College",
  "InstitutionalDepartmentName": "Department",
  "MRAcquisitionType": "2D",
  "MagneticFieldStrength": 3,
  "Manufacturer": "Siemens",
  "ManufacturersModelName": "Prisma",
  "MatrixCoilMode": "SENSE",
  "Modality": "MR",
  "MultibandAccelerationFactor": 4,
  "NonlinearGradientCorrection": false,
  "PartialFourier": 1,
  "PatientPosition": "HFS",
  "PercentPhaseFOV": 100,
  "PercentSampling": 100,
  "PhaseEncodingDirection": "j-",
  "PhaseEncodingSteps": 106,
  "PhaseResolution": 1,
  "PixelBandwidth": 2620,
  "ProcedureStepDescription": "Egor^MovieProject2",
  "ProtocolName": "func-bold_task-pRF_run-02",
  "PulseSequenceDetails": "%CustomerSeq%\\cmrr_mbep2d_bold",
  "ReceiveCoilActiveElements": "HEA;HEP",
  "ReceiveCoilName": "Head_32",
  "ReconMatrixPE": 106,
  "RepetitionTime": 1,
  "SAR": 0.0739565,
  "ScanOptions": "FS\\EXT",
  "ScanningSequence": "EP",
  "SequenceName": "epfid2d1_106",
  "SequenceVariant": "SK\\SS",
  "SeriesDescription": "func-bold_task-pRF_run-02",
  "SeriesNumber": 12,
  "ShimSetting": [-1507, 589, 7373, 57, 23, 38, 146, -79],
  "SliceThickness": 2,
  "SliceTiming": [0, 0.4075, 0.8175, 0.245, 0.6525, 0.0825, 0.49, 0.8975, 0.3275, 0.735, 0.1625, 0.5725, 0, 0.4075, 0.8175, 0.245, 0.6525, 0.0825, 0.49, 0.8975, 0.3275, 0.735, 0.1625, 0.5725, 0, 0.4075, 0.8175, 0.245, 0.6525, 0.0825, 0.49, 0.8975, 0.3275, 0.735, 0.1625, 0.5725, 0, 0.4075, 0.8175, 0.245, 0.6525, 0.0825, 0.49, 0.8975, 0.3275, 0.735, 0.1625, 0.5725],
  "SoftwareVersions": "syngo MR E11",
  "SpacingBetweenSlices": 2,
  "StationName": "AWP166108",
  "TaskName": "retinotopy",
  "TotalReadoutTime": 0.0588013,
  "TxRefAmp": 230.145,
  "WipMemBlock": "b0f44f19-c0db-497c-96d5-00d783e55bf7||Sequence: R016 ve11c/master r/e634e98; Dec 19 2017 11:00:25 by eja",
  "dcmmeta_affine": [
    [-2.0, 0.0, 0.0, 106.0],
    [0.0, 1.876986026763916, -0.6905964016914368, -83.22486114501953],
    [0.0, 0.6905964016914368, 1.876986026763916, -39.30693054199219],
    [0.0, 0.0, 0.0, 1.0]
],
  "dcmmeta_reorient_transform": [
    [0.0, -1.0, 0.0, 105.0],
    [1.0, 0.0, 0.0, 0.0],
    [0.0, 0.0, 1.0, 0.0],
    [0.0, 0.0, 0.0, 1.0]
],
  "dcmmeta_shape": [106, 106, 48, 356],
  "dcmmeta_slice_dim": 2,
  "dcmmeta_version": 0.6,
  "global": {
    "const": {
      "AcquisitionMatrix": [106, 0, 0, 106],
      "AngioFlag": "N",
      "BitsAllocated": 16,
      "BitsStored": 16,
      "BodyPartExamined": "BRAIN",
      "CardiacNumberOfImages": 1,
      "Columns": 742,
      "EchoNumbers": 1,
      "EchoTime": 35.2,
      "EchoTrainLength": 106,
      "FlipAngle": 60.0,
      "HighBit": 15,
      "ImageOrientationPatient": [1.0, 0.0, 0.0, 0.0, 0.93849302299978, -0.3452981983456],
      "ImagePositionPatient": [-742.0, -710.74023626622, 252.81534408792],
      "ImageType": [
        "ORIGINAL",
        "PRIMARY",
        "M",
        "MB",
        "ND",
        "MOSAIC"
],
      "ImagedNucleus": "1H",
      "ImagingFrequency": 123.243648,
      "InPlanePhaseEncodingDirection": "COL",
      "MRAcquisitionType": "2D",
      "MagneticFieldStrength": 3.0,
      "Manufacturer": "SIEMENS",
      "ManufacturerModelName": "Prisma",
      "Modality": "MR",
      "NominalInterval": 0,
      "NumberOfAverages": 1.0,
      "NumberOfPhaseEncodingSteps": 106,
      "PercentPhaseFieldOfView": 100.0,
      "PercentSampling": 100.0,
      "PerformedProcedureStepStartTime": "094757.618000",
      "PhotometricInterpretation": "MONOCHROME2",
      "PixelBandwidth": 2620.0,
      "PixelRepresentation": 0,
      "PixelSpacing": [2.0, 2.0],
      "ProtocolName": "func-bold_task-pRF_run-02",
      "RepetitionTime": 1000.0,
      "Rows": 742,
      "SAR": 0.07395648298898,
      "SamplesPerPixel": 1,
      "ScanOptions": [
        "FS",
        "EXT"
],
      "ScanningSequence": "EP",
      "SequenceName": "epfid2d1_106",
      "SequenceVariant": [
        "SK",
        "SS"
],
      "SeriesDescription": "func-bold_task-pRF_run-02",
      "SeriesNumber": 12,
      "SeriesTime": "104355.197000",
      "SliceLocation": -8.1518865406807,
      "SliceThickness": 2.0,
      "SmallestImagePixelValue": 0,
      "SoftwareVersions": "syngo MR E11",
      "SpacingBetweenSlices": 2.0000000226918,
      "SpecificCharacterSet": "ISO_IR 100",
      "StudyID": "1",
      "StudyTime": "094757.563000",
      "TransmitCoilName": "Body",
      "VariableFlipAngleFlag": "N",
      "WindowCenterWidthExplanation": "Algo1",
      "dBdt": 0.0},
    "slices": {}
  },
  "time": {
    "samples": {
      "AcquisitionNumber": [1, 2, 3, 4, 5, 6, 7, 8, 9, 10, 11, 12, 13, 14, 15, 16, 17, 18, 19, 20, 21, 22, 23, 24, 25, 26, 27, 28, 29, 30, 31, 32, 33, 34, 35, 36, 37, 38, 39, 40, 41, 42, 43, 44, 45, 46, 47, 48, 49, 50, 51, 52, 53, 54, 55, 56, 57, 58, 59, 60, 61, 62, 63, 64, 65, 66, 67, 68, 69, 70, 71, 72, 73, 74, 75, 76, 77, 78, 79, 80, 81, 82, 83, 84, 85, 86, 87, 88, 89, 90, 91, 92, 93, 94, 95, 96, 97, 98, 99, 100, 101, 102, 103, 104, 105, 106, 107, 108, 109, 110, 111, 112, 113, 114, 115, 116, 117, 118, 119, 120, 121, 122, 123, 124, 125, 126, 127, 128, 129, 130, 131, 132, 133, 134, 135, 136, 137, 138, 139, 140, 141, 142, 143, 144, 145, 146, 147, 148, 149, 150, 151, 152, 153, 154, 155, 156, 157, 158, 159, 160, 161, 162, 163, 164, 165, 166, 167, 168, 169, 170, 171, 172, 173, 174, 175, 176, 177, 178, 179, 180, 181, 182, 183, 184, 185, 186, 187, 188, 189, 190, 191, 192, 193, 194, 195, 196, 197, 198, 199, 200, 201, 202, 203, 204, 205, 206, 207, 208, 209, 210, 211, 212, 213, 214, 215, 216, 217, 218, 219, 220, 221, 222, 223, 224, 225, 226, 227, 228, 229, 230, 231, 232, 233, 234, 235, 236, 237, 238, 239, 240, 241, 242, 243, 244, 245, 246, 247, 248, 249, 250, 251, 252, 253, 254, 255, 256, 257, 258, 259, 260, 261, 262, 263, 264, 265, 266, 267, 268, 269, 270, 271, 272, 273, 274, 275, 276, 277, 278, 279, 280, 281, 282, 283, 284, 285, 286, 287, 288, 289, 290, 291, 292, 293, 294, 295, 296, 297, 298, 299, 300, 301, 302, 303, 304, 305, 306, 307, 308, 309, 310, 311, 312, 313, 314, 315, 316, 317, 318, 319, 320, 321, 322, 323, 324, 325, 326, 327, 328, 329, 330, 331, 332, 333, 334, 335, 336, 337, 338, 339, 340, 341, 342, 343, 344, 345, 346, 347, 348, 349, 350, 351, 352, 353, 354, 355, 356],
      "AcquisitionTime": ["104321.787500", "104322.787500", "104323.787500", "104324.787500", "104325.787500", "104326.787500", "104327.787500", "104328.787500", "104329.787500", "104330.787500", "104331.787500", "104332.787500", "104333.787500", "104334.787500", "104335.787500", "104336.787500", "104337.787500", "104338.787500", "104339.787500", "104340.787500", "104341.787500", "104342.787500", "104343.787500", "104344.787500", "104345.787500", "104346.787500", "104347.787500", "104348.787500", "104349.787500", "104350.787500", "104351.787500", "104352.787500", "104353.787500", "104354.787500", "104355.787500", "104356.787500", "104357.787500", "104358.787500", "104359.787500", "104400.787500", "104401.787500", "104402.787500", "104403.787500", "104404.787500", "104405.787500", "104406.787500", "104407.787500", "104408.787500", "104409.787500", "104410.787500", "104411.787500", "104412.787500", "104413.787500", "104414.787500", "104415.787500", "104416.787500", "104417.787500", "104418.787500", "104419.787500", "104420.787500", "104421.787500", "104422.787500", "104423.787500", "104424.787500", "104425.787500", "104426.787500", "104427.787500", "104428.787500", "104429.787500", "104430.787500", "104431.787500", "104432.787500", "104433.787500", "104434.787500", "104435.787500", "104436.787500", "104437.787500", "104438.787500", "104439.787500", "104440.787500", "104441.787500", "104442.787500", "104443.787500", "104444.787500", "104445.787500", "104446.787500", "104447.787500", "104448.787500", "104449.787500", "104450.787500", "104451.787500", "104452.787500", "104453.787500", "104454.787500", "104455.787500", "104456.787500", "104457.787500", "104458.787500", "104459.787500", "104500.787500", "104501.787500", "104502.787500", "104503.787500", "104504.787500", "104505.787500", "104506.787500", "104507.787500", "104508.787500", "104509.787500", "104510.787500", "104511.787500", "104512.787500", "104513.787500", "104514.787500", "104515.787500", "104516.787500", "104517.787500", "104518.787500", "104519.787500", "104520.787500", "104521.787500", "104522.787500", "104523.787500", "104524.787500", "104525.787500", "104526.787500", "104527.787500", "104528.787500", "104529.787500", "104530.787500", "104531.787500", "104532.787500", "104533.787500", "104534.787500", "104535.787500", "104536.787500", "104537.787500", "104538.787500", "104539.787500", "104540.787500", "104541.787500", "104542.787500", "104543.787500", "104544.787500", "104545.787500", "104546.787500", "104547.787500", "104548.787500", "104549.787500", "104550.787500", "104551.787500", "104552.787500", "104553.787500", "104554.787500", "104555.787500", "104556.787500", "104557.787500", "104558.787500", "104559.787500", "104600.787500", "104601.787500", "104602.787500", "104603.787500", "104604.787500", "104605.787500", "104606.787500", "104607.787500", "104608.787500", "104609.787500", "104610.787500", "104611.787500", "104612.787500", "104613.787500", "104614.787500", "104615.787500", "104616.787500", "104617.787500", "104618.787500", "104619.787500", "104620.787500", "104621.787500", "104622.787500", "104623.787500", "104624.787500", "104625.787500", "104626.787500", "104627.787500", "104628.787500", "104629.787500", "104630.787500", "104631.787500", "104632.787500", "104633.787500", "104634.787500", "104635.787500", "104636.787500", "104637.787500", "104638.787500", "104639.787500", "104640.787500", "104641.787500", "104642.787500", "104643.787500", "104644.787500", "104645.787500", "104646.787500", "104647.787500", "104648.787500", "104649.787500", "104650.787500", "104651.787500", "104652.787500", "104653.787500", "104654.787500", "104655.787500", "104656.787500", "104657.787500", "104658.787500", "104659.787500", "104700.787500", "104701.787500", "104702.787500", "104703.787500", "104704.787500", "104705.787500", "104706.787500", "104707.787500", "104708.787500", "104709.787500", "104710.787500", "104711.787500", "104712.787500", "104713.787500", "104714.787500", "104715.787500", "104716.787500", "104717.787500", "104718.787500", "104719.787500", "104720.787500", "104721.787500", "104722.787500", "104723.787500", "104724.787500", "104725.787500", "104726.787500", "104727.787500", "104728.787500", "104729.787500", "104730.787500", "104731.787500", "104732.787500", "104733.787500", "104734.787500", "104735.787500", "104736.787500", "104737.787500", "104738.787500", "104739.787500", "104740.787500", "104741.787500", "104742.787500", "104743.787500", "104744.787500", "104745.787500", "104746.787500", "104747.787500", "104748.787500", "104749.787500", "104750.787500", "104751.787500", "104752.787500", "104753.787500", "104754.787500", "104755.787500", "104756.787500", "104757.787500", "104758.787500", "104759.787500", "104800.787500", "104801.787500", "104802.787500", "104803.787500", "104804.787500", "104805.787500", "104806.787500", "104807.787500", "104808.787500", "104809.787500", "104810.787500", "104811.787500", "104812.787500", "104813.787500", "104814.787500", "104815.787500", "104816.787500", "104817.787500", "104818.787500", "104819.787500", "104820.787500", "104821.787500", "104822.787500", "104823.787500", "104824.787500", "104825.787500", "104826.787500", "104827.787500", "104828.787500", "104829.787500", "104830.787500", "104831.787500", "104832.787500", "104833.787500", "104834.787500", "104835.787500", "104836.787500", "104837.787500", "104838.787500", "104839.787500", "104840.787500", "104841.787500", "104842.787500", "104843.787500", "104844.787500", "104845.787500", "104846.787500", "104847.787500", "104848.787500", "104849.787500", "104850.787500", "104851.787500", "104852.787500", "104853.787500", "104854.787500", "104855.787500", "104856.787500", "104857.787500", "104858.787500", "104859.787500", "104900.787500", "104901.787500", "104902.787500", "104903.787500", "104904.787500", "104905.787500", "104906.787500", "104907.787500", "104908.787500", "104909.787500", "104910.787500", "104911.787500", "104912.787500", "104913.787500", "104914.787500", "104915.787500", "104916.787500"],
      "ContentTime": ["104355.199000", "104355.203000", "104355.205000", "104355.208000", "104355.210000", "104355.213000", "104355.215000", "104355.218000", "104355.220000", "104355.223000", "104355.225000", "104355.228000", "104355.230000", "104355.233000", "104355.235000", "104355.238000", "104355.240000", "104355.248000", "104355.251000", "104355.253000", "104355.256000", "104355.258000", "104355.261000", "104355.263000", "104355.266000", "104355.269000", "104355.271000", "104355.274000", "104355.276000", "104355.279000", "104355.281000", "104355.284000", "104355.286000", "104415.163000", "104415.166000", "104415.169000", "104415.171000", "104415.174000", "104415.176000", "104415.179000", "104415.181000", "104415.184000", "104415.186000", "104415.189000", "104415.191000", "104415.205000", "104415.208000", "104415.210000", "104415.213000", "104415.215000", "104415.218000", "104415.220000", "104415.223000", "104435.164000", "104435.166000", "104435.169000", "104435.172000", "104435.175000", "104435.177000", "104435.180000", "104435.182000", "104435.185000", "104435.187000", "104435.190000", "104435.192000", "104435.195000", "104435.197000", "104435.200000", "104435.210000", "104435.212000", "104435.215000", "104435.217000", "104435.220000", "104455.163000", "104455.166000", "104455.169000", "104455.171000", "104455.174000", "104455.176000", "104455.179000", "104455.181000", "104455.184000", "104455.186000", "104455.189000", "104455.191000", "104455.194000", "104455.196000", "104455.199000", "104455.202000", "104455.204000", "104455.206000", "104455.209000", "104455.212000", "104515.164000", "104515.167000", "104515.170000", "104515.172000", "104515.175000", "104515.177000", "104515.180000", "104515.182000", "104515.185000", "104515.187000", "104515.190000", "104515.192000", "104515.195000", "104515.197000", "104515.200000", "104515.202000", "104515.205000", "104515.207000", "104515.210000", "104515.212000", "104535.165000", "104535.167000", "104535.170000", "104535.173000", "104535.175000", "104535.177000", "104535.180000", "104535.183000", "104535.185000", "104535.188000", "104535.202000", "104535.205000", "104535.208000", "104535.210000", "104535.213000", "104535.215000", "104535.218000", "104535.220000", "104535.223000", "104535.225000", "104555.164000", "104555.167000", "104555.169000", "104555.172000", "104555.175000", "104555.177000", "104555.180000", "104555.182000", "104555.185000", "104555.187000", "104555.190000", "104555.192000", "104555.195000", "104555.197000", "104555.200000", "104555.202000", "104555.205000", "104555.207000", "104555.210000", "104555.212000", "104615.164000", "104615.167000", "104615.170000", "104615.173000", "104615.175000", "104615.178000", "104615.180000", "104615.183000", "104615.185000", "104615.188000", "104615.190000", "104615.193000", "104615.195000", "104615.198000", "104615.200000", "104615.203000", "104615.206000", "104615.208000", "104615.210000", "104615.213000", "104635.163000", "104635.166000", "104635.168000", "104635.172000", "104635.175000", "104635.177000", "104635.179000", "104635.182000", "104635.185000", "104635.187000", "104635.190000", "104635.192000", "104635.195000", "104635.197000", "104635.200000", "104635.202000", "104635.205000", "104635.207000", "104635.210000", "104635.212000", "104655.163000", "104655.166000", "104655.169000", "104655.171000", "104655.174000", "104655.176000", "104655.179000", "104655.182000", "104655.184000", "104655.187000", "104655.189000", "104655.192000", "104655.194000", "104655.197000", "104655.199000", "104655.202000", "104655.204000", "104655.207000", "104655.209000", "104655.212000", "104715.164000", "104715.166000", "104715.169000", "104715.172000", "104715.174000", "104715.177000", "104715.179000", "104715.182000", "104715.184000", "104715.187000", "104715.189000", "104715.192000", "104715.194000", "104715.197000", "104715.199000", "104715.202000", "104715.204000", "104715.207000", "104715.210000", "104715.212000", "104735.164000", "104735.167000", "104735.170000", "104735.173000", "104735.175000", "104735.178000", "104735.180000", "104735.183000", "104735.185000", "104735.188000", "104735.190000", "104735.193000", "104735.195000", "104735.198000", "104735.200000", "104735.203000", "104735.206000", "104735.208000", "104735.211000", "104735.213000", "104755.165000", "104755.167000", "104755.170000", "104755.172000", "104755.175000", "104755.177000", "104755.180000", "104755.182000", "104755.199000", "104755.202000", "104755.204000", "104755.207000", "104755.209000", "104755.220000", "104755.222000", "104755.225000", "104755.227000", "104755.230000", "104755.232000", "104755.235000", "104815.164000", "104815.167000", "104815.170000", "104815.172000", "104815.175000", "104815.177000", "104815.180000", "104815.183000", "104815.185000", "104815.188000", "104815.190000", "104815.193000", "104815.195000", "104815.198000", "104815.200000", "104815.203000", "104815.206000", "104815.208000", "104815.210000", "104815.213000", "104835.164000", "104835.167000", "104835.170000", "104835.172000", "104835.175000", "104835.177000", "104835.180000", "104835.182000", "104835.185000", "104835.187000", "104835.190000", "104835.192000", "104835.195000", "104835.198000", "104835.200000", "104835.203000", "104835.205000", "104835.208000", "104835.210000", "104835.213000", "104855.164000", "104855.167000", "104855.170000", "104855.172000", "104855.181000", "104855.184000", "104855.186000", "104855.189000", "104855.192000", "104855.194000", "104855.197000", "104855.199000", "104855.202000", "104855.204000", "104855.207000", "104855.210000", "104855.212000", "104855.215000", "104855.217000", "104855.220000", "104915.163000", "104915.166000", "104915.169000", "104915.171000", "104915.174000", "104915.176000", "104915.179000", "104915.182000", "104915.184000", "104915.187000", "104915.189000", "104915.192000", "104915.194000", "104915.197000", "104915.199000", "104915.202000", "104915.204000", "104915.207000", "104915.209000", "104915.212000", "104917.964000", "104917.967000", "104917.970000"],
      "InstanceCreationTime": ["104355.199000", "104355.203000", "104355.205000", "104355.208000", "104355.210000", "104355.213000", "104355.215000", "104355.218000", "104355.220000", "104355.223000", "104355.225000", "104355.228000", "104355.230000", "104355.233000", "104355.235000", "104355.238000", "104355.240000", "104355.248000", "104355.251000", "104355.253000", "104355.256000", "104355.258000", "104355.261000", "104355.263000", "104355.266000", "104355.269000", "104355.271000", "104355.274000", "104355.276000", "104355.279000", "104355.281000", "104355.284000", "104355.286000", "104415.163000", "104415.166000", "104415.169000", "104415.171000", "104415.174000", "104415.176000", "104415.179000", "104415.181000", "104415.184000", "104415.186000", "104415.189000", "104415.191000", "104415.205000", "104415.208000", "104415.210000", "104415.213000", "104415.215000", "104415.218000", "104415.220000", "104415.223000", "104435.164000", "104435.166000", "104435.169000", "104435.172000", "104435.175000", "104435.177000", "104435.180000", "104435.182000", "104435.185000", "104435.187000", "104435.190000", "104435.192000", "104435.195000", "104435.197000", "104435.200000", "104435.210000", "104435.212000", "104435.215000", "104435.217000", "104435.220000", "104455.163000", "104455.166000", "104455.169000", "104455.171000", "104455.174000", "104455.176000", "104455.179000", "104455.181000", "104455.184000", "104455.186000", "104455.189000", "104455.191000", "104455.194000", "104455.196000", "104455.199000", "104455.202000", "104455.204000", "104455.206000", "104455.209000", "104455.212000", "104515.164000", "104515.167000", "104515.170000", "104515.172000", "104515.175000", "104515.177000", "104515.180000", "104515.182000", "104515.185000", "104515.187000", "104515.190000", "104515.192000", "104515.195000", "104515.197000", "104515.200000", "104515.202000", "104515.205000", "104515.207000", "104515.210000", "104515.212000", "104535.165000", "104535.167000", "104535.170000", "104535.173000", "104535.175000", "104535.177000", "104535.180000", "104535.183000", "104535.185000", "104535.188000", "104535.202000", "104535.205000", "104535.208000", "104535.210000", "104535.213000", "104535.215000", "104535.218000", "104535.220000", "104535.223000", "104535.225000", "104555.164000", "104555.167000", "104555.169000", "104555.172000", "104555.175000", "104555.177000", "104555.180000", "104555.182000", "104555.185000", "104555.187000", "104555.190000", "104555.192000", "104555.195000", "104555.197000", "104555.200000", "104555.202000", "104555.205000", "104555.207000", "104555.210000", "104555.212000", "104615.164000", "104615.167000", "104615.170000", "104615.173000", "104615.175000", "104615.178000", "104615.180000", "104615.183000", "104615.185000", "104615.188000", "104615.190000", "104615.193000", "104615.195000", "104615.198000", "104615.200000", "104615.203000", "104615.206000", "104615.208000", "104615.210000", "104615.213000", "104635.163000", "104635.166000", "104635.168000", "104635.172000", "104635.175000", "104635.177000", "104635.179000", "104635.182000", "104635.185000", "104635.187000", "104635.190000", "104635.192000", "104635.195000", "104635.197000", "104635.200000", "104635.202000", "104635.205000", "104635.207000", "104635.210000", "104635.212000", "104655.163000", "104655.166000", "104655.169000", "104655.171000", "104655.174000", "104655.176000", "104655.179000", "104655.182000", "104655.184000", "104655.187000", "104655.189000", "104655.192000", "104655.194000", "104655.197000", "104655.199000", "104655.202000", "104655.204000", "104655.207000", "104655.209000", "104655.212000", "104715.164000", "104715.166000", "104715.169000", "104715.172000", "104715.174000", "104715.177000", "104715.179000", "104715.182000", "104715.184000", "104715.187000", "104715.189000", "104715.192000", "104715.194000", "104715.197000", "104715.199000", "104715.202000", "104715.204000", "104715.207000", "104715.210000", "104715.212000", "104735.164000", "104735.167000", "104735.170000", "104735.173000", "104735.175000", "104735.178000", "104735.180000", "104735.183000", "104735.185000", "104735.188000", "104735.190000", "104735.193000", "104735.195000", "104735.198000", "104735.200000", "104735.203000", "104735.206000", "104735.208000", "104735.211000", "104735.213000", "104755.165000", "104755.167000", "104755.170000", "104755.172000", "104755.175000", "104755.177000", "104755.180000", "104755.182000", "104755.199000", "104755.202000", "104755.204000", "104755.207000", "104755.209000", "104755.220000", "104755.222000", "104755.225000", "104755.227000", "104755.230000", "104755.232000", "104755.235000", "104815.164000", "104815.167000", "104815.170000", "104815.172000", "104815.175000", "104815.177000", "104815.180000", "104815.183000", "104815.185000", "104815.188000", "104815.190000", "104815.193000", "104815.195000", "104815.198000", "104815.200000", "104815.203000", "104815.206000", "104815.208000", "104815.210000", "104815.213000", "104835.164000", "104835.167000", "104835.170000", "104835.172000", "104835.175000", "104835.177000", "104835.180000", "104835.182000", "104835.185000", "104835.187000", "104835.190000", "104835.192000", "104835.195000", "104835.198000", "104835.200000", "104835.203000", "104835.205000", "104835.208000", "104835.210000", "104835.213000", "104855.164000", "104855.167000", "104855.170000", "104855.172000", "104855.181000", "104855.184000", "104855.186000", "104855.189000", "104855.192000", "104855.194000", "104855.197000", "104855.199000", "104855.202000", "104855.204000", "104855.207000", "104855.210000", "104855.212000", "104855.215000", "104855.217000", "104855.220000", "104915.163000", "104915.166000", "104915.169000", "104915.171000", "104915.174000", "104915.176000", "104915.179000", "104915.182000", "104915.184000", "104915.187000", "104915.189000", "104915.192000", "104915.194000", "104915.197000", "104915.199000", "104915.202000", "104915.204000", "104915.207000", "104915.209000", "104915.212000", "104917.964000", "104917.967000", "104917.970000"],
      "InstanceNumber": [1, 2, 3, 4, 5, 6, 7, 8, 9, 10, 11, 12, 13, 14, 15, 16, 17, 18, 19, 20, 21, 22, 23, 24, 25, 26, 27, 28, 29, 30, 31, 32, 33, 34, 35, 36, 37, 38, 39, 40, 41, 42, 43, 44, 45, 46, 47, 48, 49, 50, 51, 52, 53, 54, 55, 56, 57, 58, 59, 60, 61, 62, 63, 64, 65, 66, 67, 68, 69, 70, 71, 72, 73, 74, 75, 76, 77, 78, 79, 80, 81, 82, 83, 84, 85, 86, 87, 88, 89, 90, 91, 92, 93, 94, 95, 96, 97, 98, 99, 100, 101, 102, 103, 104, 105, 106, 107, 108, 109, 110, 111, 112, 113, 114, 115, 116, 117, 118, 119, 120, 121, 122, 123, 124, 125, 126, 127, 128, 129, 130, 131, 132, 133, 134, 135, 136, 137, 138, 139, 140, 141, 142, 143, 144, 145, 146, 147, 148, 149, 150, 151, 152, 153, 154, 155, 156, 157, 158, 159, 160, 161, 162, 163, 164, 165, 166, 167, 168, 169, 170, 171, 172, 173, 174, 175, 176, 177, 178, 179, 180, 181, 182, 183, 184, 185, 186, 187, 188, 189, 190, 191, 192, 193, 194, 195, 196, 197, 198, 199, 200, 201, 202, 203, 204, 205, 206, 207, 208, 209, 210, 211, 212, 213, 214, 215, 216, 217, 218, 219, 220, 221, 222, 223, 224, 225, 226, 227, 228, 229, 230, 231, 232, 233, 234, 235, 236, 237, 238, 239, 240, 241, 242, 243, 244, 245, 246, 247, 248, 249, 250, 251, 252, 253, 254, 255, 256, 257, 258, 259, 260, 261, 262, 263, 264, 265, 266, 267, 268, 269, 270, 271, 272, 273, 274, 275, 276, 277, 278, 279, 280, 281, 282, 283, 284, 285, 286, 287, 288, 289, 290, 291, 292, 293, 294, 295, 296, 297, 298, 299, 300, 301, 302, 303, 304, 305, 306, 307, 308, 309, 310, 311, 312, 313, 314, 315, 316, 317, 318, 319, 320, 321, 322, 323, 324, 325, 326, 327, 328, 329, 330, 331, 332, 333, 334, 335, 336, 337, 338, 339, 340, 341, 342, 343, 344, 345, 346, 347, 348, 349, 350, 351, 352, 353, 354, 355, 356],
      "LargestImagePixelValue": [12162, 12247, 12060, 11827, 11787, 11604, 11642, 11846, 11995, 12130, 11886, 11762, 11930, 12043, 12160, 11938, 11736, 12006, 11984, 11923, 12137, 11898, 11621, 11749, 11735, 11579, 11846, 11897, 11685, 11679, 11533, 11453, 12069, 12081, 11746, 11677, 11663, 12019, 11884, 11810, 11725, 11675, 11467, 11421, 11799, 11477, 11925, 11948, 12142, 11635, 11650, 11600, 11776, 11893, 11887, 12060, 12137, 11688, 11726, 11611, 11665, 11998, 12178, 12173, 12158, 11601, 11669, 11608, 11715, 11769, 11756, 11747, 11882, 11717, 12137, 11960, 12104, 11832, 12257, 12024, 11932, 11566, 11947, 11451, 11348, 11437, 11667, 11517, 11790, 11566, 11373, 11420, 11642, 11649, 11754, 12072, 12014, 11879, 11724, 11611, 11722, 11675, 11945, 12041, 12085, 11894, 11876, 12155, 12258, 12139, 12315, 12178, 12162, 12152, 12184, 12113, 12150, 11987, 11992, 12156, 12033, 11912, 11824, 11841, 11928, 11903, 11920, 11953, 11963, 11819, 11779, 11937, 11887, 11917, 11882, 12039, 11856, 11826, 11880, 11895, 11898, 11814, 11866, 11940, 12125, 12057, 12111, 12040, 12082, 12144, 12095, 12107, 12238, 12118, 12164, 12086, 11981, 11965, 12052, 12006, 12130, 12158, 12083, 12115, 12019, 11991, 12018, 11961, 12100, 12048, 12117, 12045, 11944, 11899, 12135, 12233, 12018, 11943, 11792, 12014, 11968, 11911, 11991, 11921, 11865, 12010, 11978, 12121, 12033, 12135, 11991, 11968, 11937, 11963, 11956, 11951, 12016, 12120, 12007, 12017, 11963, 11927, 11944, 11887, 11977, 11885, 11907, 11892, 11884, 11889, 11984, 11872, 11944, 11966, 11879, 11895, 11957, 11860, 11879, 11962, 12026, 12078, 11947, 12057, 11945, 11925, 12023, 12095, 11963, 12096, 12008, 11951, 11863, 11898, 11911, 12163, 12024, 12016, 12012, 11994, 11806, 11838, 12005, 11957, 12176, 11918, 11950, 12069, 11856, 12044, 11985, 12110, 12061, 12150, 12216, 12276, 12024, 12073, 12051, 11936, 11929, 11915, 12082, 12099, 12209, 12186, 12121, 12116, 12195, 12251, 12304, 12136, 12205, 11708, 11730, 12125, 11758, 11965, 11792, 11663, 11648, 11776, 11859, 11929, 12095, 11921, 12047, 12084, 12008, 12035, 11929, 12094, 11811, 11841, 12146, 12099, 11962, 11947, 11915, 11921, 11914, 12157, 12124, 12026, 12037, 12092, 12058, 12112, 11921, 11905, 11976, 11960, 11970, 12061, 11972, 11913, 11864, 11906, 11873, 12280, 12086, 12296, 12154, 12073, 11814, 11809, 11797, 11901, 11935, 12149, 11990, 12052, 11974, 11982, 11997, 11940, 11885, 12077, 12121, 12211, 12090, 12112, 12094, 11778, 11929, 11937, 11909, 11918, 11957, 12187, 12061, 11944, 11900, 11752, 11750, 11810],
