{
  "AcquisitionMatrixPE": 106,
  "AcquisitionNumber": 1,
  "AcquisitionTime": "11:01:21.185000",
  "BandwidthPerPixelPhaseEncode": 13.477,
  "BaseResolution": 106,
  "BodyPartExamined": "BRAIN",
  "CoilCombinationMethod": "Sum of Squares",
  "ConsistencyInfo": "N4_VE11C_LATEST_20160120",
  "ConversionSoftware": "dcm2niix",
  "ConversionSoftwareVersion": "v1.0.20220720",
  "DerivedVendorReportedEchoSpacing": 0.000700005,
  "DeviceSerialNumber": "166108",
  "DwellTime": 2.6e-06,
  "EchoTime": 0.03,
  "EchoTrainLength": 80,
  "EffectiveEchoSpacing": 0.000700005,
  "FlipAngle": 62,
  "HeudiconvVersion": "1.3.0",
  "ImageComments": "Unaliased MB4/PE3/LB",
  "ImageOrientationPatientDICOM": [1, 0, 0, 0, 0.91496, -0.403545],
  "ImageOrientationText": "Tra>Cor(-23.8)",
  "ImageType": [
    "ORIGINAL",
    "PRIMARY",
    "M",
    "MB",
    "ND",
    "MOSAIC"
],
  "ImagingFrequency": 123.244,
  "InPlanePhaseEncodingDirectionDICOM": "COL",
  "InstitutionAddress": "Bedford Way 26,London,London,GB,WC1H 0AP",
  "InstitutionName": "University College",
  "InstitutionalDepartmentName": "Department",
  "MRAcquisitionType": "2D",
  "MagneticFieldStrength": 3,
  "Manufacturer": "Siemens",
  "ManufacturersModelName": "Prisma",
  "MatrixCoilMode": "SENSE",
  "Modality": "MR",
  "MultibandAccelerationFactor": 4,
  "NonlinearGradientCorrection": false,
  "PartialFourier": 0.75,
  "PatientPosition": "HFS",
  "PercentPhaseFOV": 100,
  "PercentSampling": 100,
  "PhaseEncodingDirection": "j-",
  "PhaseEncodingSteps": 80,
  "PhaseResolution": 1,
  "PixelBandwidth": 1815,
  "ProcedureStepDescription": "Egor^MovieProject2",
  "ProtocolName": "func-bold_task-tono_run-01",
  "PulseSequenceDetails": "%CustomerSeq%\\cmrr_mbep2d_bold",
  "ReceiveCoilActiveElements": "HEA;HEP",
  "ReceiveCoilName": "Head_32",
  "ReconMatrixPE": 106,
  "RepetitionTime": 1,
  "SAR": 0.0411487,
  "ScanOptions": "PFP\\FS\\EXT",
  "ScanningSequence": "EP",
  "SequenceName": "epfid2d1_106",
  "SequenceVariant": "SK\\SS",
  "SeriesDescription": "func-bold_task-tono_run-01",
  "SeriesNumber": 18,
  "ShimSetting": [-1498, 605, 7403, 178, 25, 71, 182, -90],
  "SliceThickness": 2,
  "SliceTiming": [0, 0.535, 0.09, 0.625, 0.1775, 0.7125, 0.2675, 0.8025, 0.3575, 0.8925, 0.445, 0, 0.535, 0.09, 0.625, 0.1775, 0.7125, 0.2675, 0.8025, 0.3575, 0.8925, 0.445, 0, 0.535, 0.09, 0.625, 0.1775, 0.7125, 0.2675, 0.8025, 0.3575, 0.8925, 0.445, 0, 0.535, 0.09, 0.625, 0.1775, 0.7125, 0.2675, 0.8025, 0.3575, 0.8925, 0.445],
  "SoftwareVersions": "syngo MR E11",
  "SpacingBetweenSlices": 2,
  "StationName": "AWP166108",
  "TaskName": "tonotopy",
  "TotalReadoutTime": 0.0735005,
  "TxRefAmp": 230.145,
  "WipMemBlock": "73fca728-2909-4405-9fa0-c531924c5dd3||Sequence: R016 ve11c/master r/e634e98; Dec 19 2017 11:00:25 by eja",
  "dcmmeta_affine": [
    [-2.0, 0.0, 0.0, 106.0],
    [0.0, 1.8299193382263184, -0.8070906400680542, -69.23007202148438],
    [0.0, 0.8070906400680542, 1.8299193382263184, -60.011356353759766],
    [0.0, 0.0, 0.0, 1.0]
],
  "dcmmeta_reorient_transform": [
    [0.0, -1.0, 0.0, 105.0],
    [1.0, 0.0, 0.0, 0.0],
    [0.0, 0.0, 1.0, 0.0],
    [0.0, 0.0, 0.0, 1.0]
],
  "dcmmeta_shape": [106, 106, 44, 264],
  "dcmmeta_slice_dim": 2,
  "dcmmeta_version": 0.6,
  "global": {
    "const": {
      "AcquisitionMatrix": [106, 0, 0, 106],
      "AngioFlag": "N",
      "BitsAllocated": 16,
      "BitsStored": 16,
      "BodyPartExamined": "BRAIN",
      "CardiacNumberOfImages": 1,
      "Columns": 742,
      "EchoNumbers": 1,
      "EchoTime": 30.0,
      "EchoTrainLength": 80,
      "FlipAngle": 62.0,
      "HighBit": 15,
      "ImageOrientationPatient": [1.0, 0.0, 0.0, 0.0, 0.91495965822336, -0.4035453181785],
      "ImagePositionPatient": [-742.0, -704.82579806067, 281.38798158773],
      "ImageType": [
        "ORIGINAL",
        "PRIMARY",
        "M",
        "MB",
        "ND",
        "MOSAIC"
],
      "ImagedNucleus": "1H",
      "ImagingFrequency": 123.243645,
      "InPlanePhaseEncodingDirection": "COL",
      "MRAcquisitionType": "2D",
      "MagneticFieldStrength": 3.0,
      "Manufacturer": "SIEMENS",
      "ManufacturerModelName": "Prisma",
      "Modality": "MR",
      "NominalInterval": 0,
      "NumberOfAverages": 1.0,
      "NumberOfPhaseEncodingSteps": 80,
      "PercentPhaseFieldOfView": 100.0,
      "PercentSampling": 100.0,
      "PerformedProcedureStepStartTime": "094757.618000",
      "PhotometricInterpretation": "MONOCHROME2",
      "PixelBandwidth": 1815.0,
      "PixelRepresentation": 0,
      "PixelSpacing": [2.0, 2.0],
      "ProtocolName": "func-bold_task-tono_run-01",
      "RepetitionTime": 1000.0,
      "Rows": 742,
      "SAR": 0.04114871945822,
      "SamplesPerPixel": 1,
      "ScanOptions": [
        "PFP",
        "FS",
        "EXT"
],
      "ScanningSequence": "EP",
      "SequenceName": "epfid2d1_106",
      "SequenceVariant": [
        "SK",
        "SS"
],
      "SeriesDescription": "func-bold_task-tono_run-01",
      "SeriesNumber": 18,
      "SeriesTime": "110155.188000",
      "SliceLocation": -26.970499477152,
      "SliceThickness": 2.0,
      "SmallestImagePixelValue": 0,
      "SoftwareVersions": "syngo MR E11",
      "SpacingBetweenSlices": 1.999999987785,
      "SpecificCharacterSet": "ISO_IR 100",
      "StudyID": "1",
      "StudyTime": "094757.563000",
      "TransmitCoilName": "Body",
      "VariableFlipAngleFlag": "N",
      "WindowCenterWidthExplanation": "Algo1",
      "dBdt": 0.0},
    "slices": {}
  },
  "time": {
    "samples": {
      "AcquisitionNumber": [1, 2, 3, 4, 5, 6, 7, 8, 9, 10, 11, 12, 13, 14, 15, 16, 17, 18, 19, 20, 21, 22, 23, 24, 25, 26, 27, 28, 29, 30, 31, 32, 33, 34, 35, 36, 37, 38, 39, 40, 41, 42, 43, 44, 45, 46, 47, 48, 49, 50, 51, 52, 53, 54, 55, 56, 57, 58, 59, 60, 61, 62, 63, 64, 65, 66, 67, 68, 69, 70, 71, 72, 73, 74, 75, 76, 77, 78, 79, 80, 81, 82, 83, 84, 85, 86, 87, 88, 89, 90, 91, 92, 93, 94, 95, 96, 97, 98, 99, 100, 101, 102, 103, 104, 105, 106, 107, 108, 109, 110, 111, 112, 113, 114, 115, 116, 117, 118, 119, 120, 121, 122, 123, 124, 125, 126, 127, 128, 129, 130, 131, 132, 133, 134, 135, 136, 137, 138, 139, 140, 141, 142, 143, 144, 145, 146, 147, 148, 149, 150, 151, 152, 153, 154, 155, 156, 157, 158, 159, 160, 161, 162, 163, 164, 165, 166, 167, 168, 169, 170, 171, 172, 173, 174, 175, 176, 177, 178, 179, 180, 181, 182, 183, 184, 185, 186, 187, 188, 189, 190, 191, 192, 193, 194, 195, 196, 197, 198, 199, 200, 201, 202, 203, 204, 205, 206, 207, 208, 209, 210, 211, 212, 213, 214, 215, 216, 217, 218, 219, 220, 221, 222, 223, 224, 225, 226, 227, 228, 229, 230, 231, 232, 233, 234, 235, 236, 237, 238, 239, 240, 241, 242, 243, 244, 245, 246, 247, 248, 249, 250, 251, 252, 253, 254, 255, 256, 257, 258, 259, 260, 261, 262, 263, 264],
      "AcquisitionTime": ["110121.185000", "110122.185000", "110123.185000", "110124.185000", "110125.185000", "110126.185000", "110127.185000", "110128.185000", "110129.185000", "110130.185000", "110131.185000", "110132.185000", "110133.185000", "110134.185000", "110135.185000", "110136.185000", "110137.185000", "110138.185000", "110139.185000", "110140.185000", "110141.185000", "110142.185000", "110143.185000", "110144.185000", "110145.185000", "110146.185000", "110147.185000", "110148.185000", "110149.185000", "110150.185000", "110151.185000", "110152.185000", "110153.185000", "110154.185000", "110155.185000", "110156.185000", "110157.185000", "110158.185000", "110159.185000", "110200.185000", "110201.185000", "110202.185000", "110203.185000", "110204.185000", "110205.185000", "110206.185000", "110207.185000", "110208.185000", "110209.185000", "110210.185000", "110211.185000", "110212.185000", "110213.185000", "110214.185000", "110215.185000", "110216.185000", "110217.185000", "110218.185000", "110219.185000", "110220.185000", "110221.185000", "110222.185000", "110223.185000", "110224.185000", "110225.185000", "110226.185000", "110227.185000", "110228.185000", "110229.185000", "110230.185000", "110231.185000", "110232.185000", "110233.185000", "110234.185000", "110235.185000", "110236.185000", "110237.185000", "110238.185000", "110239.185000", "110240.185000", "110241.185000", "110242.185000", "110243.185000", "110244.185000", "110245.185000", "110246.185000", "110247.185000", "110248.185000", "110249.185000", "110250.185000", "110251.185000", "110252.185000", "110253.185000", "110254.185000", "110255.185000", "110256.185000", "110257.185000", "110258.185000", "110259.185000", "110300.185000", "110301.185000", "110302.185000", "110303.185000", "110304.185000", "110305.185000", "110306.185000", "110307.185000", "110308.185000", "110309.185000", "110310.185000", "110311.185000", "110312.185000", "110313.185000", "110314.185000", "110315.185000", "110316.185000", "110317.185000", "110318.185000", "110319.185000", "110320.185000", "110321.185000", "110322.185000", "110323.185000", "110324.185000", "110325.185000", "110326.185000", "110327.185000", "110328.185000", "110329.185000", "110330.185000", "110331.185000", "110332.185000", "110333.185000", "110334.185000", "110335.185000", "110336.185000", "110337.185000", "110338.185000", "110339.185000", "110340.185000", "110341.185000", "110342.185000", "110343.185000", "110344.185000", "110345.185000", "110346.185000", "110347.185000", "110348.185000", "110349.185000", "110350.185000", "110351.185000", "110352.185000", "110353.185000", "110354.185000", "110355.185000", "110356.185000", "110357.185000", "110358.185000", "110359.185000", "110400.185000", "110401.185000", "110402.185000", "110403.185000", "110404.185000", "110405.185000", "110406.185000", "110407.185000", "110408.185000", "110409.185000", "110410.185000", "110411.185000", "110412.185000", "110413.185000", "110414.185000", "110415.185000", "110416.185000", "110417.185000", "110418.185000", "110419.185000", "110420.185000", "110421.185000", "110422.185000", "110423.185000", "110424.185000", "110425.185000", "110426.185000", "110427.185000", "110428.185000", "110429.185000", "110430.185000", "110431.185000", "110432.185000", "110433.185000", "110434.185000", "110435.185000", "110436.185000", "110437.185000", "110438.185000", "110439.185000", "110440.185000", "110441.185000", "110442.185000", "110443.185000", "110444.185000", "110445.185000", "110446.185000", "110447.185000", "110448.185000", "110449.185000", "110450.185000", "110451.185000", "110452.185000", "110453.185000", "110454.185000", "110455.185000", "110456.185000", "110457.185000", "110458.185000", "110459.185000", "110500.185000", "110501.185000", "110502.185000", "110503.185000", "110504.185000", "110505.185000", "110506.185000", "110507.185000", "110508.185000", "110509.185000", "110510.185000", "110511.185000", "110512.185000", "110513.185000", "110514.185000", "110515.185000", "110516.185000", "110517.185000", "110518.185000", "110519.185000", "110520.185000", "110521.185000", "110522.185000", "110523.185000", "110524.185000", "110525.185000", "110526.185000", "110527.185000", "110528.185000", "110529.185000", "110530.185000", "110531.185000", "110532.185000", "110533.185000", "110534.185000", "110535.185000", "110536.185000", "110537.185000", "110538.185000", "110539.185000", "110540.185000", "110541.185000", "110542.185000", "110543.185000", "110544.185000"],
      "ContentTime": ["110155.191000", "110155.194000", "110155.196000", "110155.199000", "110155.201000", "110155.204000", "110155.207000", "110155.210000", "110155.212000", "110155.215000", "110155.223000", "110155.225000", "110155.228000", "110155.230000", "110155.233000", "110155.235000", "110155.238000", "110155.240000", "110155.243000", "110155.245000", "110155.248000", "110155.250000", "110155.253000", "110155.255000", "110155.258000", "110155.261000", "110155.264000", "110155.267000", "110155.270000", "110155.274000", "110155.277000", "110155.279000", "110155.282000", "110215.164000", "110215.167000", "110215.170000", "110215.172000", "110215.175000", "110215.177000", "110215.180000", "110215.182000", "110215.185000", "110215.187000", "110215.190000", "110215.192000", "110215.195000", "110215.197000", "110215.200000", "110215.202000", "110215.205000", "110215.209000", "110215.211000", "110215.214000", "110235.164000", "110235.167000", "110235.177000", "110235.180000", "110235.182000", "110235.185000", "110235.187000", "110235.190000", "110235.192000", "110235.194000", "110235.197000", "110235.199000", "110235.202000", "110235.205000", "110235.208000", "110235.210000", "110235.213000", "110235.215000", "110235.218000", "110235.220000", "110255.163000", "110255.166000", "110255.169000", "110255.171000", "110255.174000", "110255.176000", "110255.179000", "110255.181000", "110255.184000", "110255.186000", "110255.189000", "110255.191000", "110255.202000", "110255.205000", "110255.208000", "110255.210000", "110255.212000", "110255.215000", "110255.218000", "110255.220000", "110315.163000", "110315.166000", "110315.169000", "110315.171000", "110315.174000", "110315.176000", "110315.179000", "110315.181000", "110315.183000", "110315.186000", "110315.188000", "110315.191000", "110315.193000", "110315.203000", "110315.206000", "110315.209000", "110315.211000", "110315.214000", "110315.216000", "110315.219000", "110335.164000", "110335.177000", "110335.180000", "110335.182000", "110335.185000", "110335.187000", "110335.190000", "110335.192000", "110335.195000", "110335.197000", "110335.200000", "110335.202000", "110335.205000", "110335.208000", "110335.211000", "110335.213000", "110335.216000", "110335.218000", "110335.221000", "110335.223000", "110355.164000", "110355.167000", "110355.170000", "110355.172000", "110355.175000", "110355.177000", "110355.180000", "110355.182000", "110355.185000", "110355.187000", "110355.190000", "110355.192000", "110355.195000", "110355.197000", "110355.200000", "110355.202000", "110355.205000", "110355.209000", "110355.212000", "110355.214000", "110415.164000", "110415.167000", "110415.170000", "110415.172000", "110415.174000", "110415.177000", "110415.180000", "110415.182000", "110415.185000", "110415.187000", "110415.190000", "110415.192000", "110415.194000", "110415.197000", "110415.199000", "110415.202000", "110415.204000", "110415.209000", "110415.211000", "110415.213000", "110435.165000", "110435.167000", "110435.170000", "110435.172000", "110435.175000", "110435.177000", "110435.180000", "110435.182000", "110435.185000", "110435.187000", "110435.190000", "110435.192000", "110435.195000", "110435.197000", "110435.200000", "110435.202000", "110435.206000", "110435.209000", "110435.211000", "110435.213000", "110455.163000", "110455.166000", "110455.169000", "110455.171000", "110455.174000", "110455.176000", "110455.179000", "110455.181000", "110455.184000", "110455.186000", "110455.189000", "110455.191000", "110455.194000", "110455.196000", "110455.199000", "110455.201000", "110455.203000", "110455.207000", "110455.210000", "110455.212000", "110515.163000", "110515.166000", "110515.169000", "110515.171000", "110515.174000", "110515.176000", "110515.179000", "110515.181000", "110515.184000", "110515.186000", "110515.189000", "110515.191000", "110515.193000", "110515.196000", "110515.199000", "110515.201000", "110515.203000", "110515.207000", "110515.209000", "110515.212000", "110535.163000", "110535.166000", "110535.169000", "110535.171000", "110535.174000", "110535.176000", "110535.179000", "110535.181000", "110535.184000", "110535.186000", "110535.189000", "110535.191000", "110535.194000", "110535.196000", "110535.199000", "110535.201000", "110535.204000", "110535.207000", "110535.210000", "110535.212000", "110545.306000", "110545.309000", "110545.312000", "110545.315000", "110545.317000", "110545.320000", "110545.323000", "110545.326000", "110545.328000", "110545.331000", "110545.333000"],
      "InstanceCreationTime": ["110155.191000", "110155.194000", "110155.196000", "110155.199000", "110155.201000", "110155.204000", "110155.207000", "110155.210000", "110155.212000", "110155.215000", "110155.223000", "110155.225000", "110155.228000", "110155.230000", "110155.233000", "110155.235000", "110155.238000", "110155.240000", "110155.243000", "110155.245000", "110155.248000", "110155.250000", "110155.253000", "110155.255000", "110155.258000", "110155.261000", "110155.264000", "110155.267000", "110155.270000", "110155.274000", "110155.277000", "110155.279000", "110155.282000", "110215.164000", "110215.167000", "110215.170000", "110215.172000", "110215.175000", "110215.177000", "110215.180000", "110215.182000", "110215.185000", "110215.187000", "110215.190000", "110215.192000", "110215.195000", "110215.197000", "110215.200000", "110215.202000", "110215.205000", "110215.209000", "110215.211000", "110215.214000", "110235.164000", "110235.167000", "110235.177000", "110235.180000", "110235.182000", "110235.185000", "110235.187000", "110235.190000", "110235.192000", "110235.194000", "110235.197000", "110235.199000", "110235.202000", "110235.205000", "110235.208000", "110235.210000", "110235.213000", "110235.215000", "110235.218000", "110235.220000", "110255.163000", "110255.166000", "110255.169000", "110255.171000", "110255.174000", "110255.176000", "110255.179000", "110255.181000", "110255.184000", "110255.186000", "110255.189000", "110255.191000", "110255.202000", "110255.205000", "110255.208000", "110255.210000", "110255.212000", "110255.215000", "110255.218000", "110255.220000", "110315.163000", "110315.166000", "110315.169000", "110315.171000", "110315.174000", "110315.176000", "110315.179000", "110315.181000", "110315.183000", "110315.186000", "110315.188000", "110315.191000", "110315.193000", "110315.203000", "110315.206000", "110315.209000", "110315.211000", "110315.214000", "110315.216000", "110315.219000", "110335.164000", "110335.177000", "110335.180000", "110335.182000", "110335.185000", "110335.187000", "110335.190000", "110335.192000", "110335.195000", "110335.197000", "110335.200000", "110335.202000", "110335.205000", "110335.208000", "110335.211000", "110335.213000", "110335.216000", "110335.218000", "110335.221000", "110335.223000", "110355.164000", "110355.167000", "110355.170000", "110355.172000", "110355.175000", "110355.177000", "110355.180000", "110355.182000", "110355.185000", "110355.187000", "110355.190000", "110355.192000", "110355.195000", "110355.197000", "110355.200000", "110355.202000", "110355.205000", "110355.209000", "110355.212000", "110355.214000", "110415.164000", "110415.167000", "110415.170000", "110415.172000", "110415.174000", "110415.177000", "110415.180000", "110415.182000", "110415.185000", "110415.187000", "110415.190000", "110415.192000", "110415.194000", "110415.197000", "110415.199000", "110415.202000", "110415.204000", "110415.209000", "110415.211000", "110415.213000", "110435.165000", "110435.167000", "110435.170000", "110435.172000", "110435.175000", "110435.177000", "110435.180000", "110435.182000", "110435.185000", "110435.187000", "110435.190000", "110435.192000", "110435.195000", "110435.197000", "110435.200000", "110435.202000", "110435.206000", "110435.209000", "110435.211000", "110435.213000", "110455.163000", "110455.166000", "110455.169000", "110455.171000", "110455.174000", "110455.176000", "110455.179000", "110455.181000", "110455.184000", "110455.186000", "110455.189000", "110455.191000", "110455.194000", "110455.196000", "110455.199000", "110455.201000", "110455.203000", "110455.207000", "110455.210000", "110455.212000", "110515.163000", "110515.166000", "110515.169000", "110515.171000", "110515.174000", "110515.176000", "110515.179000", "110515.181000", "110515.184000", "110515.186000", "110515.189000", "110515.191000", "110515.193000", "110515.196000", "110515.199000", "110515.201000", "110515.203000", "110515.207000", "110515.209000", "110515.212000", "110535.163000", "110535.166000", "110535.169000", "110535.171000", "110535.174000", "110535.176000", "110535.179000", "110535.181000", "110535.184000", "110535.186000", "110535.189000", "110535.191000", "110535.194000", "110535.196000", "110535.199000", "110535.201000", "110535.204000", "110535.207000", "110535.210000", "110535.212000", "110545.306000", "110545.309000", "110545.312000", "110545.315000", "110545.317000", "110545.320000", "110545.323000", "110545.326000", "110545.328000", "110545.331000", "110545.333000"],
      "InstanceNumber": [1, 2, 3, 4, 5, 6, 7, 8, 9, 10, 11, 12, 13, 14, 15, 16, 17, 18, 19, 20, 21, 22, 23, 24, 25, 26, 27, 28, 29, 30, 31, 32, 33, 34, 35, 36, 37, 38, 39, 40, 41, 42, 43, 44, 45, 46, 47, 48, 49, 50, 51, 52, 53, 54, 55, 56, 57, 58, 59, 60, 61, 62, 63, 64, 65, 66, 67, 68, 69, 70, 71, 72, 73, 74, 75, 76, 77, 78, 79, 80, 81, 82, 83, 84, 85, 86, 87, 88, 89, 90, 91, 92, 93, 94, 95, 96, 97, 98, 99, 100, 101, 102, 103, 104, 105, 106, 107, 108, 109, 110, 111, 112, 113, 114, 115, 116, 117, 118, 119, 120, 121, 122, 123, 124, 125, 126, 127, 128, 129, 130, 131, 132, 133, 134, 135, 136, 137, 138, 139, 140, 141, 142, 143, 144, 145, 146, 147, 148, 149, 150, 151, 152, 153, 154, 155, 156, 157, 158, 159, 160, 161, 162, 163, 164, 165, 166, 167, 168, 169, 170, 171, 172, 173, 174, 175, 176, 177, 178, 179, 180, 181, 182, 183, 184, 185, 186, 187, 188, 189, 190, 191, 192, 193, 194, 195, 196, 197, 198, 199, 200, 201, 202, 203, 204, 205, 206, 207, 208, 209, 210, 211, 212, 213, 214, 215, 216, 217, 218, 219, 220, 221, 222, 223, 224, 225, 226, 227, 228, 229, 230, 231, 232, 233, 234, 235, 236, 237, 238, 239, 240, 241, 242, 243, 244, 245, 246, 247, 248, 249, 250, 251, 252, 253, 254, 255, 256, 257, 258, 259, 260, 261, 262, 263, 264],
      "LargestImagePixelValue": [13367, 13094, 12861, 12786, 12757, 12613, 12663, 12636, 12665, 12680, 12563, 12632, 12688, 12631, 12568, 12665, 12577, 12616, 12606, 13437, 13230, 13067, 12827, 12650, 12683, 12650, 12552, 12613, 12691, 12842, 12717, 12695, 12801, 12777, 12864, 12922, 12814, 12713, 12637, 12668, 12701, 12875, 12712, 12797, 12768, 12624, 12714, 12624, 12665, 12620, 12514, 12554, 12768, 12611, 12694, 12868, 12776, 12766, 12806, 12802, 12755, 12829, 12711, 12881, 12843, 12763, 12675, 12678, 12952, 12837, 12902, 12667, 12749, 12632, 12705, 12590, 12544, 12766, 12729, 12646, 12730, 12638, 12576, 12591, 12659, 12615, 12423, 12356, 12490, 12420, 12469, 12519, 12550, 12452, 12492, 12464, 12404, 12415, 12388, 12416, 12499, 12545, 12562, 12502, 12458, 12534, 12403, 12238, 12517, 12520, 12506, 12507, 12478, 12455, 12321, 12306, 12464, 12400, 12398, 12365, 12491, 12305, 12367, 12391, 12223, 12382, 12373, 12425, 12436, 12356, 12317, 12591, 12540, 12517, 12602, 12705, 12569, 12517, 12585, 12638, 12534, 12739, 12750, 12690, 12520, 12647, 12510, 12423, 12553, 12619, 12640, 12551, 12696, 12357, 12597, 12567, 12626, 12526, 12500, 12666, 12593, 12583, 12508, 12571, 12584, 12534, 12509, 12449, 12626, 12541, 12614, 12596, 12564, 12350, 12507, 12340, 12547, 12451, 12465, 12531, 12813, 12711, 12570, 12716, 12509, 13566, 12975, 12866, 12769, 12906, 12977, 12994, 12946, 12869, 12831, 12982, 12900, 12827, 12673, 12629, 12483, 12515, 12668, 12827, 12665, 12639, 12900, 13063, 12946, 13736, 16480, 14369, 13322, 13052, 12711, 12448, 12635, 12547, 12660, 12571, 12673, 12620, 12637, 12678, 12724, 12701, 12633, 12740, 12664, 12653, 12742, 12702, 12600, 12691, 12622, 12665, 12583, 12643, 12629, 12663, 12804, 12505, 12471, 12486, 12415, 12553, 12434, 12408, 12337, 12525, 12545, 12740, 12799, 12769, 12494, 12467, 12620, 12604, 12642, 12547, 12611, 12576, 12614, 12701],
      "TriggerTime": [8102.5, 9102.5, 10102.5, 11102.5, 12102.5, 13102.5, 14102.5, 15102.5, 16102.5, 17102.5, 18102.5, 19102.5, 20102.5, 21102.5, 22102.5, 23102.5, 24102.5, 25102.5, 26102.5, 27102.5, 28102.5, 29102.5, 30102.5, 31102.5, 32102.5, 33102.5, 34102.5, 35102.5, 36102.5, 37102.5, 38102.5, 39102.5, 40102.5, 41102.5, 42102.5, 43102.5, 44102.5, 45102.5, 46102.5, 47102.5, 48102.5, 49102.5, 50102.5, 51102.5, 52102.5, 53102.5, 54102.5, 55102.5, 56102.5, 57102.5, 58102.5, 59102.5, 60102.5, 61102.5, 62102.5, 63102.5, 64102.5, 65102.5, 66102.5, 67102.5, 68102.5, 69102.5, 70102.5, 71102.5, 72102.5, 73102.5, 74102.5, 75102.5, 76102.5, 77102.5, 78102.5, 79102.5, 80102.5, 81102.5, 82102.5, 83102.5, 84102.5, 85102.5, 86102.5, 87102.5, 88102.5, 89102.5, 90102.5, 91102.5, 92102.5, 93102.5, 94102.5, 95102.5, 96102.5, 97102.5, 98102.5, 99102.5, 100102.5, 101102.5, 102102.5, 103102.5, 104102.5, 105102.5, 106102.5, 107102.5, 108102.5, 109102.5, 110102.5, 111102.5, 112102.5, 113102.5, 114102.5, 115102.5, 116102.5, 117102.5, 118102.5, 119102.5, 120102.5, 121102.5, 122102.5, 123102.5, 124102.5, 125102.5, 126102.5, 127102.5, 128102.5, 129102.5, 130102.5, 131102.5, 132102.5, 133102.5, 134102.5, 135102.5, 136102.5, 137102.5, 138102.5, 139102.5, 140102.5, 141102.5, 142102.5, 143102.5, 144102.5, 145102.5, 146102.5, 147102.5, 148102.5, 149102.5, 150102.5, 151102.5, 152102.5, 153102.5, 154102.5, 155102.5, 156102.5, 157102.5, 158102.5, 159102.5, 160102.5, 161102.5, 162102.5, 163102.5, 164102.5, 165102.5, 166102.5, 167102.5, 168102.5, 169102.5, 170102.5, 171102.5, 172102.5, 173102.5, 174102.5, 175102.5, 176102.5, 177102.5, 178102.5, 179102.5, 180102.5, 181102.5, 182102.5, 183102.5, 184102.5, 185102.5, 186102.5, 187102.5, 188102.5, 189102.5, 190102.5, 191102.5, 192102.5, 193102.5, 194102.5, 195102.5, 196102.5, 197102.5, 198102.5, 199102.5, 200102.5, 201102.5, 202102.5, 203102.5, 204102.5, 205102.5, 206102.5, 207102.5, 208102.5, 209102.5, 210102.5, 211102.5, 212102.5, 213102.5, 214102.5, 215102.5, 216102.5, 217102.5, 218102.5, 219102.5, 220102.5, 221102.5, 222102.5, 223102.5, 224102.5, 225102.5, 226102.5, 227102.5, 228102.5, 229102.5, 230102.5, 231102.5, 232102.5, 233102.5, 234102.5, 235102.5, 236102.5, 237102.5, 238102.5, 239102.5, 240102.5, 241102.5, 242102.5, 243102.5, 244102.5, 245102.5, 246102.5, 247102.5, 248102.5, 249102.5, 250102.5, 251102.5, 252102.5, 253102.5, 254102.5, 255102.5, 256102.5, 257102.5, 258102.5, 259102.5, 260102.5, 261102.5, 262102.5, 263102.5, 264102.5, 265102.5, 266102.5, 267102.5, 268102.5, 269102.5, 270102.5, 271102.5],
      "WindowCenter": [4719.0, 4705.0, 4692.0, 4692.0, 4681.0, 4677.0, 4676.0, 4665.0, 4676.0, 4678.0, 4665.0, 4668.0, 4678.0, 4678.0, 4681.0, 4682.0, 4679.0, 4682.0, 4692.0, 4697.0, 4716.0, 4702.0, 4694.0, 4678.0, 4678.0, 4677.0, 4665.0, 4665.0, 4673.0, 4674.0, 4677.0, 4677.0, 4690.0, 4703.0, 4705.0, 4707.0, 4706.0, 4703.0, 4692.0, 4705.0, 4703.0, 4693.0, 4696.0, 4692.0, 4704.0, 4693.0, 4691.0, 4691.0, 4694.0, 4692.0, 4683.0, 4692.0, 4692.0, 4682.0, 4690.0, 4693.0, 4692.0, 4695.0, 4691.0, 4691.0, 4690.0, 4691.0, 4690.0, 4679.0, 4679.0, 4677.0, 4679.0, 4679.0, 4680.0, 4689.0, 4691.0, 4690.0, 4679.0, 4678.0, 4679.0, 4679.0, 4677.0, 4679.0, 4678.0, 4677.0, 4690.0, 4681.0, 4681.0, 4681.0, 4690.0, 4678.0, 4676.0, 4666.0, 4676.0, 4679.0, 4666.0, 4670.0, 4676.0, 4676.0, 4668.0, 4677.0, 4679.0, 4677.0, 4679.0, 4681.0, 4681.0, 4681.0, 4685.0, 4682.0, 4682.0, 4680.0, 4681.0, 4674.0, 4681.0, 4693.0, 4683.0, 4681.0, 4691.0, 4692.0, 4692.0, 4684.0, 4695.0, 4693.0, 4694.0, 4693.0, 4683.0, 4682.0, 4680.0, 4682.0, 4669.0, 4681.0, 4678.0, 4681.0, 4680.0, 4678.0, 4679.0, 4682.0, 4681.0, 4680.0, 4682.0, 4690.0, 4680.0, 4679.0, 4680.0, 4681.0, 4681.0, 4690.0, 4691.0, 4692.0, 4683.0, 4691.0, 4681.0, 4681.0, 4680.0, 4681.0, 4679.0, 4679.0, 4691.0, 4684.0, 4680.0, 4682.0, 4692.0, 4683.0, 4681.0, 4692.0, 4682.0, 4683.0, 4682.0, 4680.0, 4680.0, 4680.0, 4682.0, 4682.0, 4681.0, 4681.0, 4681.0, 4680.0, 4683.0, 4682.0, 4683.0, 4683.0, 4680.0, 4683.0, 4681.0, 4681.0, 4696.0, 4680.0, 4667.0, 4692.0, 4679.0, 4705.0, 4691.0, 4683.0, 4693.0, 4695.0, 4705.0, 4718.0, 4694.0, 4675.0, 4676.0, 4674.0, 4662.0, 4653.0, 4652.0, 4653.0, 4641.0, 4651.0, 4650.0, 4652.0, 4652.0, 4640.0, 4578.0, 4695.0, 4667.0, 4702.0, 4690.0, 4704.0, 4664.0, 4650.0, 4638.0, 4627.0, 4638.0, 4639.0, 4652.0, 4658.0, 4679.0, 4680.0, 4681.0, 4694.0, 4698.0, 4692.0, 4684.0, 4683.0, 4683.0, 4685.0, 4697.0, 4696.0, 4697.0, 4707.0, 4697.0, 4707.0, 4697.0, 4697.0, 4700.0, 4697.0, 4696.0, 4683.0, 4684.0, 4683.0, 4670.0, 4683.0, 4681.0, 4670.0, 4669.0, 4680.0, 4669.0, 4683.0, 4684.0, 4667.0, 4667.0, 4680.0, 4669.0, 4668.0, 4667.0, 4666.0, 4665.0, 4668.0, 4668.0, 4679.0],
