{
  "AcquisitionMatrixPE": 106,
  "AcquisitionNumber": 1,
  "AcquisitionTime": "11:06:40.770000",
  "BandwidthPerPixelPhaseEncode": 13.477,
  "BaseResolution": 106,
  "BodyPartExamined": "BRAIN",
  "CoilCombinationMethod": "Sum of Squares",
  "ConsistencyInfo": "N4_VE11C_LATEST_20160120",
  "ConversionSoftware": "dcm2niix",
  "ConversionSoftwareVersion": "v1.0.20220720",
  "DerivedVendorReportedEchoSpacing": 0.000700005,
  "DeviceSerialNumber": "166108",
  "DwellTime": 2.6e-06,
  "EchoTime": 0.03,
  "EchoTrainLength": 80,
  "EffectiveEchoSpacing": 0.000700005,
  "FlipAngle": 62,
  "HeudiconvVersion": "1.3.0",
  "ImageComments": "Unaliased MB4/PE3/LB",
  "ImageOrientationPatientDICOM": [1, 0, 0, 0, 0.91496, -0.403545],
  "ImageOrientationText": "Tra>Cor(-23.8)",
  "ImageType": [
    "ORIGINAL",
    "PRIMARY",
    "M",
    "MB",
    "ND",
    "MOSAIC"
],
  "ImagingFrequency": 123.244,
  "InPlanePhaseEncodingDirectionDICOM": "COL",
  "InstitutionAddress": "Bedford Way 26,London,London,GB,WC1H 0AP",
  "InstitutionName": "University College",
  "InstitutionalDepartmentName": "Department",
  "MRAcquisitionType": "2D",
  "MagneticFieldStrength": 3,
  "Manufacturer": "Siemens",
  "ManufacturersModelName": "Prisma",
  "MatrixCoilMode": "SENSE",
  "Modality": "MR",
  "MultibandAccelerationFactor": 4,
  "NonlinearGradientCorrection": false,
  "PartialFourier": 0.75,
  "PatientPosition": "HFS",
  "PercentPhaseFOV": 100,
  "PercentSampling": 100,
  "PhaseEncodingDirection": "j-",
  "PhaseEncodingSteps": 80,
  "PhaseResolution": 1,
  "PixelBandwidth": 1815,
  "ProcedureStepDescription": "Egor^MovieProject2",
  "ProtocolName": "func-bold_task-tono_run-02",
  "PulseSequenceDetails": "%CustomerSeq%\\cmrr_mbep2d_bold",
  "ReceiveCoilActiveElements": "HEA;HEP",
  "ReceiveCoilName": "Head_32",
  "ReconMatrixPE": 106,
  "RepetitionTime": 1,
  "SAR": 0.0411487,
  "ScanOptions": "PFP\\FS\\EXT",
  "ScanningSequence": "EP",
  "SequenceName": "epfid2d1_106",
  "SequenceVariant": "SK\\SS",
  "SeriesDescription": "func-bold_task-tono_run-02",
  "SeriesNumber": 20,
  "ShimSetting": [-1498, 605, 7403, 178, 25, 71, 182, -90],
  "SliceThickness": 2,
  "SliceTiming": [0, 0.5325, 0.0875, 0.6225, 0.1775, 0.7125, 0.265, 0.8, 0.355, 0.89, 0.445, 0, 0.5325, 0.0875, 0.6225, 0.1775, 0.7125, 0.265, 0.8, 0.355, 0.89, 0.445, 0, 0.5325, 0.0875, 0.6225, 0.1775, 0.7125, 0.265, 0.8, 0.355, 0.89, 0.445, 0, 0.5325, 0.0875, 0.6225, 0.1775, 0.7125, 0.265, 0.8, 0.355, 0.89, 0.445],
  "SoftwareVersions": "syngo MR E11",
  "SpacingBetweenSlices": 2,
  "StationName": "AWP166108",
  "TaskName": "tonotopy",
  "TotalReadoutTime": 0.0735005,
  "TxRefAmp": 230.145,
  "WipMemBlock": "1585e9ac-4af5-4558-bf98-7f84f5e89eea||Sequence: R016 ve11c/master r/e634e98; Dec 19 2017 11:00:25 by eja",
  "dcmmeta_affine": [
    [-2.0, 0.0, 0.0, 106.0],
    [0.0, 1.8299193382263184, -0.8070906400680542, -69.23007202148438],
    [0.0, 0.8070906400680542, 1.8299193382263184, -60.011356353759766],
    [0.0, 0.0, 0.0, 1.0]
],
  "dcmmeta_reorient_transform": [
    [0.0, -1.0, 0.0, 105.0],
    [1.0, 0.0, 0.0, 0.0],
    [0.0, 0.0, 1.0, 0.0],
    [0.0, 0.0, 0.0, 1.0]
],
  "dcmmeta_shape": [106, 106, 44, 264],
  "dcmmeta_slice_dim": 2,
  "dcmmeta_version": 0.6,
  "global": {
    "const": {
      "AcquisitionMatrix": [106, 0, 0, 106],
      "AngioFlag": "N",
      "BitsAllocated": 16,
      "BitsStored": 16,
      "BodyPartExamined": "BRAIN",
      "CardiacNumberOfImages": 1,
      "Columns": 742,
      "EchoNumbers": 1,
      "EchoTime": 30.0,
      "EchoTrainLength": 80,
      "FlipAngle": 62.0,
      "HighBit": 15,
      "ImageOrientationPatient": [1.0, 0.0, 0.0, 0.0, 0.91495965822336, -0.4035453181785],
      "ImagePositionPatient": [-742.0, -704.82579806067, 281.38798158773],
      "ImageType": [
        "ORIGINAL",
        "PRIMARY",
        "M",
        "MB",
        "ND",
        "MOSAIC"
],
      "ImagedNucleus": "1H",
      "ImagingFrequency": 123.243645,
      "InPlanePhaseEncodingDirection": "COL",
      "MRAcquisitionType": "2D",
      "MagneticFieldStrength": 3.0,
      "Manufacturer": "SIEMENS",
      "ManufacturerModelName": "Prisma",
      "Modality": "MR",
      "NominalInterval": 0,
      "NumberOfAverages": 1.0,
      "NumberOfPhaseEncodingSteps": 80,
      "PercentPhaseFieldOfView": 100.0,
      "PercentSampling": 100.0,
      "PerformedProcedureStepStartTime": "094757.618000",
      "PhotometricInterpretation": "MONOCHROME2",
      "PixelBandwidth": 1815.0,
      "PixelRepresentation": 0,
      "PixelSpacing": [2.0, 2.0],
      "ProtocolName": "func-bold_task-tono_run-02",
      "RepetitionTime": 1000.0,
      "Rows": 742,
      "SAR": 0.04114871945822,
      "SamplesPerPixel": 1,
      "ScanOptions": [
        "PFP",
        "FS",
        "EXT"
],
      "ScanningSequence": "EP",
      "SequenceName": "epfid2d1_106",
      "SequenceVariant": [
        "SK",
        "SS"
],
      "SeriesDescription": "func-bold_task-tono_run-02",
      "SeriesNumber": 20,
      "SeriesTime": "110715.258000",
      "SliceLocation": -26.970499477152,
      "SliceThickness": 2.0,
      "SmallestImagePixelValue": 0,
      "SoftwareVersions": "syngo MR E11",
      "SpacingBetweenSlices": 1.999999987785,
      "SpecificCharacterSet": "ISO_IR 100",
      "StudyID": "1",
      "StudyTime": "094757.563000",
      "TransmitCoilName": "Body",
      "VariableFlipAngleFlag": "N",
      "WindowCenterWidthExplanation": "Algo1",
      "dBdt": 0.0},
    "slices": {}
  },
  "time": {
    "samples": {
      "AcquisitionNumber": [1, 2, 3, 4, 5, 6, 7, 8, 9, 10, 11, 12, 13, 14, 15, 16, 17, 18, 19, 20, 21, 22, 23, 24, 25, 26, 27, 28, 29, 30, 31, 32, 33, 34, 35, 36, 37, 38, 39, 40, 41, 42, 43, 44, 45, 46, 47, 48, 49, 50, 51, 52, 53, 54, 55, 56, 57, 58, 59, 60, 61, 62, 63, 64, 65, 66, 67, 68, 69, 70, 71, 72, 73, 74, 75, 76, 77, 78, 79, 80, 81, 82, 83, 84, 85, 86, 87, 88, 89, 90, 91, 92, 93, 94, 95, 96, 97, 98, 99, 100, 101, 102, 103, 104, 105, 106, 107, 108, 109, 110, 111, 112, 113, 114, 115, 116, 117, 118, 119, 120, 121, 122, 123, 124, 125, 126, 127, 128, 129, 130, 131, 132, 133, 134, 135, 136, 137, 138, 139, 140, 141, 142, 143, 144, 145, 146, 147, 148, 149, 150, 151, 152, 153, 154, 155, 156, 157, 158, 159, 160, 161, 162, 163, 164, 165, 166, 167, 168, 169, 170, 171, 172, 173, 174, 175, 176, 177, 178, 179, 180, 181, 182, 183, 184, 185, 186, 187, 188, 189, 190, 191, 192, 193, 194, 195, 196, 197, 198, 199, 200, 201, 202, 203, 204, 205, 206, 207, 208, 209, 210, 211, 212, 213, 214, 215, 216, 217, 218, 219, 220, 221, 222, 223, 224, 225, 226, 227, 228, 229, 230, 231, 232, 233, 234, 235, 236, 237, 238, 239, 240, 241, 242, 243, 244, 245, 246, 247, 248, 249, 250, 251, 252, 253, 254, 255, 256, 257, 258, 259, 260, 261, 262, 263, 264],
      "AcquisitionTime": ["110640.770000", "110641.770000", "110642.770000", "110643.770000", "110644.770000", "110645.770000", "110646.770000", "110647.770000", "110648.770000", "110649.770000", "110650.770000", "110651.770000", "110652.770000", "110653.770000", "110654.770000", "110655.770000", "110656.770000", "110657.770000", "110658.770000", "110659.770000", "110700.770000", "110701.770000", "110702.770000", "110703.770000", "110704.770000", "110705.770000", "110706.770000", "110707.770000", "110708.770000", "110709.770000", "110710.770000", "110711.770000", "110712.770000", "110713.770000", "110714.770000", "110715.770000", "110716.770000", "110717.770000", "110718.770000", "110719.770000", "110720.770000", "110721.770000", "110722.770000", "110723.770000", "110724.770000", "110725.770000", "110726.770000", "110727.770000", "110728.770000", "110729.770000", "110730.770000", "110731.770000", "110732.770000", "110733.770000", "110734.770000", "110735.770000", "110736.770000", "110737.770000", "110738.770000", "110739.770000", "110740.770000", "110741.770000", "110742.770000", "110743.770000", "110744.770000", "110745.770000", "110746.770000", "110747.770000", "110748.770000", "110749.770000", "110750.770000", "110751.770000", "110752.770000", "110753.770000", "110754.770000", "110755.770000", "110756.770000", "110757.770000", "110758.770000", "110759.770000", "110800.770000", "110801.770000", "110802.770000", "110803.770000", "110804.770000", "110805.770000", "110806.770000", "110807.770000", "110808.770000", "110809.770000", "110810.770000", "110811.770000", "110812.770000", "110813.770000", "110814.770000", "110815.770000", "110816.770000", "110817.770000", "110818.770000", "110819.770000", "110820.770000", "110821.770000", "110822.770000", "110823.770000", "110824.770000", "110825.770000", "110826.770000", "110827.770000", "110828.770000", "110829.770000", "110830.770000", "110831.770000", "110832.770000", "110833.770000", "110834.770000", "110835.770000", "110836.770000", "110837.770000", "110838.770000", "110839.770000", "110840.770000", "110841.770000", "110842.770000", "110843.770000", "110844.770000", "110845.770000", "110846.770000", "110847.770000", "110848.770000", "110849.770000", "110850.770000", "110851.770000", "110852.770000", "110853.770000", "110854.770000", "110855.770000", "110856.770000", "110857.770000", "110858.770000", "110859.770000", "110900.770000", "110901.770000", "110902.770000", "110903.770000", "110904.770000", "110905.770000", "110906.770000", "110907.770000", "110908.770000", "110909.770000", "110910.770000", "110911.770000", "110912.770000", "110913.770000", "110914.770000", "110915.770000", "110916.770000", "110917.770000", "110918.770000", "110919.770000", "110920.770000", "110921.770000", "110922.770000", "110923.770000", "110924.770000", "110925.770000", "110926.770000", "110927.770000", "110928.770000", "110929.770000", "110930.770000", "110931.770000", "110932.770000", "110933.770000", "110934.770000", "110935.770000", "110936.770000", "110937.770000", "110938.770000", "110939.770000", "110940.770000", "110941.770000", "110942.770000", "110943.770000", "110944.770000", "110945.770000", "110946.770000", "110947.770000", "110948.770000", "110949.770000", "110950.770000", "110951.770000", "110952.770000", "110953.770000", "110954.770000", "110955.770000", "110956.770000", "110957.770000", "110958.770000", "110959.770000", "111000.770000", "111001.770000", "111002.770000", "111003.770000", "111004.770000", "111005.770000", "111006.770000", "111007.770000", "111008.770000", "111009.770000", "111010.770000", "111011.770000", "111012.770000", "111013.770000", "111014.770000", "111015.770000", "111016.770000", "111017.770000", "111018.770000", "111019.770000", "111020.770000", "111021.770000", "111022.770000", "111023.770000", "111024.770000", "111025.770000", "111026.770000", "111027.770000", "111028.770000", "111029.770000", "111030.770000", "111031.770000", "111032.770000", "111033.770000", "111034.770000", "111035.770000", "111036.770000", "111037.770000", "111038.770000", "111039.770000", "111040.770000", "111041.770000", "111042.770000", "111043.770000", "111044.770000", "111045.770000", "111046.770000", "111047.770000", "111048.770000", "111049.770000", "111050.770000", "111051.770000", "111052.770000", "111053.770000", "111054.770000", "111055.770000", "111056.770000", "111057.770000", "111058.770000", "111059.770000", "111100.770000", "111101.770000", "111102.770000", "111103.770000"],
      "ContentTime": ["110715.260000", "110715.263000", "110715.266000", "110715.268000", "110715.271000", "110715.274000", "110715.276000", "110715.278000", "110715.281000", "110715.284000", "110715.286000", "110715.288000", "110715.291000", "110715.293000", "110715.296000", "110715.298000", "110715.301000", "110715.309000", "110715.312000", "110715.314000", "110715.317000", "110715.319000", "110715.322000", "110715.325000", "110715.327000", "110715.330000", "110715.332000", "110715.335000", "110715.346000", "110715.349000", "110715.351000", "110715.354000", "110715.356000", "110715.359000", "110735.226000", "110735.229000", "110735.232000", "110735.234000", "110735.237000", "110735.239000", "110735.242000", "110735.244000", "110735.247000", "110735.249000", "110735.252000", "110735.257000", "110735.260000", "110735.262000", "110735.265000", "110735.268000", "110735.270000", "110735.272000", "110735.275000", "110735.278000", "110755.227000", "110755.229000", "110755.232000", "110755.234000", "110755.237000", "110755.239000", "110755.242000", "110755.244000", "110755.247000", "110755.250000", "110755.270000", "110755.273000", "110755.275000", "110755.278000", "110755.280000", "110755.283000", "110755.285000", "110755.288000", "110755.291000", "110755.293000", "110815.226000", "110815.229000", "110815.232000", "110815.234000", "110815.237000", "110815.239000", "110815.242000", "110815.244000", "110815.247000", "110815.249000", "110815.252000", "110815.254000", "110815.257000", "110815.259000", "110815.262000", "110815.264000", "110815.266000", "110815.269000", "110815.271000", "110815.274000", "110835.227000", "110835.230000", "110835.233000", "110835.235000", "110835.238000", "110835.240000", "110835.243000", "110835.245000", "110835.248000", "110835.250000", "110835.253000", "110835.255000", "110835.258000", "110835.260000", "110835.263000", "110835.265000", "110835.268000", "110835.270000", "110835.273000", "110835.275000", "110855.227000", "110855.230000", "110855.233000", "110855.236000", "110855.238000", "110855.241000", "110855.244000", "110855.246000", "110855.249000", "110855.251000", "110855.254000", "110855.256000", "110855.259000", "110855.261000", "110855.264000", "110855.267000", "110855.269000", "110855.272000", "110855.274000", "110855.285000", "110915.227000", "110915.230000", "110915.232000", "110915.235000", "110915.237000", "110915.240000", "110915.243000", "110915.245000", "110915.248000", "110915.250000", "110915.253000", "110915.255000", "110915.258000", "110915.261000", "110915.263000", "110915.266000", "110915.268000", "110915.271000", "110915.273000", "110915.276000", "110935.226000", "110935.229000", "110935.232000", "110935.234000", "110935.237000", "110935.239000", "110935.242000", "110935.244000", "110935.247000", "110935.249000", "110935.252000", "110935.254000", "110935.257000", "110935.264000", "110935.267000", "110935.269000", "110935.272000", "110935.274000", "110935.277000", "110935.279000", "110955.226000", "110955.229000", "110955.232000", "110955.234000", "110955.237000", "110955.239000", "110955.242000", "110955.244000", "110955.247000", "110955.249000", "110955.252000", "110955.254000", "110955.257000", "110955.259000", "110955.262000", "110955.264000", "110955.267000", "110955.269000", "110955.272000", "110955.274000", "111015.227000", "111015.229000", "111015.232000", "111015.234000", "111015.237000", "111015.239000", "111015.242000", "111015.244000", "111015.247000", "111015.249000", "111015.252000", "111015.254000", "111015.257000", "111015.259000", "111015.262000", "111015.264000", "111015.267000", "111015.269000", "111015.272000", "111015.274000", "111035.226000", "111035.229000", "111035.234000", "111035.237000", "111035.239000", "111035.242000", "111035.244000", "111035.247000", "111035.249000", "111035.252000", "111035.254000", "111035.257000", "111035.259000", "111035.262000", "111035.264000", "111035.267000", "111035.269000", "111035.272000", "111035.274000", "111035.276000", "111055.227000", "111055.230000", "111055.233000", "111055.236000", "111055.238000", "111055.240000", "111055.243000", "111055.246000", "111055.248000", "111055.251000", "111055.253000", "111055.271000", "111055.274000", "111055.276000", "111055.279000", "111055.281000", "111055.284000", "111055.286000", "111055.289000", "111055.291000", "111105.028000", "111105.031000", "111105.034000", "111105.038000", "111105.041000", "111105.044000", "111105.048000", "111105.051000", "111105.054000", "111105.057000"],
      "InstanceCreationTime": ["110715.260000", "110715.263000", "110715.266000", "110715.268000", "110715.271000", "110715.274000", "110715.276000", "110715.278000", "110715.281000", "110715.284000", "110715.286000", "110715.288000", "110715.291000", "110715.293000", "110715.296000", "110715.298000", "110715.301000", "110715.309000", "110715.312000", "110715.314000", "110715.317000", "110715.319000", "110715.322000", "110715.325000", "110715.327000", "110715.330000", "110715.332000", "110715.335000", "110715.346000", "110715.349000", "110715.351000", "110715.354000", "110715.356000", "110715.359000", "110735.226000", "110735.229000", "110735.232000", "110735.234000", "110735.237000", "110735.239000", "110735.242000", "110735.244000", "110735.247000", "110735.249000", "110735.252000", "110735.257000", "110735.260000", "110735.262000", "110735.265000", "110735.268000", "110735.270000", "110735.272000", "110735.275000", "110735.278000", "110755.227000", "110755.229000", "110755.232000", "110755.234000", "110755.237000", "110755.239000", "110755.242000", "110755.244000", "110755.247000", "110755.250000", "110755.270000", "110755.273000", "110755.275000", "110755.278000", "110755.280000", "110755.283000", "110755.285000", "110755.288000", "110755.291000", "110755.293000", "110815.226000", "110815.229000", "110815.232000", "110815.234000", "110815.237000", "110815.239000", "110815.242000", "110815.244000", "110815.247000", "110815.249000", "110815.252000", "110815.254000", "110815.257000", "110815.259000", "110815.262000", "110815.264000", "110815.266000", "110815.269000", "110815.271000", "110815.274000", "110835.227000", "110835.230000", "110835.233000", "110835.235000", "110835.238000", "110835.240000", "110835.243000", "110835.245000", "110835.248000", "110835.250000", "110835.253000", "110835.255000", "110835.258000", "110835.260000", "110835.263000", "110835.265000", "110835.268000", "110835.270000", "110835.273000", "110835.275000", "110855.227000", "110855.230000", "110855.233000", "110855.236000", "110855.238000", "110855.241000", "110855.244000", "110855.246000", "110855.249000", "110855.251000", "110855.254000", "110855.256000", "110855.259000", "110855.261000", "110855.264000", "110855.267000", "110855.269000", "110855.272000", "110855.274000", "110855.285000", "110915.227000", "110915.230000", "110915.232000", "110915.235000", "110915.237000", "110915.240000", "110915.243000", "110915.245000", "110915.248000", "110915.250000", "110915.253000", "110915.255000", "110915.258000", "110915.261000", "110915.263000", "110915.266000", "110915.268000", "110915.271000", "110915.273000", "110915.276000", "110935.226000", "110935.229000", "110935.232000", "110935.234000", "110935.237000", "110935.239000", "110935.242000", "110935.244000", "110935.247000", "110935.249000", "110935.252000", "110935.254000", "110935.257000", "110935.264000", "110935.267000", "110935.269000", "110935.272000", "110935.274000", "110935.277000", "110935.279000", "110955.226000", "110955.229000", "110955.232000", "110955.234000", "110955.237000", "110955.239000", "110955.242000", "110955.244000", "110955.247000", "110955.249000", "110955.252000", "110955.254000", "110955.257000", "110955.259000", "110955.262000", "110955.264000", "110955.267000", "110955.269000", "110955.272000", "110955.274000", "111015.227000", "111015.229000", "111015.232000", "111015.234000", "111015.237000", "111015.239000", "111015.242000", "111015.244000", "111015.247000", "111015.249000", "111015.252000", "111015.254000", "111015.257000", "111015.259000", "111015.262000", "111015.264000", "111015.267000", "111015.269000", "111015.272000", "111015.274000", "111035.226000", "111035.229000", "111035.234000", "111035.237000", "111035.239000", "111035.242000", "111035.244000", "111035.247000", "111035.249000", "111035.252000", "111035.254000", "111035.257000", "111035.259000", "111035.262000", "111035.264000", "111035.267000", "111035.269000", "111035.272000", "111035.274000", "111035.276000", "111055.227000", "111055.230000", "111055.233000", "111055.236000", "111055.238000", "111055.240000", "111055.243000", "111055.246000", "111055.248000", "111055.251000", "111055.253000", "111055.271000", "111055.274000", "111055.276000", "111055.279000", "111055.281000", "111055.284000", "111055.286000", "111055.289000", "111055.291000", "111105.028000", "111105.031000", "111105.034000", "111105.038000", "111105.041000", "111105.044000", "111105.048000", "111105.051000", "111105.054000", "111105.057000"],
      "InstanceNumber": [1, 2, 3, 4, 5, 6, 7, 8, 9, 10, 11, 12, 13, 14, 15, 16, 17, 18, 19, 20, 21, 22, 23, 24, 25, 26, 27, 28, 29, 30, 31, 32, 33, 34, 35, 36, 37, 38, 39, 40, 41, 42, 43, 44, 45, 46, 47, 48, 49, 50, 51, 52, 53, 54, 55, 56, 57, 58, 59, 60, 61, 62, 63, 64, 65, 66, 67, 68, 69, 70, 71, 72, 73, 74, 75, 76, 77, 78, 79, 80, 81, 82, 83, 84, 85, 86, 87, 88, 89, 90, 91, 92, 93, 94, 95, 96, 97, 98, 99, 100, 101, 102, 103, 104, 105, 106, 107, 108, 109, 110, 111, 112, 113, 114, 115, 116, 117, 118, 119, 120, 121, 122, 123, 124, 125, 126, 127, 128, 129, 130, 131, 132, 133, 134, 135, 136, 137, 138, 139, 140, 141, 142, 143, 144, 145, 146, 147, 148, 149, 150, 151, 152, 153, 154, 155, 156, 157, 158, 159, 160, 161, 162, 163, 164, 165, 166, 167, 168, 169, 170, 171, 172, 173, 174, 175, 176, 177, 178, 179, 180, 181, 182, 183, 184, 185, 186, 187, 188, 189, 190, 191, 192, 193, 194, 195, 196, 197, 198, 199, 200, 201, 202, 203, 204, 205, 206, 207, 208, 209, 210, 211, 212, 213, 214, 215, 216, 217, 218, 219, 220, 221, 222, 223, 224, 225, 226, 227, 228, 229, 230, 231, 232, 233, 234, 235, 236, 237, 238, 239, 240, 241, 242, 243, 244, 245, 246, 247, 248, 249, 250, 251, 252, 253, 254, 255, 256, 257, 258, 259, 260, 261, 262, 263, 264],
      "LargestImagePixelValue": [12306, 12118, 12346, 12390, 14220, 12360, 11953, 12037, 12122, 12022, 12144, 12217, 12123, 12220, 11884, 13886, 13611, 13112, 12618, 18748, 12582, 12715, 12459, 12183, 12365, 12154, 13053, 12770, 12301, 12561, 12607, 12541, 12360, 12201, 12309, 12513, 12506, 12362, 12278, 12043, 12180, 12187, 12256, 12204, 12266, 12132, 12914, 12979, 12736, 12566, 12398, 11810, 12073, 11829, 11915, 12501, 12722, 12589, 12437, 12419, 12264, 12177, 12301, 12433, 12899, 12478, 12555, 12858, 12956, 12934, 12803, 12932, 13044, 13159, 13183, 13171, 12958, 12867, 12984, 13033, 12970, 12958, 12802, 12878, 13023, 12982, 13041, 12804, 12920, 12867, 13216, 13164, 13200, 12961, 13122, 13358, 13202, 13242, 13162, 13104, 13023, 12792, 12890, 12974, 12884, 12981, 13094, 12997, 12797, 12828, 12804, 13098, 13029, 13157, 13239, 13081, 12841, 12978, 12934, 13027, 12932, 12913, 12765, 12788, 12833, 13042, 13203, 13240, 13101, 13111, 13007, 12705, 12841, 12867, 12984, 13039, 13100, 13112, 12888, 13064, 13110, 13076, 13227, 12822, 13475, 13662, 13335, 13311, 13332, 12980, 13116, 13156, 13269, 13092, 12905, 12709, 12876, 12805, 12878, 12813, 12788, 12825, 12664, 12684, 13103, 13046, 13049, 12652, 12883, 12796, 12766, 12924, 12881, 12971, 12926, 12857, 12126, 12655, 12586, 17058, 14360, 19180, 15637, 14050, 13315, 12963, 12837, 12853, 12507, 12576, 15398, 14722, 13143, 12630, 12426, 12773, 12647, 12598, 12751, 12652, 12683, 12528, 12695, 12448, 12538, 12505, 12313, 13091, 12973, 13032, 12687, 15275, 13285, 12960, 12390, 12171, 12013, 12278, 12460, 12764, 12761, 12910, 15924, 13647, 12393, 12300, 12273, 12270, 11910, 13090, 12499, 12664, 13613, 15295, 17338, 19368, 14648, 13985, 12537, 12107, 11775, 13138, 12792, 13227, 12930, 13206, 14239, 12736, 12130, 13730, 13314, 16472, 13199, 13004, 13496, 14390, 13912, 13541, 13530, 13349, 13115, 12974, 12966, 13082],
      "TriggerTime": [8102.5, 9102.5, 10102.5, 11102.5, 12102.5, 13102.5, 14102.5, 15102.5, 16102.5, 17102.5, 18102.5, 19102.5, 20102.5, 21102.5, 22102.5, 23102.5, 24102.5, 25102.5, 26102.5, 27102.5, 28102.5, 29102.5, 30102.5, 31102.5, 32102.5, 33102.5, 34102.5, 35102.5, 36102.5, 37102.5, 38102.5, 39102.5, 40102.5, 41102.5, 42102.5, 43102.5, 44102.5, 45102.5, 46102.5, 47102.5, 48102.5, 49102.5, 50102.5, 51102.5, 52102.5, 53102.5, 54102.5, 55102.5, 56102.5, 57102.5, 58102.5, 59102.5, 60102.5, 61102.5, 62102.5, 63102.5, 64102.5, 65102.5, 66102.5, 67102.5, 68102.5, 69102.5, 70102.5, 71102.5, 72102.5, 73102.5, 74102.5, 75102.5, 76102.5, 77102.5, 78102.5, 79102.5, 80102.5, 81102.5, 82102.5, 83102.5, 84102.5, 85102.5, 86102.5, 87102.5, 88102.5, 89102.5, 90102.5, 91102.5, 92102.5, 93102.5, 94102.5, 95102.5, 96102.5, 97102.5, 98102.5, 99102.5, 100102.5, 101102.5, 102102.5, 103102.5, 104102.5, 105102.5, 106102.5, 107102.5, 108102.5, 109102.5, 110102.5, 111102.5, 112102.5, 113102.5, 114102.5, 115102.5, 116102.5, 117102.5, 118102.5, 119102.5, 120102.5, 121102.5, 122102.5, 123102.5, 124102.5, 125102.5, 126102.5, 127102.5, 128102.5, 129102.5, 130102.5, 131102.5, 132102.5, 133102.5, 134102.5, 135102.5, 136102.5, 137102.5, 138102.5, 139102.5, 140102.5, 141102.5, 142102.5, 143102.5, 144102.5, 145102.5, 146102.5, 147102.5, 148102.5, 149102.5, 150102.5, 151102.5, 152102.5, 153102.5, 154102.5, 155102.5, 156102.5, 157102.5, 158102.5, 159102.5, 160102.5, 161102.5, 162102.5, 163102.5, 164102.5, 165102.5, 166102.5, 167102.5, 168102.5, 169102.5, 170102.5, 171102.5, 172102.5, 173102.5, 174102.5, 175102.5, 176102.5, 177102.5, 178102.5, 179102.5, 180102.5, 181102.5, 182102.5, 183102.5, 184102.5, 185102.5, 186102.5, 187102.5, 188102.5, 189102.5, 190102.5, 191102.5, 192102.5, 193102.5, 194102.5, 195102.5, 196102.5, 197102.5, 198102.5, 199102.5, 200102.5, 201102.5, 202102.5, 203102.5, 204102.5, 205102.5, 206102.5, 207102.5, 208102.5, 209102.5, 210102.5, 211102.5, 212102.5, 213102.5, 214102.5, 215102.5, 216102.5, 217102.5, 218102.5, 219102.5, 220102.5, 221102.5, 222102.5, 223102.5, 224102.5, 225102.5, 226102.5, 227102.5, 228102.5, 229102.5, 230102.5, 231102.5, 232102.5, 233102.5, 234102.5, 235102.5, 236102.5, 237102.5, 238102.5, 239102.5, 240102.5, 241102.5, 242102.5, 243102.5, 244102.5, 245102.5, 246102.5, 247102.5, 248102.5, 249102.5, 250102.5, 251102.5, 252102.5, 253102.5, 254102.5, 255102.5, 256102.5, 257102.5, 258102.5, 259102.5, 260102.5, 261102.5, 262102.5, 263102.5, 264102.5, 265102.5, 266102.5, 267102.5, 268102.5, 269102.5, 270102.5, 271102.5],
      "WindowCenter": [4704.0, 4677.0, 4684.0, 4685.0, 4575.0, 4719.0, 4676.0, 4672.0, 4689.0, 4661.0, 4659.0, 4661.0, 4660.0, 4670.0, 4587.0, 4614.0, 4697.0, 4670.0, 4649.0, 4677.0, 4633.0, 4657.0, 4658.0, 4659.0, 4646.0, 4636.0, 4642.0, 4661.0, 4643.0, 4656.0, 4657.0, 4659.0, 4650.0, 4646.0, 4644.0, 4646.0, 4647.0, 4645.0, 4648.0, 4647.0, 4648.0, 4649.0, 4646.0, 4645.0, 4647.0, 4649.0, 4670.0, 4659.0, 4643.0, 4647.0, 4643.0, 4638.0, 4645.0, 4646.0, 4650.0, 4657.0, 4671.0, 4662.0, 4662.0, 4661.0, 4648.0, 4658.0, 4648.0, 4658.0, 4551.0, 4655.0, 4702.0, 4743.0, 4714.0, 4711.0, 4700.0, 4698.0, 4710.0, 4709.0, 4709.0, 4707.0, 4699.0, 4711.0, 4709.0, 4709.0, 4711.0, 4709.0, 4709.0, 4710.0, 4708.0, 4710.0, 4707.0, 4708.0, 4709.0, 4710.0, 4712.0, 4709.0, 4708.0, 4709.0, 4711.0, 4720.0, 4721.0, 4711.0, 4712.0, 4709.0, 4709.0, 4699.0, 4699.0, 4710.0, 4710.0, 4708.0, 4707.0, 4709.0, 4698.0, 4697.0, 4697.0, 4707.0, 4707.0, 4709.0, 4710.0, 4709.0, 4701.0, 4696.0, 4697.0, 4696.0, 4683.0, 4684.0, 4694.0, 4684.0, 4694.0, 4707.0, 4709.0, 4711.0, 4708.0, 4706.0, 4696.0, 4695.0, 4694.0, 4694.0, 4694.0, 4681.0, 4683.0, 4694.0, 4684.0, 4693.0, 4698.0, 4697.0, 4698.0, 4710.0, 4695.0, 4705.0, 4692.0, 4693.0, 4697.0, 4686.0, 4694.0, 4697.0, 4682.0, 4682.0, 4682.0, 4681.0, 4682.0, 4682.0, 4671.0, 4670.0, 4668.0, 4669.0, 4670.0, 4682.0, 4695.0, 4700.0, 4695.0, 4712.0, 4722.0, 4710.0, 4695.0, 4682.0, 4680.0, 4679.0, 4668.0, 4657.0, 4586.0, 4700.0, 4655.0, 4763.0, 4691.0, 4767.0, 4701.0, 4677.0, 4667.0, 4654.0, 4644.0, 4653.0, 4646.0, 4640.0, 4699.0, 4701.0, 4683.0, 4658.0, 4688.0, 4700.0, 4686.0, 4675.0, 4671.0, 4662.0, 4658.0, 4658.0, 4673.0, 4672.0, 4677.0, 4674.0, 4665.0, 4664.0, 4698.0, 4678.0, 4656.0, 4730.0, 4668.0, 4658.0, 4634.0, 4632.0, 4630.0, 4632.0, 4629.0, 4672.0, 4653.0, 4631.0, 4554.0, 4595.0, 4646.0, 4605.0, 4604.0, 4605.0, 4545.0, 4670.0, 4631.0, 4687.0, 4687.0, 4728.0, 4634.0, 4804.0, 4631.0, 4700.0, 4660.0, 4649.0, 4591.0, 4625.0, 4607.0, 4810.0, 4759.0, 4835.0, 4829.0, 4731.0, 4785.0, 4808.0, 4762.0, 4806.0, 4708.0, 4663.0, 4795.0, 4786.0, 4773.0, 4765.0, 4765.0, 4761.0, 4751.0, 4751.0, 4754.0, 4751.0],
