{
  "AcquisitionMatrixPE": 106,
  "AcquisitionNumber": 1,
  "AcquisitionTime": "14:32:17.067500",
  "BandwidthPerPixelPhaseEncode": 16.846,
  "BaseResolution": 106,
  "BodyPartExamined": "BRAIN",
  "CoilCombinationMethod": "Sum of Squares",
  "ConsistencyInfo": "N4_VE11C_LATEST_20160120",
  "ConversionSoftware": "dcm2niix",
  "ConversionSoftwareVersion": "v1.0.20220720",
  "DerivedVendorReportedEchoSpacing": 0.000560012,
  "DeviceSerialNumber": "166108",
  "DwellTime": 1.8e-06,
  "EchoTime": 0.0352,
  "EchoTrainLength": 106,
  "EffectiveEchoSpacing": 0.000560012,
  "FlipAngle": 60,
  "HeudiconvVersion": "1.3.0",
  "ImageComments": "Unaliased MB4/PE3/LB",
  "ImageOrientationPatientDICOM": [1, 0, 0, 0, 1, 0],
  "ImageOrientationText": "Tra",
  "ImageType": [
    "ORIGINAL",
    "PRIMARY",
    "M",
    "MB",
    "ND",
    "MOSAIC"
],
  "ImagingFrequency": 123.244,
  "InPlanePhaseEncodingDirectionDICOM": "COL",
  "InstitutionAddress": "Bedford Way 26,London,London,GB,WC1H 0AP",
  "InstitutionName": "University College",
  "InstitutionalDepartmentName": "Department",
  "MRAcquisitionType": "2D",
  "MagneticFieldStrength": 3,
  "Manufacturer": "Siemens",
  "ManufacturersModelName": "Prisma",
  "MatrixCoilMode": "SENSE",
  "Modality": "MR",
  "MultibandAccelerationFactor": 4,
  "NonlinearGradientCorrection": false,
  "PartialFourier": 1,
  "PatientPosition": "HFS",
  "PercentPhaseFOV": 100,
  "PercentSampling": 100,
  "PhaseEncodingDirection": "j-",
  "PhaseEncodingSteps": 106,
  "PhaseResolution": 1,
  "PixelBandwidth": 2620,
  "ProcedureStepDescription": "Egor^MovieProject2",
  "ProtocolName": "task-backtothefuture_run-2",
  "PulseSequenceDetails": "%CustomerSeq%\\cmrr_mbep2d_bold",
  "ReceiveCoilActiveElements": "HEA;HEP",
  "ReceiveCoilName": "Head_32",
  "ReconMatrixPE": 106,
  "RepetitionTime": 1.5,
  "SAR": 0.069419,
  "ScanOptions": "FS\\EXT",
  "ScanningSequence": "EP",
  "SequenceName": "epfid2d1_106",
  "SequenceVariant": "SK\\SS",
  "SeriesDescription": "task-backtothefuture_run-2",
  "SeriesNumber": 8,
  "ShimSetting": [-1567, 611, 7460, 485, 25, 73, 45, 22],
  "SliceThickness": 2,
  "SliceTiming": [0, 1.07, 0.6575, 0.2475, 1.315, 0.905, 0.4925, 0.0825, 1.1525, 0.74, 0.33, 1.3975, 0.9875, 0.575, 0.165, 1.2325, 0.8225, 0.4125, 0, 1.07, 0.6575, 0.2475, 1.315, 0.905, 0.4925, 0.0825, 1.1525, 0.74, 0.33, 1.3975, 0.9875, 0.575, 0.165, 1.2325, 0.8225, 0.4125, 0, 1.07, 0.6575, 0.2475, 1.315, 0.905, 0.4925, 0.0825, 1.1525, 0.74, 0.33, 1.3975, 0.9875, 0.575, 0.165, 1.2325, 0.8225, 0.4125, 0, 1.07, 0.6575, 0.2475, 1.315, 0.905, 0.4925, 0.0825, 1.1525, 0.74, 0.33, 1.3975, 0.9875, 0.575, 0.165, 1.2325, 0.8225, 0.4125],
  "SoftwareVersions": "syngo MR E11",
  "SpacingBetweenSlices": 2,
  "StationName": "AWP166108",
  "TaskName": "backtothefuture",
  "TotalReadoutTime": 0.0588013,
  "TxRefAmp": 219.272,
  "WipMemBlock": "281a5373-7539-44fb-bbcb-53bea483c3ee||Sequence: R016 ve11c/master r/e634e98; Dec 19 2017 11:00:25 by eja",
  "dcmmeta_affine": [
    [-2.0, 0.0, 0.0, 106.0],
    [0.0, 2.0, 0.0, -99.18072509765625],
    [0.0, 0.0, 2.0, -45.698795318603516],
    [0.0, 0.0, 0.0, 1.0]
],
  "dcmmeta_reorient_transform": [
    [0.0, -1.0, 0.0, 105.0],
    [1.0, 0.0, 0.0, 0.0],
    [0.0, 0.0, 1.0, 0.0],
    [0.0, 0.0, 0.0, 1.0]
],
  "dcmmeta_shape": [106, 106, 72, 1430],
  "dcmmeta_slice_dim": 2,
  "dcmmeta_version": 0.6,
  "global": {
    "const": {
      "AcquisitionMatrix": [106, 0, 0, 106],
      "AngioFlag": "N",
      "BitsAllocated": 16,
      "BitsStored": 16,
      "BodyPartExamined": "BRAIN",
      "CardiacNumberOfImages": 1,
      "Columns": 954,
      "EchoNumbers": 1,
      "EchoTime": 35.2,
      "EchoTrainLength": 106,
      "FlipAngle": 60.0,
      "HighBit": 15,
      "ImageOrientationPatient": [1.0, 0.0, 0.0, 0.0, 1.0, 0.0],
      "ImagePositionPatient": [-954.0, -958.81927728653, -45.698795318604],
      "ImageType": [
        "ORIGINAL",
        "PRIMARY",
        "M",
        "MB",
        "ND",
        "MOSAIC"
],
      "ImagedNucleus": "1H",
      "ImagingFrequency": 123.243689,
      "InPlanePhaseEncodingDirection": "COL",
      "MRAcquisitionType": "2D",
      "MagneticFieldStrength": 3.0,
      "Manufacturer": "SIEMENS",
      "ManufacturerModelName": "Prisma",
      "Modality": "MR",
      "NominalInterval": 0,
      "NumberOfAverages": 1.0,
      "NumberOfPhaseEncodingSteps": 106,
      "PercentPhaseFieldOfView": 100.0,
      "PercentSampling": 100.0,
      "PerformedProcedureStepStartTime": "130436.757000",
      "PhotometricInterpretation": "MONOCHROME2",
      "PixelBandwidth": 2620.0,
      "PixelRepresentation": 0,
      "PixelSpacing": [2.0, 2.0],
      "ProtocolName": "task-backtothefuture_run-2",
      "RepetitionTime": 1500.0,
      "Rows": 954,
      "SAR": 0.06941900934056,
      "SamplesPerPixel": 1,
      "ScanOptions": [
        "FS",
        "EXT"
],
      "ScanningSequence": "EP",
      "SequenceName": "epfid2d1_106",
      "SequenceVariant": [
        "SK",
        "SS"
],
      "SeriesDescription": "task-backtothefuture_run-2",
      "SeriesNumber": 8,
      "SeriesTime": "143301.371000",
      "SliceLocation": -45.698795318604,
      "SliceThickness": 2.0,
      "SmallestImagePixelValue": 0,
      "SoftwareVersions": "syngo MR E11",
      "SpacingBetweenSlices": 2.0000000537281,
      "SpecificCharacterSet": "ISO_IR 100",
      "StudyID": "1",
      "StudyTime": "130436.689000",
      "TransmitCoilName": "Body",
      "VariableFlipAngleFlag": "N",
      "WindowCenterWidthExplanation": "Algo1",
      "dBdt": 0.0},
    "slices": {}
  },
  "time": {
    "samples": {
      "AcquisitionNumber": [1, 2, 3, 4, 5, 6, 7, 8, 9, 10, 11, 12, 13, 14, 15, 16, 17, 18, 19, 20, 21, 22, 23, 24, 25, 26, 27, 28, 29, 30, 31, 32, 33, 34, 35, 36, 37, 38, 39, 40, 41, 42, 43, 44, 45, 46, 47, 48, 49, 50, 51, 52, 53, 54, 55, 56, 57, 58, 59, 60, 61, 62, 63, 64, 65, 66, 67, 68, 69, 70, 71, 72, 73, 74, 75, 76, 77, 78, 79, 80, 81, 82, 83, 84, 85, 86, 87, 88, 89, 90, 91, 92, 93, 94, 95, 96, 97, 98, 99, 100, 101, 102, 103, 104, 105, 106, 107, 108, 109, 110, 111, 112, 113, 114, 115, 116, 117, 118, 119, 120, 121, 122, 123, 124, 125, 126, 127, 128, 129, 130, 131, 132, 133, 134, 135, 136, 137, 138, 139, 140, 141, 142, 143, 144, 145, 146, 147, 148, 149, 150, 151, 152, 153, 154, 155, 156, 157, 158, 159, 160, 161, 162, 163, 164, 165, 166, 167, 168, 169, 170, 171, 172, 173, 174, 175, 176, 177, 178, 179, 180, 181, 182, 183, 184, 185, 186, 187, 188, 189, 190, 191, 192, 193, 194, 195, 196, 197, 198, 199, 200, 201, 202, 203, 204, 205, 206, 207, 208, 209, 210, 211, 212, 213, 214, 215, 216, 217, 218, 219, 220, 221, 222, 223, 224, 225, 226, 227, 228, 229, 230, 231, 232, 233, 234, 235, 236, 237, 238, 239, 240, 241, 242, 243, 244, 245, 246, 247, 248, 249, 250, 251, 252, 253, 254, 255, 256, 257, 258, 259, 260, 261, 262, 263, 264, 265, 266, 267, 268, 269, 270, 271, 272, 273, 274, 275, 276, 277, 278, 279, 280, 281, 282, 283, 284, 285, 286, 287, 288, 289, 290, 291, 292, 293, 294, 295, 296, 297, 298, 299, 300, 301, 302, 303, 304, 305, 306, 307, 308, 309, 310, 311, 312, 313, 314, 315, 316, 317, 318, 319, 320, 321, 322, 323, 324, 325, 326, 327, 328, 329, 330, 331, 332, 333, 334, 335, 336, 337, 338, 339, 340, 341, 342, 343, 344, 345, 346, 347, 348, 349, 350, 351, 352, 353, 354, 355, 356, 357, 358, 359, 360, 361, 362, 363, 364, 365, 366, 367, 368, 369, 370, 371, 372, 373, 374, 375, 376, 377, 378, 379, 380, 381, 382, 383, 384, 385, 386, 387, 388, 389, 390, 391, 392, 393, 394, 395, 396, 397, 398, 399, 400, 401, 402, 403, 404, 405, 406, 407, 408, 409, 410, 411, 412, 413, 414, 415, 416, 417, 418, 419, 420, 421, 422, 423, 424, 425, 426, 427, 428, 429, 430, 431, 432, 433, 434, 435, 436, 437, 438, 439, 440, 441, 442, 443, 444, 445, 446, 447, 448, 449, 450, 451, 452, 453, 454, 455, 456, 457, 458, 459, 460, 461, 462, 463, 464, 465, 466, 467, 468, 469, 470, 471, 472, 473, 474, 475, 476, 477, 478, 479, 480, 481, 482, 483, 484, 485, 486, 487, 488, 489, 490, 491, 492, 493, 494, 495, 496, 497, 498, 499, 500, 501, 502, 503, 504, 505, 506, 507, 508, 509, 510, 511, 512, 513, 514, 515, 516, 517, 518, 519, 520, 521, 522, 523, 524, 525, 526, 527, 528, 529, 530, 531, 532, 533, 534, 535, 536, 537, 538, 539, 540, 541, 542, 543, 544, 545, 546, 547, 548, 549, 550, 551, 552, 553, 554, 555, 556, 557, 558, 559, 560, 561, 562, 563, 564, 565, 566, 567, 568, 569, 570, 571, 572, 573, 574, 575, 576, 577, 578, 579, 580, 581, 582, 583, 584, 585, 586, 587, 588, 589, 590, 591, 592, 593, 594, 595, 596, 597, 598, 599, 600, 601, 602, 603, 604, 605, 606, 607, 608, 609, 610, 611, 612, 613, 614, 615, 616, 617, 618, 619, 620, 621, 622, 623, 624, 625, 626, 627, 628, 629, 630, 631, 632, 633, 634, 635, 636, 637, 638, 639, 640, 641, 642, 643, 644, 645, 646, 647, 648, 649, 650, 651, 652, 653, 654, 655, 656, 657, 658, 659, 660, 661, 662, 663, 664, 665, 666, 667, 668, 669, 670, 671, 672, 673, 674, 675, 676, 677, 678, 679, 680, 681, 682, 683, 684, 685, 686, 687, 688, 689, 690, 691, 692, 693, 694, 695, 696, 697, 698, 699, 700, 701, 702, 703, 704, 705, 706, 707, 708, 709, 710, 711, 712, 713, 714, 715, 716, 717, 718, 719, 720, 721, 722, 723, 724, 725, 726, 727, 728, 729, 730, 731, 732, 733, 734, 735, 736, 737, 738, 739, 740, 741, 742, 743, 744, 745, 746, 747, 748, 749, 750, 751, 752, 753, 754, 755, 756, 757, 758, 759, 760, 761, 762, 763, 764, 765, 766, 767, 768, 769, 770, 771, 772, 773, 774, 775, 776, 777, 778, 779, 780, 781, 782, 783, 784, 785, 786, 787, 788, 789, 790, 791, 792, 793, 794, 795, 796, 797, 798, 799, 800, 801, 802, 803, 804, 805, 806, 807, 808, 809, 810, 811, 812, 813, 814, 815, 816, 817, 818, 819, 820, 821, 822, 823, 824, 825, 826, 827, 828, 829, 830, 831, 832, 833, 834, 835, 836, 837, 838, 839, 840, 841, 842, 843, 844, 845, 846, 847, 848, 849, 850, 851, 852, 853, 854, 855, 856, 857, 858, 859, 860, 861, 862, 863, 864, 865, 866, 867, 868, 869, 870, 871, 872, 873, 874, 875, 876, 877, 878, 879, 880, 881, 882, 883, 884, 885, 886, 887, 888, 889, 890, 891, 892, 893, 894, 895, 896, 897, 898, 899, 900, 901, 902, 903, 904, 905, 906, 907, 908, 909, 910, 911, 912, 913, 914, 915, 916, 917, 918, 919, 920, 921, 922, 923, 924, 925, 926, 927, 928, 929, 930, 931, 932, 933, 934, 935, 936, 937, 938, 939, 940, 941, 942, 943, 944, 945, 946, 947, 948, 949, 950, 951, 952, 953, 954, 955, 956, 957, 958, 959, 960, 961, 962, 963, 964, 965, 966, 967, 968, 969, 970, 971, 972, 973, 974, 975, 976, 977, 978, 979, 980, 981, 982, 983, 984, 985, 986, 987, 988, 989, 990, 991, 992, 993, 994, 995, 996, 997, 998, 999, 1000, 1001, 1002, 1003, 1004, 1005, 1006, 1007, 1008, 1009, 1010, 1011, 1012, 1013, 1014, 1015, 1016, 1017, 1018, 1019, 1020, 1021, 1022, 1023, 1024, 1025, 1026, 1027, 1028, 1029, 1030, 1031, 1032, 1033, 1034, 1035, 1036, 1037, 1038, 1039, 1040, 1041, 1042, 1043, 1044, 1045, 1046, 1047, 1048, 1049, 1050, 1051, 1052, 1053, 1054, 1055, 1056, 1057, 1058, 1059, 1060, 1061, 1062, 1063, 1064, 1065, 1066, 1067, 1068, 1069, 1070, 1071, 1072, 1073, 1074, 1075, 1076, 1077, 1078, 1079, 1080, 1081, 1082, 1083, 1084, 1085, 1086, 1087, 1088, 1089, 1090, 1091, 1092, 1093, 1094, 1095, 1096, 1097, 1098, 1099, 1100, 1101, 1102, 1103, 1104, 1105, 1106, 1107, 1108, 1109, 1110, 1111, 1112, 1113, 1114, 1115, 1116, 1117, 1118, 1119, 1120, 1121, 1122, 1123, 1124, 1125, 1126, 1127, 1128, 1129, 1130, 1131, 1132, 1133, 1134, 1135, 1136, 1137, 1138, 1139, 1140, 1141, 1142, 1143, 1144, 1145, 1146, 1147, 1148, 1149, 1150, 1151, 1152, 1153, 1154, 1155, 1156, 1157, 1158, 1159, 1160, 1161, 1162, 1163, 1164, 1165, 1166, 1167, 1168, 1169, 1170, 1171, 1172, 1173, 1174, 1175, 1176, 1177, 1178, 1179, 1180, 1181, 1182, 1183, 1184, 1185, 1186, 1187, 1188, 1189, 1190, 1191, 1192, 1193, 1194, 1195, 1196, 1197, 1198, 1199, 1200, 1201, 1202, 1203, 1204, 1205, 1206, 1207, 1208, 1209, 1210, 1211, 1212, 1213, 1214, 1215, 1216, 1217, 1218, 1219, 1220, 1221, 1222, 1223, 1224, 1225, 1226, 1227, 1228, 1229, 1230, 1231, 1232, 1233, 1234, 1235, 1236, 1237, 1238, 1239, 1240, 1241, 1242, 1243, 1244, 1245, 1246, 1247, 1248, 1249, 1250, 1251, 1252, 1253, 1254, 1255, 1256, 1257, 1258, 1259, 1260, 1261, 1262, 1263, 1264, 1265, 1266, 1267, 1268, 1269, 1270, 1271, 1272, 1273, 1274, 1275, 1276, 1277, 1278, 1279, 1280, 1281, 1282, 1283, 1284, 1285, 1286, 1287, 1288, 1289, 1290, 1291, 1292, 1293, 1294, 1295, 1296, 1297, 1298, 1299, 1300, 1301, 1302, 1303, 1304, 1305, 1306, 1307, 1308, 1309, 1310, 1311, 1312, 1313, 1314, 1315, 1316, 1317, 1318, 1319, 1320, 1321, 1322, 1323, 1324, 1325, 1326, 1327, 1328, 1329, 1330, 1331, 1332, 1333, 1334, 1335, 1336, 1337, 1338, 1339, 1340, 1341, 1342, 1343, 1344, 1345, 1346, 1347, 1348, 1349, 1350, 1351, 1352, 1353, 1354, 1355, 1356, 1357, 1358, 1359, 1360, 1361, 1362, 1363, 1364, 1365, 1366, 1367, 1368, 1369, 1370, 1371, 1372, 1373, 1374, 1375, 1376, 1377, 1378, 1379, 1380, 1381, 1382, 1383, 1384, 1385, 1386, 1387, 1388, 1389, 1390, 1391, 1392, 1393, 1394, 1395, 1396, 1397, 1398, 1399, 1400, 1401, 1402, 1403, 1404, 1405, 1406, 1407, 1408, 1409, 1410, 1411, 1412, 1413, 1414, 1415, 1416, 1417, 1418, 1419, 1420, 1421, 1422, 1423, 1424, 1425, 1426, 1427, 1428, 1429, 1430],
      "AcquisitionTime": ["143217.067500", "143218.567500", "143220.067500", "143221.567500", "143223.067500", "143224.567500", "143226.067500", "143227.567500", "143229.067500", "143230.567500", "143232.067500", "143233.567500", "143235.067500", "143236.567500", "143238.067500", "143239.567500", "143241.067500", "143242.567500", "143244.067500", "143245.567500", "143247.067500", "143248.567500", "143250.067500", "143251.567500", "143253.067500", "143254.567500", "143256.067500", "143257.567500", "143259.067500", "143300.567500", "143302.067500", "143303.567500", "143305.067500", "143306.567500", "143308.067500", "143309.567500", "143311.067500", "143312.567500", "143314.067500", "143315.567500", "143317.067500", "143318.567500", "143320.067500", "143321.567500", "143323.067500", "143324.567500", "143326.067500", "143327.567500", "143329.067500", "143330.567500", "143332.067500", "143333.567500", "143335.067500", "143336.567500", "143338.067500", "143339.567500", "143341.067500", "143342.567500", "143344.067500", "143345.567500", "143347.067500", "143348.567500", "143350.067500", "143351.567500", "143353.067500", "143354.567500", "143356.067500", "143357.567500", "143359.067500", "143400.567500", "143402.067500", "143403.567500", "143405.067500", "143406.567500", "143408.067500", "143409.567500", "143411.067500", "143412.567500", "143414.067500", "143415.567500", "143417.067500", "143418.567500", "143420.067500", "143421.567500", "143423.067500", "143424.567500", "143426.067500", "143427.567500", "143429.067500", "143430.567500", "143432.067500", "143433.567500", "143435.067500", "143436.567500", "143438.067500", "143439.567500", "143441.067500", "143442.567500", "143444.067500", "143445.567500", "143447.067500", "143448.567500", "143450.067500", "143451.567500", "143453.067500", "143454.567500", "143456.067500", "143457.567500", "143459.067500", "143500.567500", "143502.067500", "143503.567500", "143505.067500", "143506.567500", "143508.067500", "143509.567500", "143511.067500", "143512.567500", "143514.067500", "143515.567500", "143517.067500", "143518.567500", "143520.067500", "143521.567500", "143523.067500", "143524.567500", "143526.067500", "143527.567500", "143529.067500", "143530.567500", "143532.067500", "143533.567500", "143535.067500", "143536.567500", "143538.067500", "143539.567500", "143541.067500", "143542.567500", "143544.067500", "143545.567500", "143547.067500", "143548.567500", "143550.067500", "143551.567500", "143553.067500", "143554.567500", "143556.067500", "143557.567500", "143559.067500", "143600.567500", "143602.067500", "143603.567500", "143605.067500", "143606.567500", "143608.067500", "143609.567500", "143611.067500", "143612.567500", "143614.067500", "143615.567500", "143617.067500", "143618.567500", "143620.067500", "143621.567500", "143623.067500", "143624.567500", "143626.067500", "143627.567500", "143629.067500", "143630.567500", "143632.067500", "143633.567500", "143635.067500", "143636.567500", "143638.067500", "143639.567500", "143641.067500", "143642.567500", "143644.067500", "143645.567500", "143647.067500", "143648.567500", "143650.067500", "143651.567500", "143653.067500", "143654.567500", "143656.067500", "143657.567500", "143659.067500", "143700.567500", "143702.067500", "143703.567500", "143705.067500", "143706.567500", "143708.067500", "143709.567500", "143711.067500", "143712.567500", "143714.067500", "143715.567500", "143717.067500", "143718.567500", "143720.067500", "143721.567500", "143723.067500", "143724.567500", "143726.067500", "143727.567500", "143729.067500", "143730.567500", "143732.067500", "143733.567500", "143735.067500", "143736.567500", "143738.067500", "143739.567500", "143741.067500", "143742.567500", "143744.067500", "143745.567500", "143747.067500", "143748.567500", "143750.067500", "143751.567500", "143753.067500", "143754.567500", "143756.067500", "143757.567500", "143759.067500", "143800.567500", "143802.067500", "143803.567500", "143805.067500", "143806.567500", "143808.067500", "143809.567500", "143811.067500", "143812.567500", "143814.067500", "143815.567500", "143817.067500", "143818.567500", "143820.067500", "143821.567500", "143823.067500", "143824.567500", "143826.067500", "143827.567500", "143829.067500", "143830.567500", "143832.067500", "143833.567500", "143835.067500", "143836.567500", "143838.067500", "143839.567500", "143841.067500", "143842.567500", "143844.067500", "143845.567500", "143847.067500", "143848.567500", "143850.067500", "143851.567500", "143853.067500", "143854.567500", "143856.067500", "143857.567500", "143859.067500", "143900.567500", "143902.067500", "143903.567500", "143905.067500", "143906.567500", "143908.067500", "143909.567500", "143911.067500", "143912.567500", "143914.067500", "143915.567500", "143917.067500", "143918.567500", "143920.067500", "143921.567500", "143923.067500", "143924.567500", "143926.067500", "143927.567500", "143929.067500", "143930.567500", "143932.067500", "143933.567500", "143935.067500", "143936.567500", "143938.067500", "143939.567500", "143941.067500", "143942.567500", "143944.067500", "143945.567500", "143947.067500", "143948.567500", "143950.067500", "143951.567500", "143953.067500", "143954.567500", "143956.067500", "143957.567500", "143959.067500", "144000.567500", "144002.067500", "144003.567500", "144005.067500", "144006.567500", "144008.067500", "144009.567500", "144011.067500", "144012.567500", "144014.067500", "144015.567500", "144017.067500", "144018.567500", "144020.067500", "144021.567500", "144023.067500", "144024.567500", "144026.067500", "144027.567500", "144029.067500", "144030.567500", "144032.067500", "144033.567500", "144035.067500", "144036.567500", "144038.067500", "144039.567500", "144041.067500", "144042.567500", "144044.067500", "144045.567500", "144047.067500", "144048.567500", "144050.067500", "144051.567500", "144053.067500", "144054.567500", "144056.067500", "144057.567500", "144059.067500", "144100.567500", "144102.067500", "144103.567500", "144105.067500", "144106.567500", "144108.067500", "144109.567500", "144111.067500", "144112.567500", "144114.067500", "144115.567500", "144117.067500", "144118.567500", "144120.067500", "144121.567500", "144123.067500", "144124.567500", "144126.067500", "144127.567500", "144129.067500", "144130.567500", "144132.067500", "144133.567500", "144135.067500", "144136.567500", "144138.067500", "144139.567500", "144141.067500", "144142.567500", "144144.067500", "144145.567500", "144147.067500", "144148.567500", "144150.067500", "144151.567500", "144153.067500", "144154.567500", "144156.067500", "144157.567500", "144159.067500", "144200.567500", "144202.067500", "144203.567500", "144205.067500", "144206.567500", "144208.067500", "144209.567500", "144211.067500", "144212.567500", "144214.067500", "144215.567500", "144217.067500", "144218.567500", "144220.067500", "144221.567500", "144223.067500", "144224.567500", "144226.067500", "144227.567500", "144229.067500", "144230.567500", "144232.067500", "144233.567500", "144235.067500", "144236.567500", "144238.067500", "144239.567500", "144241.067500", "144242.567500", "144244.067500", "144245.567500", "144247.067500", "144248.567500", "144250.067500", "144251.567500", "144253.067500", "144254.567500", "144256.067500", "144257.567500", "144259.067500", "144300.567500", "144302.067500", "144303.567500", "144305.067500", "144306.567500", "144308.067500", "144309.567500", "144311.067500", "144312.567500", "144314.067500", "144315.567500", "144317.067500", "144318.567500", "144320.067500", "144321.567500", "144323.067500", "144324.567500", "144326.067500", "144327.567500", "144329.067500", "144330.567500", "144332.067500", "144333.567500", "144335.067500", "144336.567500", "144338.067500", "144339.567500", "144341.067500", "144342.567500", "144344.067500", "144345.567500", "144347.067500", "144348.567500", "144350.067500", "144351.567500", "144353.067500", "144354.567500", "144356.067500", "144357.567500", "144359.067500", "144400.567500", "144402.067500", "144403.567500", "144405.067500", "144406.567500", "144408.067500", "144409.567500", "144411.067500", "144412.567500", "144414.067500", "144415.567500", "144417.067500", "144418.567500", "144420.067500", "144421.567500", "144423.067500", "144424.567500", "144426.067500", "144427.567500", "144429.067500", "144430.567500", "144432.067500", "144433.567500", "144435.067500", "144436.567500", "144438.067500", "144439.567500", "144441.067500", "144442.567500", "144444.067500", "144445.567500", "144447.067500", "144448.567500", "144450.067500", "144451.567500", "144453.067500", "144454.567500", "144456.067500", "144457.567500", "144459.067500", "144500.567500", "144502.067500", "144503.567500", "144505.067500", "144506.567500", "144508.067500", "144509.567500", "144511.067500", "144512.567500", "144514.067500", "144515.567500", "144517.067500", "144518.567500", "144520.067500", "144521.567500", "144523.067500", "144524.567500", "144526.067500", "144527.567500", "144529.067500", "144530.567500", "144532.067500", "144533.567500", "144535.067500", "144536.567500", "144538.067500", "144539.567500", "144541.067500", "144542.567500", "144544.067500", "144545.567500", "144547.067500", "144548.567500", "144550.067500", "144551.567500", "144553.067500", "144554.567500", "144556.067500", "144557.567500", "144559.067500", "144600.567500", "144602.067500", "144603.567500", "144605.067500", "144606.567500", "144608.067500", "144609.567500", "144611.067500", "144612.567500", "144614.067500", "144615.567500", "144617.067500", "144618.567500", "144620.067500", "144621.567500", "144623.067500", "144624.567500", "144626.067500", "144627.567500", "144629.067500", "144630.567500", "144632.067500", "144633.567500", "144635.067500", "144636.567500", "144638.067500", "144639.567500", "144641.067500", "144642.567500", "144644.067500", "144645.567500", "144647.067500", "144648.567500", "144650.067500", "144651.567500", "144653.067500", "144654.567500", "144656.067500", "144657.567500", "144659.067500", "144700.567500", "144702.067500", "144703.567500", "144705.067500", "144706.567500", "144708.067500", "144709.567500", "144711.067500", "144712.567500", "144714.067500", "144715.567500", "144717.067500", "144718.567500", "144720.067500", "144721.567500", "144723.067500", "144724.567500", "144726.067500", "144727.567500", "144729.067500", "144730.567500", "144732.067500", "144733.567500", "144735.067500", "144736.567500", "144738.067500", "144739.567500", "144741.067500", "144742.567500", "144744.067500", "144745.567500", "144747.067500", "144748.567500", "144750.067500", "144751.567500", "144753.067500", "144754.567500", "144756.067500", "144757.567500", "144759.067500", "144800.567500", "144802.067500", "144803.567500", "144805.067500", "144806.567500", "144808.067500", "144809.567500", "144811.067500", "144812.567500", "144814.067500", "144815.567500", "144817.067500", "144818.567500", "144820.067500", "144821.567500", "144823.067500", "144824.567500", "144826.067500", "144827.567500", "144829.067500", "144830.567500", "144832.067500", "144833.567500", "144835.067500", "144836.567500", "144838.067500", "144839.567500", "144841.067500", "144842.567500", "144844.067500", "144845.567500", "144847.067500", "144848.567500", "144850.067500", "144851.567500", "144853.067500", "144854.567500", "144856.067500", "144857.567500", "144859.067500", "144900.567500", "144902.067500", "144903.567500", "144905.067500", "144906.567500", "144908.067500", "144909.567500", "144911.067500", "144912.567500", "144914.067500", "144915.567500", "144917.067500", "144918.567500", "144920.067500", "144921.567500", "144923.067500", "144924.567500", "144926.067500", "144927.567500", "144929.067500", "144930.567500", "144932.067500", "144933.567500", "144935.067500", "144936.567500", "144938.067500", "144939.567500", "144941.067500", "144942.567500", "144944.067500", "144945.567500", "144947.067500", "144948.567500", "144950.067500", "144951.567500", "144953.067500", "144954.567500", "144956.067500", "144957.567500", "144959.067500", "145000.567500", "145002.067500", "145003.567500", "145005.067500", "145006.567500", "145008.067500", "145009.567500", "145011.067500", "145012.567500", "145014.067500", "145015.567500", "145017.067500", "145018.567500", "145020.067500", "145021.567500", "145023.067500", "145024.567500", "145026.067500", "145027.567500", "145029.067500", "145030.567500", "145032.067500", "145033.567500", "145035.067500", "145036.567500", "145038.067500", "145039.567500", "145041.067500", "145042.567500", "145044.067500", "145045.567500", "145047.067500", "145048.567500", "145050.067500", "145051.567500", "145053.067500", "145054.567500", "145056.067500", "145057.567500", "145059.067500", "145100.567500", "145102.067500", "145103.567500", "145105.067500", "145106.567500", "145108.067500", "145109.567500", "145111.067500", "145112.567500", "145114.067500", "145115.567500", "145117.067500", "145118.567500", "145120.067500", "145121.567500", "145123.067500", "145124.567500", "145126.067500", "145127.567500", "145129.067500", "145130.567500", "145132.067500", "145133.567500", "145135.067500", "145136.567500", "145138.067500", "145139.567500", "145141.067500", "145142.567500", "145144.067500", "145145.567500", "145147.067500", "145148.567500", "145150.067500", "145151.567500", "145153.067500", "145154.567500", "145156.067500", "145157.567500", "145159.067500", "145200.567500", "145202.067500", "145203.567500", "145205.067500", "145206.567500", "145208.067500", "145209.567500", "145211.067500", "145212.567500", "145214.067500", "145215.567500", "145217.067500", "145218.567500", "145220.067500", "145221.567500", "145223.067500", "145224.567500", "145226.067500", "145227.567500", "145229.067500", "145230.567500", "145232.067500", "145233.567500", "145235.067500", "145236.567500", "145238.067500", "145239.567500", "145241.067500", "145242.567500", "145244.067500", "145245.567500", "145247.067500", "145248.567500", "145250.067500", "145251.567500", "145253.067500", "145254.567500", "145256.067500", "145257.567500", "145259.067500", "145300.567500", "145302.067500", "145303.567500", "145305.067500", "145306.567500", "145308.067500", "145309.567500", "145311.067500", "145312.567500", "145314.067500", "145315.567500", "145317.067500", "145318.567500", "145320.067500", "145321.567500", "145323.067500", "145324.567500", "145326.067500", "145327.567500", "145329.067500", "145330.567500", "145332.067500", "145333.567500", "145335.067500", "145336.567500", "145338.067500", "145339.567500", "145341.067500", "145342.567500", "145344.067500", "145345.567500", "145347.067500", "145348.567500", "145350.067500", "145351.567500", "145353.067500", "145354.567500", "145356.067500", "145357.567500", "145359.067500", "145400.567500", "145402.067500", "145403.567500", "145405.067500", "145406.567500", "145408.067500", "145409.567500", "145411.067500", "145412.567500", "145414.067500", "145415.567500", "145417.067500", "145418.567500", "145420.067500", "145421.567500", "145423.067500", "145424.567500", "145426.067500", "145427.567500", "145429.067500", "145430.567500", "145432.067500", "145433.567500", "145435.067500", "145436.567500", "145438.067500", "145439.567500", "145441.067500", "145442.567500", "145444.067500", "145445.567500", "145447.067500", "145448.567500", "145450.067500", "145451.567500", "145453.067500", "145454.567500", "145456.067500", "145457.567500", "145459.067500", "145500.567500", "145502.067500", "145503.567500", "145505.067500", "145506.567500", "145508.067500", "145509.567500", "145511.067500", "145512.567500", "145514.067500", "145515.567500", "145517.067500", "145518.567500", "145520.067500", "145521.567500", "145523.067500", "145524.567500", "145526.067500", "145527.567500", "145529.067500", "145530.567500", "145532.067500", "145533.567500", "145535.067500", "145536.567500", "145538.067500", "145539.567500", "145541.067500", "145542.567500", "145544.067500", "145545.567500", "145547.067500", "145548.567500", "145550.067500", "145551.567500", "145553.067500", "145554.567500", "145556.067500", "145557.567500", "145559.067500", "145600.567500", "145602.067500", "145603.567500", "145605.067500", "145606.567500", "145608.067500", "145609.567500", "145611.067500", "145612.567500", "145614.067500", "145615.567500", "145617.067500", "145618.567500", "145620.067500", "145621.567500", "145623.067500", "145624.567500", "145626.067500", "145627.567500", "145629.067500", "145630.567500", "145632.067500", "145633.567500", "145635.067500", "145636.567500", "145638.067500", "145639.567500", "145641.067500", "145642.567500", "145644.067500", "145645.567500", "145647.067500", "145648.567500", "145650.067500", "145651.567500", "145653.067500", "145654.567500", "145656.067500", "145657.567500", "145659.067500", "145700.567500", "145702.067500", "145703.567500", "145705.