{
  "AcquisitionMatrixPE": 106,
  "AcquisitionNumber": 1,
  "AcquisitionTime": "13:41:48.877500",
  "BandwidthPerPixelPhaseEncode": 16.846,
  "BaseResolution": 106,
  "BodyPartExamined": "BRAIN",
  "CoilCombinationMethod": "Sum of Squares",
  "ConsistencyInfo": "N4_VE11C_LATEST_20160120",
  "ConversionSoftware": "dcm2niix",
  "ConversionSoftwareVersion": "v1.0.20220720",
  "DerivedVendorReportedEchoSpacing": 0.000560012,
  "DeviceSerialNumber": "166108",
  "DwellTime": 1.8e-06,
  "EchoTime": 0.0352,
  "EchoTrainLength": 106,
  "EffectiveEchoSpacing": 0.000560012,
  "FlipAngle": 60,
  "HeudiconvVersion": "1.3.0",
  "ImageComments": "Unaliased MB4/PE3/LB",
  "ImageOrientationPatientDICOM": [1, 0, 0, 0, 1, 0],
  "ImageOrientationText": "Tra",
  "ImageType": [
    "ORIGINAL",
    "PRIMARY",
    "M",
    "MB",
    "ND",
    "MOSAIC"
],
  "ImagingFrequency": 123.244,
  "InPlanePhaseEncodingDirectionDICOM": "COL",
  "InstitutionAddress": "Bedford Way 26,London,London,GB,WC1H 0AP",
  "InstitutionName": "University College",
  "InstitutionalDepartmentName": "Department",
  "MRAcquisitionType": "2D",
  "MagneticFieldStrength": 3,
  "Manufacturer": "Siemens",
  "ManufacturersModelName": "Prisma",
  "MatrixCoilMode": "SENSE",
  "Modality": "MR",
  "MultibandAccelerationFactor": 4,
  "NonlinearGradientCorrection": false,
  "PartialFourier": 1,
  "PatientPosition": "HFS",
  "PercentPhaseFOV": 100,
  "PercentSampling": 100,
  "PhaseEncodingDirection": "j-",
  "PhaseEncodingSteps": 106,
  "PhaseResolution": 1,
  "PixelBandwidth": 2620,
  "ProcedureStepDescription": "Egor^MovieProject2",
  "ProtocolName": "task-backtothefuture_run-1",
  "PulseSequenceDetails": "%CustomerSeq%\\cmrr_mbep2d_bold",
  "ReceiveCoilActiveElements": "HEA;HEP",
  "ReceiveCoilName": "Head_32",
  "ReconMatrixPE": 106,
  "RepetitionTime": 1.5,
  "SAR": 0.0664215,
  "ScanOptions": "FS\\EXT",
  "ScanningSequence": "EP",
  "SequenceName": "epfid2d1_106",
  "SequenceVariant": "SK\\SS",
  "SeriesDescription": "task-backtothefuture_run-1",
  "SeriesNumber": 3,
  "ShimSetting": [-1567, 613, 7426, 480, 7, 120, 54, -25],
  "SliceThickness": 2,
  "SliceTiming": [0, 1.07, 0.6575, 0.2475, 1.315, 0.905, 0.4925, 0.0825, 1.1525, 0.74, 0.33, 1.3975, 0.9875, 0.575, 0.165, 1.2325, 0.8225, 0.4125, 0, 1.07, 0.6575, 0.2475, 1.315, 0.905, 0.4925, 0.0825, 1.1525, 0.74, 0.33, 1.3975, 0.9875, 0.575, 0.165, 1.2325, 0.8225, 0.4125, 0, 1.07, 0.6575, 0.2475, 1.315, 0.905, 0.4925, 0.0825, 1.1525, 0.74, 0.33, 1.3975, 0.9875, 0.575, 0.165, 1.2325, 0.8225, 0.4125, 0, 1.07, 0.6575, 0.2475, 1.315, 0.905, 0.4925, 0.0825, 1.1525, 0.74, 0.33, 1.3975, 0.9875, 0.575, 0.165, 1.2325, 0.8225, 0.4125],
  "SoftwareVersions": "syngo MR E11",
  "SpacingBetweenSlices": 2,
  "StationName": "AWP166108",
  "TaskName": "backtothefuture",
  "TotalReadoutTime": 0.0588013,
  "TxRefAmp": 217.326,
  "WipMemBlock": "f9240fbc-dc47-4c7c-a61b-c9804ea1b630||Sequence: R016 ve11c/master r/e634e98; Dec 19 2017 11:00:25 by eja",
  "dcmmeta_affine": [
    [-2.0, 0.0, 0.0, 106.0],
    [0.0, 2.0, 0.0, -97.37349700927734],
    [0.0, 0.0, 2.0, -60.1566276550293],
    [0.0, 0.0, 0.0, 1.0]
],
  "dcmmeta_reorient_transform": [
    [0.0, -1.0, 0.0, 105.0],
    [1.0, 0.0, 0.0, 0.0],
    [0.0, 0.0, 1.0, 0.0],
    [0.0, 0.0, 0.0, 1.0]
],
  "dcmmeta_shape": [106, 106, 72, 1360],
  "dcmmeta_slice_dim": 2,
  "dcmmeta_version": 0.6,
  "global": {
    "const": {
      "AcquisitionMatrix": [106, 0, 0, 106],
      "AngioFlag": "N",
      "BitsAllocated": 16,
      "BitsStored": 16,
      "BodyPartExamined": "BRAIN",
      "CardiacNumberOfImages": 1,
      "Columns": 954,
      "EchoNumbers": 1,
      "EchoTime": 35.2,
      "EchoTrainLength": 106,
      "FlipAngle": 60.0,
      "HighBit": 15,
      "ImageOrientationPatient": [1.0, 0.0, 0.0, 0.0, 1.0, 0.0],
      "ImagePositionPatient": [-954.0, -960.62650585175, -60.156627655029],
      "ImageType": [
        "ORIGINAL",
        "PRIMARY",
        "M",
        "MB",
        "ND",
        "MOSAIC"
],
      "ImagedNucleus": "1H",
      "ImagingFrequency": 123.2437,
      "InPlanePhaseEncodingDirection": "COL",
      "MRAcquisitionType": "2D",
      "MagneticFieldStrength": 3.0,
      "Manufacturer": "SIEMENS",
      "ManufacturerModelName": "Prisma",
      "Modality": "MR",
      "NominalInterval": 0,
      "NumberOfAverages": 1.0,
      "NumberOfPhaseEncodingSteps": 106,
      "PercentPhaseFieldOfView": 100.0,
      "PercentSampling": 100.0,
      "PerformedProcedureStepStartTime": "130436.757000",
      "PhotometricInterpretation": "MONOCHROME2",
      "PixelBandwidth": 2620.0,
      "PixelRepresentation": 0,
      "PixelSpacing": [2.0, 2.0],
      "ProtocolName": "task-backtothefuture_run-1",
      "RepetitionTime": 1500.0,
      "Rows": 954,
      "SAR": 0.0664215364867,
      "SamplesPerPixel": 1,
      "ScanOptions": [
        "FS",
        "EXT"
],
      "ScanningSequence": "EP",
      "SequenceName": "epfid2d1_106",
      "SequenceVariant": [
        "SK",
        "SS"
],
      "SeriesDescription": "task-backtothefuture_run-1",
      "SeriesNumber": 3,
      "SeriesTime": "134241.381000",
      "SliceLocation": -60.156627655029,
      "SliceThickness": 2.0,
      "SmallestImagePixelValue": 0,
      "SoftwareVersions": "syngo MR E11",
      "SpacingBetweenSlices": 2.0000000537281,
      "SpecificCharacterSet": "ISO_IR 100",
      "StudyID": "1",
      "StudyTime": "130436.689000",
      "TransmitCoilName": "Body",
      "VariableFlipAngleFlag": "N",
      "WindowCenterWidthExplanation": "Algo1",
      "dBdt": 0.0},
    "slices": {}
  },
  "time": {
    "samples": {
      "AcquisitionNumber": [1, 2, 3, 4, 5, 6, 7, 8, 9, 10, 11, 12, 13, 14, 15, 16, 17, 18, 19, 20, 21, 22, 23, 24, 25, 26, 27, 28, 29, 30, 31, 32, 33, 34, 35, 36, 37, 38, 39, 40, 41, 42, 43, 44, 45, 46, 47, 48, 49, 50, 51, 52, 53, 54, 55, 56, 57, 58, 59, 60, 61, 62, 63, 64, 65, 66, 67, 68, 69, 70, 71, 72, 73, 74, 75, 76, 77, 78, 79, 80, 81, 82, 83, 84, 85, 86, 87, 88, 89, 90, 91, 92, 93, 94, 95, 96, 97, 98, 99, 100, 101, 102, 103, 104, 105, 106, 107, 108, 109, 110, 111, 112, 113, 114, 115, 116, 117, 118, 119, 120, 121, 122, 123, 124, 125, 126, 127, 128, 129, 130, 131, 132, 133, 134, 135, 136, 137, 138, 139, 140, 141, 142, 143, 144, 145, 146, 147, 148, 149, 150, 151, 152, 153, 154, 155, 156, 157, 158, 159, 160, 161, 162, 163, 164, 165, 166, 167, 168, 169, 170, 171, 172, 173, 174, 175, 176, 177, 178, 179, 180, 181, 182, 183, 184, 185, 186, 187, 188, 189, 190, 191, 192, 193, 194, 195, 196, 197, 198, 199, 200, 201, 202, 203, 204, 205, 206, 207, 208, 209, 210, 211, 212, 213, 214, 215, 216, 217, 218, 219, 220, 221, 222, 223, 224, 225, 226, 227, 228, 229, 230, 231, 232, 233, 234, 235, 236, 237, 238, 239, 240, 241, 242, 243, 244, 245, 246, 247, 248, 249, 250, 251, 252, 253, 254, 255, 256, 257, 258, 259, 260, 261, 262, 263, 264, 265, 266, 267, 268, 269, 270, 271, 272, 273, 274, 275, 276, 277, 278, 279, 280, 281, 282, 283, 284, 285, 286, 287, 288, 289, 290, 291, 292, 293, 294, 295, 296, 297, 298, 299, 300, 301, 302, 303, 304, 305, 306, 307, 308, 309, 310, 311, 312, 313, 314, 315, 316, 317, 318, 319, 320, 321, 322, 323, 324, 325, 326, 327, 328, 329, 330, 331, 332, 333, 334, 335, 336, 337, 338, 339, 340, 341, 342, 343, 344, 345, 346, 347, 348, 349, 350, 351, 352, 353, 354, 355, 356, 357, 358, 359, 360, 361, 362, 363, 364, 365, 366, 367, 368, 369, 370, 371, 372, 373, 374, 375, 376, 377, 378, 379, 380, 381, 382, 383, 384, 385, 386, 387, 388, 389, 390, 391, 392, 393, 394, 395, 396, 397, 398, 399, 400, 401, 402, 403, 404, 405, 406, 407, 408, 409, 410, 411, 412, 413, 414, 415, 416, 417, 418, 419, 420, 421, 422, 423, 424, 425, 426, 427, 428, 429, 430, 431, 432, 433, 434, 435, 436, 437, 438, 439, 440, 441, 442, 443, 444, 445, 446, 447, 448, 449, 450, 451, 452, 453, 454, 455, 456, 457, 458, 459, 460, 461, 462, 463, 464, 465, 466, 467, 468, 469, 470, 471, 472, 473, 474, 475, 476, 477, 478, 479, 480, 481, 482, 483, 484, 485, 486, 487, 488, 489, 490, 491, 492, 493, 494, 495, 496, 497, 498, 499, 500, 501, 502, 503, 504, 505, 506, 507, 508, 509, 510, 511, 512, 513, 514, 515, 516, 517, 518, 519, 520, 521, 522, 523, 524, 525, 526, 527, 528, 529, 530, 531, 532, 533, 534, 535, 536, 537, 538, 539, 540, 541, 542, 543, 544, 545, 546, 547, 548, 549, 550, 551, 552, 553, 554, 555, 556, 557, 558, 559, 560, 561, 562, 563, 564, 565, 566, 567, 568, 569, 570, 571, 572, 573, 574, 575, 576, 577, 578, 579, 580, 581, 582, 583, 584, 585, 586, 587, 588, 589, 590, 591, 592, 593, 594, 595, 596, 597, 598, 599, 600, 601, 602, 603, 604, 605, 606, 607, 608, 609, 610, 611, 612, 613, 614, 615, 616, 617, 618, 619, 620, 621, 622, 623, 624, 625, 626, 627, 628, 629, 630, 631, 632, 633, 634, 635, 636, 637, 638, 639, 640, 641, 642, 643, 644, 645, 646, 647, 648, 649, 650, 651, 652, 653, 654, 655, 656, 657, 658, 659, 660, 661, 662, 663, 664, 665, 666, 667, 668, 669, 670, 671, 672, 673, 674, 675, 676, 677, 678, 679, 680, 681, 682, 683, 684, 685, 686, 687, 688, 689, 690, 691, 692, 693, 694, 695, 696, 697, 698, 699, 700, 701, 702, 703, 704, 705, 706, 707, 708, 709, 710, 711, 712, 713, 714, 715, 716, 717, 718, 719, 720, 721, 722, 723, 724, 725, 726, 727, 728, 729, 730, 731, 732, 733, 734, 735, 736, 737, 738, 739, 740, 741, 742, 743, 744, 745, 746, 747, 748, 749, 750, 751, 752, 753, 754, 755, 756, 757, 758, 759, 760, 761, 762, 763, 764, 765, 766, 767, 768, 769, 770, 771, 772, 773, 774, 775, 776, 777, 778, 779, 780, 781, 782, 783, 784, 785, 786, 787, 788, 789, 790, 791, 792, 793, 794, 795, 796, 797, 798, 799, 800, 801, 802, 803, 804, 805, 806, 807, 808, 809, 810, 811, 812, 813, 814, 815, 816, 817, 818, 819, 820, 821, 822, 823, 824, 825, 826, 827, 828, 829, 830, 831, 832, 833, 834, 835, 836, 837, 838, 839, 840, 841, 842, 843, 844, 845, 846, 847, 848, 849, 850, 851, 852, 853, 854, 855, 856, 857, 858, 859, 860, 861, 862, 863, 864, 865, 866, 867, 868, 869, 870, 871, 872, 873, 874, 875, 876, 877, 878, 879, 880, 881, 882, 883, 884, 885, 886, 887, 888, 889, 890, 891, 892, 893, 894, 895, 896, 897, 898, 899, 900, 901, 902, 903, 904, 905, 906, 907, 908, 909, 910, 911, 912, 913, 914, 915, 916, 917, 918, 919, 920, 921, 922, 923, 924, 925, 926, 927, 928, 929, 930, 931, 932, 933, 934, 935, 936, 937, 938, 939, 940, 941, 942, 943, 944, 945, 946, 947, 948, 949, 950, 951, 952, 953, 954, 955, 956, 957, 958, 959, 960, 961, 962, 963, 964, 965, 966, 967, 968, 969, 970, 971, 972, 973, 974, 975, 976, 977, 978, 979, 980, 981, 982, 983, 984, 985, 986, 987, 988, 989, 990, 991, 992, 993, 994, 995, 996, 997, 998, 999, 1000, 1001, 1002, 1003, 1004, 1005, 1006, 1007, 1008, 1009, 1010, 1011, 1012, 1013, 1014, 1015, 1016, 1017, 1018, 1019, 1020, 1021, 1022, 1023, 1024, 1025, 1026, 1027, 1028, 1029, 1030, 1031, 1032, 1033, 1034, 1035, 1036, 1037, 1038, 1039, 1040, 1041, 1042, 1043, 1044, 1045, 1046, 1047, 1048, 1049, 1050, 1051, 1052, 1053, 1054, 1055, 1056, 1057, 1058, 1059, 1060, 1061, 1062, 1063, 1064, 1065, 1066, 1067, 1068, 1069, 1070, 1071, 1072, 1073, 1074, 1075, 1076, 1077, 1078, 1079, 1080, 1081, 1082, 1083, 1084, 1085, 1086, 1087, 1088, 1089, 1090, 1091, 1092, 1093, 1094, 1095, 1096, 1097, 1098, 1099, 1100, 1101, 1102, 1103, 1104, 1105, 1106, 1107, 1108, 1109, 1110, 1111, 1112, 1113, 1114, 1115, 1116, 1117, 1118, 1119, 1120, 1121, 1122, 1123, 1124, 1125, 1126, 1127, 1128, 1129, 1130, 1131, 1132, 1133, 1134, 1135, 1136, 1137, 1138, 1139, 1140, 1141, 1142, 1143, 1144, 1145, 1146, 1147, 1148, 1149, 1150, 1151, 1152, 1153, 1154, 1155, 1156, 1157, 1158, 1159, 1160, 1161, 1162, 1163, 1164, 1165, 1166, 1167, 1168, 1169, 1170, 1171, 1172, 1173, 1174, 1175, 1176, 1177, 1178, 1179, 1180, 1181, 1182, 1183, 1184, 1185, 1186, 1187, 1188, 1189, 1190, 1191, 1192, 1193, 1194, 1195, 1196, 1197, 1198, 1199, 1200, 1201, 1202, 1203, 1204, 1205, 1206, 1207, 1208, 1209, 1210, 1211, 1212, 1213, 1214, 1215, 1216, 1217, 1218, 1219, 1220, 1221, 1222, 1223, 1224, 1225, 1226, 1227, 1228, 1229, 1230, 1231, 1232, 1233, 1234, 1235, 1236, 1237, 1238, 1239, 1240, 1241, 1242, 1243, 1244, 1245, 1246, 1247, 1248, 1249, 1250, 1251, 1252, 1253, 1254, 1255, 1256, 1257, 1258, 1259, 1260, 1261, 1262, 1263, 1264, 1265, 1266, 1267, 1268, 1269, 1270, 1271, 1272, 1273, 1274, 1275, 1276, 1277, 1278, 1279, 1280, 1281, 1282, 1283, 1284, 1285, 1286, 1287, 1288, 1289, 1290, 1291, 1292, 1293, 1294, 1295, 1296, 1297, 1298, 1299, 1300, 1301, 1302, 1303, 1304, 1305, 1306, 1307, 1308, 1309, 1310, 1311, 1312, 1313, 1314, 1315, 1316, 1317, 1318, 1319, 1320, 1321, 1322, 1323, 1324, 1325, 1326, 1327, 1328, 1329, 1330, 1331, 1332, 1333, 1334, 1335, 1336, 1337, 1338, 1339, 1340, 1341, 1342, 1343, 1344, 1345, 1346, 1347, 1348, 1349, 1350, 1351, 1352, 1353, 1354, 1355, 1356, 1357, 1358, 1359, 1360],
      "AcquisitionTime": ["134148.877500", "134150.377500", "134151.877500", "134153.377500", "134154.877500", "134156.377500", "134157.877500", "134159.377500", "134200.877500", "134202.377500", "134203.877500", "134205.377500", "134206.877500", "134208.377500", "134209.877500", "134211.377500", "134212.877500", "134214.377500", "134215.877500", "134217.377500", "134218.877500", "134220.377500", "134221.877500", "134223.377500", "134224.877500", "134226.377500", "134227.877500", "134229.377500", "134230.877500", "134232.377500", "134233.877500", "134235.377500", "134236.877500", "134238.377500", "134239.877500", "134241.377500", "134242.877500", "134244.377500", "134245.877500", "134247.377500", "134248.877500", "134250.377500", "134251.877500", "134253.377500", "134254.877500", "134256.377500", "134257.877500", "134259.377500", "134300.877500", "134302.377500", "134303.877500", "134305.377500", "134306.877500", "134308.377500", "134309.877500", "134311.377500", "134312.877500", "134314.377500", "134315.877500", "134317.377500", "134318.877500", "134320.377500", "134321.877500", "134323.377500", "134324.877500", "134326.377500", "134327.877500", "134329.377500", "134330.877500", "134332.377500", "134333.877500", "134335.377500", "134336.877500", "134338.377500", "134339.877500", "134341.377500", "134342.877500", "134344.377500", "134345.877500", "134347.377500", "134348.877500", "134350.377500", "134351.877500", "134353.377500", "134354.877500", "134356.377500", "134357.877500", "134359.377500", "134400.877500", "134402.377500", "134403.877500", "134405.377500", "134406.877500", "134408.377500", "134409.877500", "134411.377500", "134412.877500", "134414.377500", "134415.877500", "134417.377500", "134418.877500", "134420.377500", "134421.877500", "134423.377500", "134424.877500", "134426.377500", "134427.877500", "134429.377500", "134430.877500", "134432.377500", "134433.877500", "134435.377500", "134436.877500", "134438.377500", "134439.877500", "134441.377500", "134442.877500", "134444.377500", "134445.877500", "134447.377500", "134448.877500", "134450.377500", "134451.877500", "134453.377500", "134454.877500", "134456.377500", "134457.877500", "134459.377500", "134500.877500", "134502.377500", "134503.877500", "134505.377500", "134506.877500", "134508.377500", "134509.877500", "134511.377500", "134512.877500", "134514.377500", "134515.877500", "134517.377500", "134518.877500", "134520.377500", "134521.877500", "134523.377500", "134524.877500", "134526.377500", "134527.877500", "134529.377500", "134530.877500", "134532.377500", "134533.877500", "134535.377500", "134536.877500", "134538.377500", "134539.877500", "134541.377500", "134542.877500", "134544.377500", "134545.877500", "134547.377500", "134548.877500", "134550.377500", "134551.877500", "134553.377500", "134554.877500", "134556.377500", "134557.877500", "134559.377500", "134600.877500", "134602.377500", "134603.877500", "134605.377500", "134606.877500", "134608.377500", "134609.877500", "134611.377500", "134612.877500", "134614.377500", "134615.877500", "134617.377500", "134618.877500", "134620.377500", "134621.877500", "134623.377500", "134624.877500", "134626.377500", "134627.877500", "134629.377500", "134630.877500", "134632.377500", "134633.877500", "134635.377500", "134636.877500", "134638.377500", "134639.877500", "134641.377500", "134642.877500", "134644.377500", "134645.877500", "134647.377500", "134648.877500", "134650.377500", "134651.877500", "134653.377500", "134654.877500", "134656.377500", "134657.877500", "134659.377500", "134700.877500", "134702.377500", "134703.877500", "134705.377500", "134706.877500", "134708.377500", "134709.877500", "134711.377500", "134712.877500", "134714.377500", "134715.877500", "134717.377500", "134718.877500", "134720.377500", "134721.877500", "134723.377500", "134724.877500", "134726.377500", "134727.877500", "134729.377500", "134730.877500", "134732.377500", "134733.877500", "134735.377500", "134736.877500", "134738.377500", "134739.877500", "134741.377500", "134742.877500", "134744.377500", "134745.877500", "134747.377500", "134748.877500", "134750.377500", "134751.877500", "134753.377500", "134754.877500", "134756.377500", "134757.877500", "134759.377500", "134800.877500", "134802.377500", "134803.877500", "134805.377500", "134806.877500", "134808.377500", "134809.877500", "134811.377500", "134812.877500", "134814.377500", "134815.877500", "134817.377500", "134818.877500", "134820.377500", "134821.877500", "134823.377500", "134824.877500", "134826.377500", "134827.877500", "134829.377500", "134830.877500", "134832.377500", "134833.877500", "134835.377500", "134836.877500", "134838.377500", "134839.877500", "134841.377500", "134842.877500", "134844.377500", "134845.877500", "134847.377500", "134848.877500", "134850.377500", "134851.877500", "134853.377500", "134854.877500", "134856.377500", "134857.877500", "134859.377500", "134900.877500", "134902.377500", "134903.877500", "134905.377500", "134906.877500", "134908.377500", "134909.877500", "134911.377500", "134912.877500", "134914.377500", "134915.877500", "134917.377500", "134918.877500", "134920.377500", "134921.877500", "134923.377500", "134924.877500", "134926.377500", "134927.877500", "134929.377500", "134930.877500", "134932.377500", "134933.877500", "134935.377500", "134936.877500", "134938.377500", "134939.877500", "134941.377500", "134942.877500", "134944.377500", "134945.877500", "134947.377500", "134948.877500", "134950.377500", "134951.877500", "134953.377500", "134954.877500", "134956.377500", "134957.877500", "134959.377500", "135000.877500", "135002.377500", "135003.877500", "135005.377500", "135006.877500", "135008.377500", "135009.877500", "135011.377500", "135012.877500", "135014.377500", "135015.877500", "135017.377500", "135018.877500", "135020.377500", "135021.877500", "135023.377500", "135024.877500", "135026.377500", "135027.877500", "135029.377500", "135030.877500", "135032.377500", "135033.877500", "135035.377500", "135036.877500", "135038.377500", "135039.877500", "135041.377500", "135042.877500", "135044.377500", "135045.877500", "135047.377500", "135048.877500", "135050.377500", "135051.877500", "135053.377500", "135054.877500", "135056.377500", "135057.877500", "135059.377500", "135100.877500", "135102.377500", "135103.877500", "135105.377500", "135106.877500", "135108.377500", "135109.877500", "135111.377500", "135112.877500", "135114.377500", "135115.877500", "135117.377500", "135118.877500", "135120.377500", "135121.877500", "135123.377500", "135124.877500", "135126.377500", "135127.877500", "135129.377500", "135130.877500", "135132.377500", "135133.877500", "135135.377500", "135136.877500", "135138.377500", "135139.877500", "135141.377500", "135142.877500", "135144.377500", "135145.877500", "135147.377500", "135148.877500", "135150.377500", "135151.877500", "135153.377500", "135154.877500", "135156.377500", "135157.877500", "135159.377500", "135200.877500", "135202.377500", "135203.877500", "135205.377500", "135206.877500", "135208.377500", "135209.877500", "135211.377500", "135212.877500", "135214.377500", "135215.877500", "135217.377500", "135218.877500", "135220.377500", "135221.877500", "135223.377500", "135224.877500", "135226.377500", "135227.877500", "135229.377500", "135230.877500", "135232.377500", "135233.877500", "135235.377500", "135236.877500", "135238.377500", "135239.877500", "135241.377500", "135242.877500", "135244.377500", "135245.877500", "135247.377500", "135248.877500", "135250.377500", "135251.877500", "135253.377500", "135254.877500", "135256.377500", "135257.877500", "135259.377500", "135300.877500", "135302.377500", "135303.877500", "135305.377500", "135306.877500", "135308.377500", "135309.877500", "135311.377500", "135312.877500", "135314.377500", "135315.877500", "135317.377500", "135318.877500", "135320.377500", "135321.877500", "135323.377500", "135324.877500", "135326.377500", "135327.877500", "135329.377500", "135330.877500", "135332.377500", "135333.877500", "135335.377500", "135336.877500", "135338.377500", "135339.877500", "135341.377500", "135342.877500", "135344.377500", "135345.877500", "135347.377500", "135348.877500", "135350.377500", "135351.877500", "135353.377500", "135354.877500", "135356.377500", "135357.877500", "135359.377500", "135400.877500", "135402.377500", "135403.877500", "135405.377500", "135406.877500", "135408.377500", "135409.877500", "135411.377500", "135412.877500", "135414.377500", "135415.877500", "135417.377500", "135418.877500", "135420.377500", "135421.877500", "135423.377500", "135424.877500", "135426.377500", "135427.877500", "135429.377500", "135430.877500", "135432.377500", "135433.877500", "135435.377500", "135436.877500", "135438.377500", "135439.877500", "135441.377500", "135442.877500", "135444.377500", "135445.877500", "135447.377500", "135448.877500", "135450.377500", "135451.877500", "135453.377500", "135454.877500", "135456.377500", "135457.877500", "135459.377500", "135500.877500", "135502.377500", "135503.877500", "135505.377500", "135506.877500", "135508.377500", "135509.877500", "135511.377500", "135512.877500", "135514.377500", "135515.877500", "135517.377500", "135518.877500", "135520.377500", "135521.877500", "135523.377500", "135524.877500", "135526.377500", "135527.877500", "135529.377500", "135530.877500", "135532.377500", "135533.877500", "135535.377500", "135536.877500", "135538.377500", "135539.877500", "135541.377500", "135542.877500", "135544.377500", "135545.877500", "135547.377500", "135548.877500", "135550.377500", "135551.877500", "135553.377500", "135554.877500", "135556.377500", "135557.877500", "135559.377500", "135600.877500", "135602.377500", "135603.877500", "135605.377500", "135606.877500", "135608.377500", "135609.877500", "135611.377500", "135612.877500", "135614.377500", "135615.877500", "135617.377500", "135618.877500", "135620.377500", "135621.877500", "135623.377500", "135624.877500", "135626.377500", "135627.877500", "135629.377500", "135630.877500", "135632.377500", "135633.877500", "135635.377500", "135636.877500", "135638.377500", "135639.877500", "135641.377500", "135642.877500", "135644.377500", "135645.877500", "135647.377500", "135648.877500", "135650.377500", "135651.877500", "135653.377500", "135654.877500", "135656.377500", "135657.877500", "135659.377500", "135700.877500", "135702.377500", "135703.877500", "135705.377500", "135706.877500", "135708.377500", "135709.877500", "135711.377500", "135712.877500", "135714.377500", "135715.877500", "135717.377500", "135718.877500", "135720.377500", "135721.877500", "135723.377500", "135724.877500", "135726.377500", "135727.877500", "135729.377500", "135730.877500", "135732.377500", "135733.877500", "135735.377500", "135736.877500", "135738.377500", "135739.877500", "135741.377500", "135742.877500", "135744.377500", "135745.877500", "135747.377500", "135748.877500", "135750.377500", "135751.877500", "135753.377500", "135754.877500", "135756.377500", "135757.877500", "135759.377500", "135800.877500", "135802.377500", "135803.877500", "135805.377500", "135806.877500", "135808.377500", "135809.877500", "135811.377500", "135812.877500", "135814.377500", "135815.877500", "135817.377500", "135818.877500", "135820.377500", "135821.877500", "135823.377500", "135824.877500", "135826.377500", "135827.877500", "135829.377500", "135830.877500", "135832.377500", "135833.877500", "135835.377500", "135836.877500", "135838.377500", "135839.877500", "135841.377500", "135842.877500", "135844.377500", "135845.877500", "135847.377500", "135848.877500", "135850.377500", "135851.877500", "135853.377500", "135854.877500", "135856.377500", "135857.877500", "135859.377500", "135900.877500", "135902.377500", "135903.877500", "135905.377500", "135906.877500", "135908.377500", "135909.877500", "135911.377500", "135912.877500", "135914.377500", "135915.877500", "135917.377500", "135918.877500", "135920.377500", "135921.877500", "135923.377500", "135924.877500", "135926.377500", "135927.877500", "135929.377500", "135930.877500", "135932.377500", "135933.877500", "135935.377500", "135936.877500", "135938.377500", "135939.877500", "135941.377500", "135942.877500", "135944.377500", "135945.877500", "135947.377500", "135948.877500", "135950.377500", "135951.877500", "135953.377500", "135954.877500", "135956.377500", "135957.877500", "135959.377500", "140000.877500", "140002.377500", "140003.877500", "140005.377500", "140006.877500", "140008.377500", "140009.877500", "140011.377500", "140012.877500", "140014.377500", "140015.877500", "140017.377500", "140018.877500", "140020.377500", "140021.877500", "140023.377500", "140024.877500", "140026.377500", "140027.877500", "140029.377500", "140030.877500", "140032.377500", "140033.877500", "140035.377500", "140036.877500", "140038.377500", "140039.877500", "140041.377500", "140042.877500", "140044.377500", "140045.877500", "140047.377500", "140048.877500", "140050.377500", "140051.877500", "140053.377500", "140054.877500", "140056.377500", "140057.877500", "140059.377500", "140100.877500", "140102.377500", "140103.877500", "140105.377500", "140106.877500", "140108.377500", "140109.877500", "140111.377500", "140112.877500", "140114.377500", "140115.877500", "140117.377500", "140118.877500", "140120.377500", "140121.877500", "140123.377500", "140124.877500", "140126.377500", "140127.877500", "140129.377500", "140130.877500", "140132.377500", "140133.877500", "140135.377500", "140136.877500", "140138.377500", "140139.877500", "140141.377500", "140142.877500", "140144.377500", "140145.877500", "140147.377500", "140148.877500", "140150.377500", "140151.877500", "140153.377500", "140154.877500", "140156.377500", "140157.877500", "140159.377500", "140200.877500", "140202.377500", "140203.877500", "140205.377500", "140206.877500", "140208.377500", "140209.877500", "140211.377500", "140212.877500", "140214.377500", "140215.877500", "140217.377500", "140218.877500", "140220.377500", "140221.877500", "140223.377500", "140224.877500", "140226.377500", "140227.877500", "140229.377500", "140230.877500", "140232.377500", "140233.877500", "140235.377500", "140236.877500", "140238.377500", "140239.877500", "140241.377500", "140242.877500", "140244.377500", "140245.877500", "140247.377500", "140248.877500", "140250.377500", "140251.877500", "140253.377500", "140254.877500", "140256.377500", "140257.877500", "140259.377500", "140300.877500", "140302.377500", "140303.877500", "140305.377500", "140306.877500", "140308.377500", "140309.877500", "140311.377500", "140312.877500", "140314.377500", "140315.877500", "140317.377500", "140318.877500", "140320.377500", "140321.877500", "140323.377500", "140324.877500", "140326.377500", "140327.877500", "140329.377500", "140330.877500", "140332.377500", "140333.877500", "140335.377500", "140336.877500", "140338.377500", "140339.877500", "140341.377500", "140342.877500", "140344.377500", "140345.877500", "140347.377500", "140348.877500", "140350.377500", "140351.877500", "140353.377500", "140354.877500", "140356.377500", "140357.877500", "140359.377500", "140400.877500", "140402.377500", "140403.877500", "140405.377500", "140406.877500", "140408.377500", "140409.877500", "140411.377500", "140412.877500", "140414.377500", "140415.877500", "140417.377500", "140418.877500", "140420.377500", "140421.877500", "140423.377500", "140424.877500", "140426.377500", "140427.877500", "140429.377500", "140430.877500", "140432.377500", "140433.877500", "140435.377500", "140436.877500", "140438.377500", "140439.877500", "140441.377500", "140442.877500", "140444.377500", "140445.877500", "140447.377500", "140448.877500", "140450.377500", "140451.877500", "140453.377500", "140454.877500", "140456.377500", "140457.877500", "140459.377500", "140500.877500", "140502.377500", "140503.877500", "140505.377500", "140506.877500", "140508.377500", "140509.877500", "140511.377500", "140512.877500", "140514.377500", "140515.877500", "140517.377500", "140518.877500", "140520.377500", "140521.877500", "140523.377500", "140524.877500", "140526.377500", "140527.877500", "140529.377500", "140530.877500", "140532.377500", "140533.877500", "140535.377500", "140536.877500", "140538.377500", "140539.877500", "140541.377500", "140542.877500", "140544.377500", "140545.877500", "140547.377500", "140548.877500", "140550.377500", "140551.877500", "140553.377500", "140554.877500", "140556.377500", "140557.877500", "140559.377500", "140600.877500", "140602.377500", "140603.877500", "140605.377500", "140606.877500", "140608.377500", "140609.877500", "140611.377500", "140612.877500", "140614.377500", "140615.877500", "140617.377500", "140618.877500", "140620.377500", "140621.877500", "140623.377500", "140624.877500", "140626.377500", "140627.877500", "140629.377500", "140630.877500", "140632.377500", "140633.877500", "140635.377500", "140636.877500", "140638.377500", "140639.877500", "140641.377500", "140642.877500", "140644.377500", "140645.877500", "140647.377500", "140648.877500", "140650.377500", "140651.877500", "140653.377500", "140654.877500", "140656.377500", "140657.877500", "140659.377500", "140700.877500", "140702.377500", "140703.877500", "140705.377500", "140706.877500", "140708.377500", "140709.877500", "140711.377500", "140712.877500", "14071