{
  "AcquisitionMatrixPE": 106,
  "AcquisitionNumber": 1,
  "AcquisitionTime": "16:39:54.462500",
  "BandwidthPerPixelPhaseEncode": 16.846,
  "BaseResolution": 106,
  "BodyPartExamined": "BRAIN",
  "CoilCombinationMethod": "Sum of Squares",
  "ConsistencyInfo": "N4_VE11C_LATEST_20160120",
  "ConversionSoftware": "dcm2niix",
  "ConversionSoftwareVersion": "v1.0.20220720",
  "DerivedVendorReportedEchoSpacing": 0.000560012,
  "DeviceSerialNumber": "166108",
  "DwellTime": 1.8e-06,
  "EchoTime": 0.0352,
  "EchoTrainLength": 106,
  "EffectiveEchoSpacing": 0.000560012,
  "FlipAngle": 60,
  "HeudiconvVersion": "1.3.0",
  "ImageComments": "Unaliased MB4/PE3/LB",
  "ImageOrientationPatientDICOM": [1, 0, 0, 0, 1, 0],
  "ImageOrientationText": "Tra",
  "ImageType": [
    "ORIGINAL",
    "PRIMARY",
    "M",
    "MB",
    "ND",
    "MOSAIC"
],
  "ImagingFrequency": 123.244,
  "InPlanePhaseEncodingDirectionDICOM": "COL",
  "InstitutionAddress": "Bedford Way 26,London,London,GB,WC1H 0AP",
  "InstitutionName": "University College",
  "InstitutionalDepartmentName": "Department",
  "MRAcquisitionType": "2D",
  "MagneticFieldStrength": 3,
  "Manufacturer": "Siemens",
  "ManufacturersModelName": "Prisma",
  "MatrixCoilMode": "SENSE",
  "Modality": "MR",
  "MultibandAccelerationFactor": 4,
  "NonlinearGradientCorrection": false,
  "PartialFourier": 1,
  "PatientPosition": "HFS",
  "PercentPhaseFOV": 100,
  "PercentSampling": 100,
  "PhaseEncodingDirection": "j-",
  "PhaseEncodingSteps": 106,
  "PhaseResolution": 1,
  "PixelBandwidth": 2620,
  "ProcedureStepDescription": "Egor^MovieProject2",
  "ProtocolName": "task-backtothefuture_run-2",
  "PulseSequenceDetails": "%CustomerSeq%\\cmrr_mbep2d_bold",
  "ReceiveCoilActiveElements": "HEA;HEP",
  "ReceiveCoilName": "Head_32",
  "ReconMatrixPE": 106,
  "RepetitionTime": 1.5,
  "SAR": 0.0760671,
  "ScanOptions": "FS\\EXT",
  "ScanningSequence": "EP",
  "SequenceName": "epfid2d1_106",
  "SequenceVariant": "SK\\SS",
  "SeriesDescription": "task-backtothefuture_run-2",
  "SeriesNumber": 7,
  "ShimSetting": [-1532, 639, 7344, 221, -290, 194, 193, -31],
  "SliceThickness": 2,
  "SliceTiming": [0, 1.0675, 0.6575, 0.245, 1.315, 0.9025, 0.4925, 0.0825, 1.15, 0.74, 0.3275, 1.3975, 0.985, 0.575, 0.1625, 1.2325, 0.8225, 0.41, 0, 1.0675, 0.6575, 0.245, 1.315, 0.9025, 0.4925, 0.0825, 1.15, 0.74, 0.3275, 1.3975, 0.985, 0.575, 0.1625, 1.2325, 0.8225, 0.41, 0, 1.0675, 0.6575, 0.245, 1.315, 0.9025, 0.4925, 0.0825, 1.15, 0.74, 0.3275, 1.3975, 0.985, 0.575, 0.1625, 1.2325, 0.8225, 0.41, 0, 1.0675, 0.6575, 0.245, 1.315, 0.9025, 0.4925, 0.0825, 1.15, 0.74, 0.3275, 1.3975, 0.985, 0.575, 0.1625, 1.2325, 0.8225, 0.41],
  "SoftwareVersions": "syngo MR E11",
  "SpacingBetweenSlices": 2,
  "StationName": "AWP166108",
  "TaskName": "backtothefuture",
  "TotalReadoutTime": 0.0588013,
  "TxRefAmp": 246.675,
  "WipMemBlock": "41829d66-7a0a-4502-8b02-f57fa4119aab||Sequence: R016 ve11c/master r/e634e98; Dec 19 2017 11:00:25 by eja",
  "dcmmeta_affine": [
    [-2.0, 0.0, 0.0, 106.0],
    [0.0, 2.0, 0.0, -94.36144256591797],
    [0.0, 0.0, 2.0, -57.746986389160156],
    [0.0, 0.0, 0.0, 1.0]
],
  "dcmmeta_reorient_transform": [
    [0.0, -1.0, 0.0, 105.0],
    [1.0, 0.0, 0.0, 0.0],
    [0.0, 0.0, 1.0, 0.0],
    [0.0, 0.0, 0.0, 1.0]
],
  "dcmmeta_shape": [106, 106, 72, 1522],
  "dcmmeta_slice_dim": 2,
  "dcmmeta_version": 0.6,
  "global": {
    "const": {
      "AcquisitionMatrix": [106, 0, 0, 106],
      "AngioFlag": "N",
      "BitsAllocated": 16,
      "BitsStored": 16,
      "BodyPartExamined": "BRAIN",
      "CardiacNumberOfImages": 1,
      "Columns": 954,
      "EchoNumbers": 1,
      "EchoTime": 35.2,
      "EchoTrainLength": 106,
      "FlipAngle": 60.0,
      "HighBit": 15,
      "ImageOrientationPatient": [1.0, 0.0, 0.0, 0.0, 1.0, 0.0],
      "ImagePositionPatient": [-954.0, -963.63855457306, -57.74698638916],
      "ImageType": [
        "ORIGINAL",
        "PRIMARY",
        "M",
        "MB",
        "ND",
        "MOSAIC"
],
      "ImagedNucleus": "1H",
      "ImagingFrequency": 123.243632,
      "InPlanePhaseEncodingDirection": "COL",
      "MRAcquisitionType": "2D",
      "MagneticFieldStrength": 3.0,
      "Manufacturer": "SIEMENS",
      "ManufacturerModelName": "Prisma",
      "Modality": "MR",
      "NominalInterval": 0,
      "NumberOfAverages": 1.0,
      "NumberOfPhaseEncodingSteps": 106,
      "PercentPhaseFieldOfView": 100.0,
      "PercentSampling": 100.0,
      "PerformedProcedureStepStartTime": "153136.450000",
      "PhotometricInterpretation": "MONOCHROME2",
      "PixelBandwidth": 2620.0,
      "PixelRepresentation": 0,
      "PixelSpacing": [2.0, 2.0],
      "ProtocolName": "task-backtothefuture_run-2",
      "RepetitionTime": 1500.0,
      "Rows": 954,
      "SAR": 0.07606707334037,
      "SamplesPerPixel": 1,
      "ScanOptions": [
        "FS",
        "EXT"
],
      "ScanningSequence": "EP",
      "SequenceName": "epfid2d1_106",
      "SequenceVariant": [
        "SK",
        "SS"
],
      "SeriesDescription": "task-backtothefuture_run-2",
      "SeriesNumber": 7,
      "SeriesTime": "164049.296000",
      "SliceLocation": -57.74698638916,
      "SliceThickness": 2.0,
      "SmallestImagePixelValue": 0,
      "SoftwareVersions": "syngo MR E11",
      "SpacingBetweenSlices": 2.0,
      "SpecificCharacterSet": "ISO_IR 100",
      "StudyID": "1",
      "StudyTime": "153136.385000",
      "TransmitCoilName": "Body",
      "VariableFlipAngleFlag": "N",
      "WindowCenterWidthExplanation": "Algo1",
      "dBdt": 0.0},
    "slices": {}
  },
  "time": {
    "samples": {
      "AcquisitionNumber": [1, 2, 3, 4, 5, 6, 7, 8, 9, 10, 11, 12, 13, 14, 15, 16, 17, 18, 19, 20, 21, 22, 23, 24, 25, 26, 27, 28, 29, 30, 31, 32, 33, 34, 35, 36, 37, 38, 39, 40, 41, 42, 43, 44, 45, 46, 47, 48, 49, 50, 51, 52, 53, 54, 55, 56, 57, 58, 59, 60, 61, 62, 63, 64, 65, 66, 67, 68, 69, 70, 71, 72, 73, 74, 75, 76, 77, 78, 79, 80, 81, 82, 83, 84, 85, 86, 87, 88, 89, 90, 91, 92, 93, 94, 95, 96, 97, 98, 99, 100, 101, 102, 103, 104, 105, 106, 107, 108, 109, 110, 111, 112, 113, 114, 115, 116, 117, 118, 119, 120, 121, 122, 123, 124, 125, 126, 127, 128, 129, 130, 131, 132, 133, 134, 135, 136, 137, 138, 139, 140, 141, 142, 143, 144, 145, 146, 147, 148, 149, 150, 151, 152, 153, 154, 155, 156, 157, 158, 159, 160, 161, 162, 163, 164, 165, 166, 167, 168, 169, 170, 171, 172, 173, 174, 175, 176, 177, 178, 179, 180, 181, 182, 183, 184, 185, 186, 187, 188, 189, 190, 191, 192, 193, 194, 195, 196, 197, 198, 199, 200, 201, 202, 203, 204, 205, 206, 207, 208, 209, 210, 211, 212, 213, 214, 215, 216, 217, 218, 219, 220, 221, 222, 223, 224, 225, 226, 227, 228, 229, 230, 231, 232, 233, 234, 235, 236, 237, 238, 239, 240, 241, 242, 243, 244, 245, 246, 247, 248, 249, 250, 251, 252, 253, 254, 255, 256, 257, 258, 259, 260, 261, 262, 263, 264, 265, 266, 267, 268, 269, 270, 271, 272, 273, 274, 275, 276, 277, 278, 279, 280, 281, 282, 283, 284, 285, 286, 287, 288, 289, 290, 291, 292, 293, 294, 295, 296, 297, 298, 299, 300, 301, 302, 303, 304, 305, 306, 307, 308, 309, 310, 311, 312, 313, 314, 315, 316, 317, 318, 319, 320, 321, 322, 323, 324, 325, 326, 327, 328, 329, 330, 331, 332, 333, 334, 335, 336, 337, 338, 339, 340, 341, 342, 343, 344, 345, 346, 347, 348, 349, 350, 351, 352, 353, 354, 355, 356, 357, 358, 359, 360, 361, 362, 363, 364, 365, 366, 367, 368, 369, 370, 371, 372, 373, 374, 375, 376, 377, 378, 379, 380, 381, 382, 383, 384, 385, 386, 387, 388, 389, 390, 391, 392, 393, 394, 395, 396, 397, 398, 399, 400, 401, 402, 403, 404, 405, 406, 407, 408, 409, 410, 411, 412, 413, 414, 415, 416, 417, 418, 419, 420, 421, 422, 423, 424, 425, 426, 427, 428, 429, 430, 431, 432, 433, 434, 435, 436, 437, 438, 439, 440, 441, 442, 443, 444, 445, 446, 447, 448, 449, 450, 451, 452, 453, 454, 455, 456, 457, 458, 459, 460, 461, 462, 463, 464, 465, 466, 467, 468, 469, 470, 471, 472, 473, 474, 475, 476, 477, 478, 479, 480, 481, 482, 483, 484, 485, 486, 487, 488, 489, 490, 491, 492, 493, 494, 495, 496, 497, 498, 499, 500, 501, 502, 503, 504, 505, 506, 507, 508, 509, 510, 511, 512, 513, 514, 515, 516, 517, 518, 519, 520, 521, 522, 523, 524, 525, 526, 527, 528, 529, 530, 531, 532, 533, 534, 535, 536, 537, 538, 539, 540, 541, 542, 543, 544, 545, 546, 547, 548, 549, 550, 551, 552, 553, 554, 555, 556, 557, 558, 559, 560, 561, 562, 563, 564, 565, 566, 567, 568, 569, 570, 571, 572, 573, 574, 575, 576, 577, 578, 579, 580, 581, 582, 583, 584, 585, 586, 587, 588, 589, 590, 591, 592, 593, 594, 595, 596, 597, 598, 599, 600, 601, 602, 603, 604, 605, 606, 607, 608, 609, 610, 611, 612, 613, 614, 615, 616, 617, 618, 619, 620, 621, 622, 623, 624, 625, 626, 627, 628, 629, 630, 631, 632, 633, 634, 635, 636, 637, 638, 639, 640, 641, 642, 643, 644, 645, 646, 647, 648, 649, 650, 651, 652, 653, 654, 655, 656, 657, 658, 659, 660, 661, 662, 663, 664, 665, 666, 667, 668, 669, 670, 671, 672, 673, 674, 675, 676, 677, 678, 679, 680, 681, 682, 683, 684, 685, 686, 687, 688, 689, 690, 691, 692, 693, 694, 695, 696, 697, 698, 699, 700, 701, 702, 703, 704, 705, 706, 707, 708, 709, 710, 711, 712, 713, 714, 715, 716, 717, 718, 719, 720, 721, 722, 723, 724, 725, 726, 727, 728, 729, 730, 731, 732, 733, 734, 735, 736, 737, 738, 739, 740, 741, 742, 743, 744, 745, 746, 747, 748, 749, 750, 751, 752, 753, 754, 755, 756, 757, 758, 759, 760, 761, 762, 763, 764, 765, 766, 767, 768, 769, 770, 771, 772, 773, 774, 775, 776, 777, 778, 779, 780, 781, 782, 783, 784, 785, 786, 787, 788, 789, 790, 791, 792, 793, 794, 795, 796, 797, 798, 799, 800, 801, 802, 803, 804, 805, 806, 807, 808, 809, 810, 811, 812, 813, 814, 815, 816, 817, 818, 819, 820, 821, 822, 823, 824, 825, 826, 827, 828, 829, 830, 831, 832, 833, 834, 835, 836, 837, 838, 839, 840, 841, 842, 843, 844, 845, 846, 847, 848, 849, 850, 851, 852, 853, 854, 855, 856, 857, 858, 859, 860, 861, 862, 863, 864, 865, 866, 867, 868, 869, 870, 871, 872, 873, 874, 875, 876, 877, 878, 879, 880, 881, 882, 883, 884, 885, 886, 887, 888, 889, 890, 891, 892, 893, 894, 895, 896, 897, 898, 899, 900, 901, 902, 903, 904, 905, 906, 907, 908, 909, 910, 911, 912, 913, 914, 915, 916, 917, 918, 919, 920, 921, 922, 923, 924, 925, 926, 927, 928, 929, 930, 931, 932, 933, 934, 935, 936, 937, 938, 939, 940, 941, 942, 943, 944, 945, 946, 947, 948, 949, 950, 951, 952, 953, 954, 955, 956, 957, 958, 959, 960, 961, 962, 963, 964, 965, 966, 967, 968, 969, 970, 971, 972, 973, 974, 975, 976, 977, 978, 979, 980, 981, 982, 983, 984, 985, 986, 987, 988, 989, 990, 991, 992, 993, 994, 995, 996, 997, 998, 999, 1000, 1001, 1002, 1003, 1004, 1005, 1006, 1007, 1008, 1009, 1010, 1011, 1012, 1013, 1014, 1015, 1016, 1017, 1018, 1019, 1020, 1021, 1022, 1023, 1024, 1025, 1026, 1027, 1028, 1029, 1030, 1031, 1032, 1033, 1034, 1035, 1036, 1037, 1038, 1039, 1040, 1041, 1042, 1043, 1044, 1045, 1046, 1047, 1048, 1049, 1050, 1051, 1052, 1053, 1054, 1055, 1056, 1057, 1058, 1059, 1060, 1061, 1062, 1063, 1064, 1065, 1066, 1067, 1068, 1069, 1070, 1071, 1072, 1073, 1074, 1075, 1076, 1077, 1078, 1079, 1080, 1081, 1082, 1083, 1084, 1085, 1086, 1087, 1088, 1089, 1090, 1091, 1092, 1093, 1094, 1095, 1096, 1097, 1098, 1099, 1100, 1101, 1102, 1103, 1104, 1105, 1106, 1107, 1108, 1109, 1110, 1111, 1112, 1113, 1114, 1115, 1116, 1117, 1118, 1119, 1120, 1121, 1122, 1123, 1124, 1125, 1126, 1127, 1128, 1129, 1130, 1131, 1132, 1133, 1134, 1135, 1136, 1137, 1138, 1139, 1140, 1141, 1142, 1143, 1144, 1145, 1146, 1147, 1148, 1149, 1150, 1151, 1152, 1153, 1154, 1155, 1156, 1157, 1158, 1159, 1160, 1161, 1162, 1163, 1164, 1165, 1166, 1167, 1168, 1169, 1170, 1171, 1172, 1173, 1174, 1175, 1176, 1177, 1178, 1179, 1180, 1181, 1182, 1183, 1184, 1185, 1186, 1187, 1188, 1189, 1190, 1191, 1192, 1193, 1194, 1195, 1196, 1197, 1198, 1199, 1200, 1201, 1202, 1203, 1204, 1205, 1206, 1207, 1208, 1209, 1210, 1211, 1212, 1213, 1214, 1215, 1216, 1217, 1218, 1219, 1220, 1221, 1222, 1223, 1224, 1225, 1226, 1227, 1228, 1229, 1230, 1231, 1232, 1233, 1234, 1235, 1236, 1237, 1238, 1239, 1240, 1241, 1242, 1243, 1244, 1245, 1246, 1247, 1248, 1249, 1250, 1251, 1252, 1253, 1254, 1255, 1256, 1257, 1258, 1259, 1260, 1261, 1262, 1263, 1264, 1265, 1266, 1267, 1268, 1269, 1270, 1271, 1272, 1273, 1274, 1275, 1276, 1277, 1278, 1279, 1280, 1281, 1282, 1283, 1284, 1285, 1286, 1287, 1288, 1289, 1290, 1291, 1292, 1293, 1294, 1295, 1296, 1297, 1298, 1299, 1300, 1301, 1302, 1303, 1304, 1305, 1306, 1307, 1308, 1309, 1310, 1311, 1312, 1313, 1314, 1315, 1316, 1317, 1318, 1319, 1320, 1321, 1322, 1323, 1324, 1325, 1326, 1327, 1328, 1329, 1330, 1331, 1332, 1333, 1334, 1335, 1336, 1337, 1338, 1339, 1340, 1341, 1342, 1343, 1344, 1345, 1346, 1347, 1348, 1349, 1350, 1351, 1352, 1353, 1354, 1355, 1356, 1357, 1358, 1359, 1360, 1361, 1362, 1363, 1364, 1365, 1366, 1367, 1368, 1369, 1370, 1371, 1372, 1373, 1374, 1375, 1376, 1377, 1378, 1379, 1380, 1381, 1382, 1383, 1384, 1385, 1386, 1387, 1388, 1389, 1390, 1391, 1392, 1393, 1394, 1395, 1396, 1397, 1398, 1399, 1400, 1401, 1402, 1403, 1404, 1405, 1406, 1407, 1408, 1409, 1410, 1411, 1412, 1413, 1414, 1415, 1416, 1417, 1418, 1419, 1420, 1421, 1422, 1423, 1424, 1425, 1426, 1427, 1428, 1429, 1430, 1431, 1432, 1433, 1434, 1435, 1436, 1437, 1438, 1439, 1440, 1441, 1442, 1443, 1444, 1445, 1446, 1447, 1448, 1449, 1450, 1451, 1452, 1453, 1454, 1455, 1456, 1457, 1458, 1459, 1460, 1461, 1462, 1463, 1464, 1465, 1466, 1467, 1468, 1469, 1470, 1471, 1472, 1473, 1474, 1475, 1476, 1477, 1478, 1479, 1480, 1481, 1482, 1483, 1484, 1485, 1486, 1487, 1488, 1489, 1490, 1491, 1492, 1493, 1494, 1495, 1496, 1497, 1498, 1499, 1500, 1501, 1502, 1503, 1504, 1505, 1506, 1507, 1508, 1509, 1510, 1511, 1512, 1513, 1514, 1515, 1516, 1517, 1518, 1519, 1520, 1521, 1522],
      "AcquisitionTime": ["163954.462500", "163955.962500", "163957.462500", "163958.962500", "164000.462500", "164001.962500", "164003.462500", "164004.962500", "164006.462500", "164007.962500", "164009.462500", "164010.962500", "164012.462500", "164013.962500", "164015.462500", "164016.962500", "164018.462500", "164019.962500", "164021.462500", "164022.962500", "164024.462500", "164025.962500", "164027.462500", "164028.962500", "164030.462500", "164031.962500", "164033.462500", "164034.962500", "164036.462500", "164037.962500", "164039.462500", "164040.962500", "164042.462500", "164043.962500", "164045.462500", "164046.962500", "164048.462500", "164049.962500", "164051.462500", "164052.962500", "164054.462500", "164055.962500", "164057.462500", "164058.962500", "164100.462500", "164101.962500", "164103.462500", "164104.962500", "164106.462500", "164107.962500", "164109.462500", "164110.962500", "164112.462500", "164113.962500", "164115.462500", "164116.962500", "164118.462500", "164119.962500", "164121.462500", "164122.962500", "164124.462500", "164125.962500", "164127.462500", "164128.962500", "164130.462500", "164131.962500", "164133.462500", "164134.962500", "164136.462500", "164137.962500", "164139.462500", "164140.962500", "164142.462500", "164143.962500", "164145.462500", "164146.962500", "164148.462500", "164149.962500", "164151.462500", "164152.962500", "164154.462500", "164155.962500", "164157.462500", "164158.962500", "164200.462500", "164201.962500", "164203.462500", "164204.962500", "164206.462500", "164207.962500", "164209.462500", "164210.962500", "164212.462500", "164213.962500", "164215.462500", "164216.962500", "164218.462500", "164219.962500", "164221.462500", "164222.962500", "164224.462500", "164225.962500", "164227.462500", "164228.962500", "164230.462500", "164231.962500", "164233.462500", "164234.962500", "164236.462500", "164237.962500", "164239.462500", "164240.962500", "164242.462500", "164243.962500", "164245.462500", "164246.962500", "164248.462500", "164249.962500", "164251.462500", "164252.962500", "164254.462500", "164255.962500", "164257.462500", "164258.962500", "164300.462500", "164301.962500", "164303.462500", "164304.962500", "164306.462500", "164307.962500", "164309.462500", "164310.962500", "164312.462500", "164313.962500", "164315.462500", "164316.962500", "164318.462500", "164319.962500", "164321.462500", "164322.962500", "164324.462500", "164325.962500", "164327.462500", "164328.962500", "164330.462500", "164331.962500", "164333.462500", "164334.962500", "164336.462500", "164337.962500", "164339.462500", "164340.962500", "164342.462500", "164343.962500", "164345.462500", "164346.962500", "164348.462500", "164349.962500", "164351.462500", "164352.962500", "164354.462500", "164355.962500", "164357.462500", "164358.962500", "164400.462500", "164401.962500", "164403.462500", "164404.962500", "164406.462500", "164407.962500", "164409.462500", "164410.962500", "164412.462500", "164413.962500", "164415.462500", "164416.962500", "164418.462500", "164419.962500", "164421.462500", "164422.962500", "164424.462500", "164425.962500", "164427.462500", "164428.962500", "164430.462500", "164431.962500", "164433.462500", "164434.962500", "164436.462500", "164437.962500", "164439.462500", "164440.962500", "164442.462500", "164443.962500", "164445.462500", "164446.962500", "164448.462500", "164449.962500", "164451.462500", "164452.962500", "164454.462500", "164455.962500", "164457.462500", "164458.962500", "164500.462500", "164501.962500", "164503.462500", "164504.962500", "164506.462500", "164507.962500", "164509.462500", "164510.962500", "164512.462500", "164513.962500", "164515.462500", "164516.962500", "164518.462500", "164519.962500", "164521.462500", "164522.962500", "164524.462500", "164525.962500", "164527.462500", "164528.962500", "164530.462500", "164531.962500", "164533.462500", "164534.962500", "164536.462500", "164537.962500", "164539.462500", "164540.962500", "164542.462500", "164543.962500", "164545.462500", "164546.962500", "164548.462500", "164549.962500", "164551.462500", "164552.962500", "164554.462500", "164555.962500", "164557.462500", "164558.962500", "164600.462500", "164601.962500", "164603.462500", "164604.962500", "164606.462500", "164607.962500", "164609.462500", "164610.962500", "164612.462500", "164613.962500", "164615.462500", "164616.962500", "164618.462500", "164619.962500", "164621.462500", "164622.962500", "164624.462500", "164625.962500", "164627.462500", "164628.962500", "164630.462500", "164631.962500", "164633.462500", "164634.962500", "164636.462500", "164637.962500", "164639.462500", "164640.962500", "164642.462500", "164643.962500", "164645.462500", "164646.962500", "164648.462500", "164649.962500", "164651.462500", "164652.962500", "164654.462500", "164655.962500", "164657.462500", "164658.962500", "164700.462500", "164701.962500", "164703.462500", "164704.962500", "164706.462500", "164707.962500", "164709.462500", "164710.962500", "164712.462500", "164713.962500", "164715.462500", "164716.962500", "164718.462500", "164719.962500", "164721.462500", "164722.962500", "164724.462500", "164725.962500", "164727.462500", "164728.962500", "164730.462500", "164731.962500", "164733.462500", "164734.962500", "164736.462500", "164737.962500", "164739.462500", "164740.962500", "164742.462500", "164743.962500", "164745.462500", "164746.962500", "164748.462500", "164749.962500", "164751.462500", "164752.962500", "164754.462500", "164755.962500", "164757.462500", "164758.962500", "164800.462500", "164801.962500", "164803.462500", "164804.962500", "164806.462500", "164807.962500", "164809.462500", "164810.962500", "164812.462500", "164813.962500", "164815.462500", "164816.962500", "164818.462500", "164819.962500", "164821.462500", "164822.962500", "164824.462500", "164825.962500", "164827.462500", "164828.962500", "164830.462500", "164831.962500", "164833.462500", "164834.962500", "164836.462500", "164837.962500", "164839.462500", "164840.962500", "164842.462500", "164843.962500", "164845.462500", "164846.962500", "164848.462500", "164849.962500", "164851.462500", "164852.962500", "164854.462500", "164855.962500", "164857.462500", "164858.962500", "164900.462500", "164901.962500", "164903.462500", "164904.962500", "164906.462500", "164907.962500", "164909.462500", "164910.962500", "164912.462500", "164913.962500", "164915.462500", "164916.962500", "164918.462500", "164919.962500", "164921.462500", "164922.962500", "164924.462500", "164925.962500", "164927.462500", "164928.962500", "164930.462500", "164931.962500", "164933.462500", "164934.962500", "164936.462500", "164937.962500", "164939.462500", "164940.962500", "164942.462500", "164943.962500", "164945.462500", "164946.962500", "164948.462500", "164949.962500", "164951.462500", "164952.962500", "164954.462500", "164955.962500", "164957.462500", "164958.962500", "165000.462500", "165001.962500", "165003.462500", "165004.962500", "165006.462500", "165007.962500", "165009.462500", "165010.962500", "165012.462500", "165013.962500", "165015.462500", "165016.962500", "165018.462500", "165019.962500", "165021.462500", "165022.962500", "165024.462500", "165025.962500", "165027.462500", "165028.962500", "165030.462500", "165031.962500", "165033.462500", "165034.962500", "165036.462500", "165037.962500", "165039.462500", "165040.962500", "165042.462500", "165043.962500", "165045.462500", "165046.962500", "165048.462500", "165049.962500", "165051.462500", "165052.962500", "165054.462500", "165055.962500", "165057.462500", "165058.962500", "165100.462500", "165101.962500", "165103.462500", "165104.962500", "165106.462500", "165107.962500", "165109.462500", "165110.962500", "165112.462500", "165113.962500", "165115.462500", "165116.962500", "165118.462500", "165119.962500", "165121.462500", "165122.962500", "165124.462500", "165125.962500", "165127.462500", "165128.962500", "165130.462500", "165131.962500", "165133.462500", "165134.962500", "165136.462500", "165137.962500", "165139.462500", "165140.962500", "165142.462500", "165143.962500", "165145.462500", "165146.962500", "165148.462500", "165149.962500", "165151.462500", "165152.962500", "165154.462500", "165155.962500", "165157.462500", "165158.962500", "165200.462500", "165201.962500", "165203.462500", "165204.962500", "165206.462500", "165207.962500", "165209.462500", "165210.962500", "165212.462500", "165213.962500", "165215.462500", "165216.962500", "165218.462500", "165219.962500", "165221.462500", "165222.962500", "165224.462500", "165225.962500", "165227.462500", "165228.962500", "165230.462500", "165231.962500", "165233.462500", "165234.962500", "165236.462500", "165237.962500", "165239.462500", "165240.962500", "165242.462500", "165243.962500", "165245.462500", "165246.962500", "165248.462500", "165249.962500", "165251.462500", "165252.962500", "165254.462500", "165255.962500", "165257.462500", "165258.962500", "165300.462500", "165301.962500", "165303.462500", "165304.962500", "165306.462500", "165307.962500", "165309.462500", "165310.962500", "165312.462500", "165313.962500", "165315.462500", "165316.962500", "165318.462500", "165319.962500", "165321.462500", "165322.962500", "165324.462500", "165325.962500", "165327.462500", "165328.962500", "165330.462500", "165331.962500", "165333.462500", "165334.962500", "165336.462500", "165337.962500", "165339.462500", "165340.962500", "165342.462500", "165343.962500", "165345.462500", "165346.962500", "165348.462500", "165349.962500", "165351.462500", "165352.962500", "165354.462500", "165355.962500", "165357.462500", "165358.962500", "165400.462500", "165401.962500", "165403.462500", "165404.962500", "165406.462500", "165407.962500", "165409.462500", "165410.962500", "165412.462500", "165413.962500", "165415.462500", "165416.962500", "165418.462500", "165419.962500", "165421.462500", "165422.962500", "165424.462500", "165425.962500", "165427.462500", "165428.962500", "165430.462500", "165431.962500", "165433.462500", "165434.962500", "165436.462500", "165437.962500", "165439.462500", "165440.962500", "165442.462500", "165443.962500", "165445.462500", "165446.962500", "165448.462500", "165449.962500", "165451.462500", "165452.962500", "165454.462500", "165455.962500", "165457.462500", "165458.962500", "165500.462500", "165501.962500", "165503.462500", "165504.962500", "165506.462500", "165507.962500", "165509.462500", "165510.962500", "165512.462500", "165513.962500", "165515.462500", "165516.962500", "165518.462500", "165519.962500", "165521.462500", "165522.962500", "165524.462500", "165525.962500", "165527.462500", "165528.962500", "165530.462500", "165531.962500", "165533.462500", "165534.962500", "165536.462500", "165537.962500", "165539.462500", "165540.962500", "165542.462500", "165543.962500", "165545.462500", "165546.962500", "165548.462500", "165549.962500", "165551.462500", "165552.962500", "165554.462500", "165555.962500", "165557.462500", "165558.962500", "165600.462500", "165601.962500", "165603.462500", "165604.962500", "165606.462500", "165607.962500", "165609.462500", "165610.962500", "165612.462500", "165613.962500", "165615.462500", "165616.962500", "165618.462500", "165619.962500", "165621.462500", "165622.962500", "165624.462500", "165625.962500", "165627.462500", "165628.962500", "165630.462500", "165631.962500", "165633.462500", "165634.962500", "165636.462500", "165637.962500", "165639.462500", "165640.962500", "165642.462500", "165643.962500", "165645.462500", "165646.962500", "165648.462500", "165649.962500", "165651.462500", "165652.962500", "165654.462500", "165655.962500", "165657.462500", "165658.962500", "165700.462500", "165701.962500", "165703.462500", "165704.962500", "165706.462500", "165707.962500", "165709.462500", "165710.962500", "165712.462500", "165713.962500", "165715.462500", "165716.962500", "165718.462500", "165719.962500", "165721.462500", "165722.962500", "165724.462500", "165725.962500", "165727.462500", "165728.962500", "165730.462500", "165731.962500", "165733.462500", "165734.962500", "165736.462500", "165737.962500", "165739.462500", "165740.962500", "165742.462500", "165743.962500", "165745.462500", "165746.962500", "165748.462500", "165749.962500", "165751.462500", "165752.962500", "165754.462500", "165755.962500", "165757.462500", "165758.962500", "165800.462500", "165801.962500", "165803.462500", "165804.962500", "165806.462500", "165807.962500", "165809.462500", "165810.962500", "165812.462500", "165813.962500", "165815.462500", "165816.962500", "165818.462500", "165819.962500", "165821.462500", "165822.962500", "165824.462500", "165825.962500", "165827.462500", "165828.962500", "165830.462500", "165831.962500", "165833.462500", "165834.962500", "165836.462500", "165837.962500", "165839.462500", "165840.962500", "165842.462500", "165843.962500", "165845.462500", "165846.962500", "165848.462500", "165849.962500", "165851.462500", "165852.962500", "165854.462500", "165855.962500", "165857.462500", "165858.962500", "165900.462500", "165901.962500", "165903.462500", "165904.962500", "165906.462500", "165907.962500", "165909.462500", "165910.962500", "165912.462500", "165913.962500", "165915.462500", "165916.962500", "165918.462500", "165919.962500", "165921.462500", "165922.962500", "165924.462500", "165925.962500", "165927.462500", "165928.962500", "165930.462500", "165931.962500", "165933.462500", "165934.962500", "165936.462500", "165937.962500", "165939.462500", "165940.962500", "165942.462500", "165943.962500", "165945.462500", "165946.962500", "165948.462500", "165949.962500", "165951.462500", "165952.962500", "165954.462500", "165955.962500", "165957.462500", "165958.962500", "170000.462500", "170001.962500", "170003.462500", "170004.962500", "170006.462500", "170007.962500", "170009.462500", "170010.962500", "170012.462500", "170013.962500", "170015.462500", "170016.962500", "170018.462500", "170019.962500", "170021.462500", "170022.962500", "170024.462500", "170025.962500", "170027.462500", "170028.962500", "170030.462500", "170031.962500", "170033.462500", "170034.962500", "170036.462500", "170037.962500", "170039.462500", "170040.962500", "170042.462500", "170043.962500", "170045.462500", "170046.962500", "170048.462500", "170049.962500", "170051.462500", "170052.962500", "170054.462500", "170055.962500", "170057.462500", "170058.962500", "170100.462500", "170101.962500", "170103.462500", "170104.962500", "170106.462500", "170107.962500", "170109.462500", "170110.962500", "170112.462500", "170113.962500", "170115.462500", "170116.962500", "170118.462500", "170119.962500", "170121.462500", "170122.962500", "170124.462500", "170125.962500", "170127.462500", "170128.962500", "170130.462500", "170131.962500", "170133.462500", "170134.962500", "170136.462500", "170137.962500", "170139.462500", "170140.962500", "170142.462500", "170143.962500", "170145.462500", "170146.962500", "170148.462500", "170149.962500", "170151.462500", "170152.962500", "170154.462500", "170155.962500", "170157.462500", "170158.962500", "170200.462500", "170201.962500", "170203.462500", "170204.962500", "170206.462500", "170207.962500", "170209.462500", "170210.962500", "170212.462500", "170213.962500", "170215.462500", "170216.962500", "170218.462500", "170219.962500", "170221.462500", "170222.962500", "170224.462500", "170225.962500", "170227.462500", "170228.962500", "170230.462500", "170231.962500", "170233.462500", "170234.962500", "170236.462500", "170237.962500", "170239.462500", "170240.962500", "170242.462500", "170243.962500", "170245.462500", "170246.962500", "170248.462500", "170249.962500", "170251.462500", "170252.962500", "170254.462500", "170255.962500", "170257.462500", "170258.962500", "170300.462500", "170301.962500", "170303.462500", "170304.962500", "170306.462500", "170307.962500", "170309.462500", "170310.962500", "170312.462500", "170313.962500", "170315.462500", "170316.962500", "170318.462500", "170319.962500", "170321.462500", "170322.962500", "170324.462500", "170325.962500", "170327.462500", "170328.962500", "170330.462500", "170331.962500", "170333.462500", "170334.962500", "170336.462500", "170337.962500", "170339.462500", "170340.962500", "170342.462500", "170343.962500", "170345.462500", "170346.962500", "170348.462500", "170349.962500", "170351.462500", "170352.962500", "170354.