{
  "AcquisitionMatrixPE": 106,
  "AcquisitionNumber": 1,
  "AcquisitionTime": "15:03:8.702500",
  "BandwidthPerPixelPhaseEncode": 16.846,
  "BaseResolution": 106,
  "BodyPartExamined": "BRAIN",
  "CoilCombinationMethod": "Sum of Squares",
  "ConsistencyInfo": "N4_VE11C_LATEST_20160120",
  "ConversionSoftware": "dcm2niix",
  "ConversionSoftwareVersion": "v1.0.20220720",
  "DerivedVendorReportedEchoSpacing": 0.000560012,
  "DeviceSerialNumber": "166108",
  "DwellTime": 1.8e-06,
  "EchoTime": 0.0352,
  "EchoTrainLength": 106,
  "EffectiveEchoSpacing": 0.000560012,
  "FlipAngle": 60,
  "HeudiconvVersion": "1.3.0",
  "ImageComments": "Unaliased MB4/PE3/LB",
  "ImageOrientationPatientDICOM": [1, 0, 0, 0, 1, 0],
  "ImageOrientationText": "Tra",
  "ImageType": [
    "ORIGINAL",
    "PRIMARY",
    "M",
    "MB",
    "ND",
    "MOSAIC"
],
  "ImagingFrequency": 123.244,
  "InPlanePhaseEncodingDirectionDICOM": "COL",
  "InstitutionAddress": "Bedford Way 26,London,London,GB,WC1H 0AP",
  "InstitutionName": "University College",
  "InstitutionalDepartmentName": "Department",
  "MRAcquisitionType": "2D",
  "MagneticFieldStrength": 3,
  "Manufacturer": "Siemens",
  "ManufacturersModelName": "Prisma",
  "MatrixCoilMode": "SENSE",
  "Modality": "MR",
  "MultibandAccelerationFactor": 4,
  "NonlinearGradientCorrection": false,
  "PartialFourier": 1,
  "PatientPosition": "HFS",
  "PercentPhaseFOV": 100,
  "PercentSampling": 100,
  "PhaseEncodingDirection": "j-",
  "PhaseEncodingSteps": 106,
  "PhaseResolution": 1,
  "PixelBandwidth": 2620,
  "ProcedureStepDescription": "Egor^MovieProject2",
  "ProtocolName": "task-backtothefuture_run-1",
  "PulseSequenceDetails": "%CustomerSeq%\\cmrr_mbep2d_bold",
  "ReceiveCoilActiveElements": "HEA;HEP",
  "ReceiveCoilName": "Head_32",
  "ReconMatrixPE": 106,
  "RepetitionTime": 1.5,
  "SAR": 0.0844602,
  "ScanOptions": "FS\\EXT",
  "ScanningSequence": "EP",
  "SequenceName": "epfid2d1_106",
  "SequenceVariant": "SK\\SS",
  "SeriesDescription": "task-backtothefuture_run-1",
  "SeriesNumber": 3,
  "ShimSetting": [-1524, 684, 7355, 198, -45, 158, 129, -39],
  "SliceThickness": 2,
  "SliceTiming": [0, 1.0675, 0.6575, 0.245, 1.315, 0.905, 0.4925, 0.0825, 1.15, 0.74, 0.3275, 1.3975, 0.985, 0.575, 0.165, 1.2325, 0.8225, 0.41, 0, 1.0675, 0.6575, 0.245, 1.315, 0.905, 0.4925, 0.0825, 1.15, 0.74, 0.3275, 1.3975, 0.985, 0.575, 0.165, 1.2325, 0.8225, 0.41, 0, 1.0675, 0.6575, 0.245, 1.315, 0.905, 0.4925, 0.0825, 1.15, 0.74, 0.3275, 1.3975, 0.985, 0.575, 0.165, 1.2325, 0.8225, 0.41, 0, 1.0675, 0.6575, 0.245, 1.315, 0.905, 0.4925, 0.0825, 1.15, 0.74, 0.3275, 1.3975, 0.985, 0.575, 0.165, 1.2325, 0.8225, 0.41],
  "SoftwareVersions": "syngo MR E11",
  "SpacingBetweenSlices": 2,
  "StationName": "AWP166108",
  "TaskName": "backtothefuture",
  "TotalReadoutTime": 0.0588013,
  "TxRefAmp": 253.389,
  "WipMemBlock": "8dfa062e-4ca0-4161-9d1a-030e28206c14||Sequence: R016 ve11c/master r/e634e98; Dec 19 2017 11:00:25 by eja",
  "dcmmeta_affine": [
    [-2.0, 0.0, 0.0, 106.0],
    [0.0, 2.0, 0.0, -92.55421447753906],
    [0.0, 0.0, 2.0, -57.14457702636719],
    [0.0, 0.0, 0.0, 1.0]
],
  "dcmmeta_reorient_transform": [
    [0.0, -1.0, 0.0, 105.0],
    [1.0, 0.0, 0.0, 0.0],
    [0.0, 0.0, 1.0, 0.0],
    [0.0, 0.0, 0.0, 1.0]
],
  "dcmmeta_shape": [106, 106, 72, 1360],
  "dcmmeta_slice_dim": 2,
  "dcmmeta_version": 0.6,
  "global": {
    "const": {
      "AcquisitionMatrix": [106, 0, 0, 106],
      "AngioFlag": "N",
      "BitsAllocated": 16,
      "BitsStored": 16,
      "BodyPartExamined": "BRAIN",
      "CardiacNumberOfImages": 1,
      "Columns": 954,
      "EchoNumbers": 1,
      "EchoTime": 35.2,
      "EchoTrainLength": 106,
      "FlipAngle": 60.0,
      "HighBit": 15,
      "ImageOrientationPatient": [1.0, 0.0, 0.0, 0.0, 1.0, 0.0],
      "ImagePositionPatient": [-954.0, -965.44578266144, -57.144577026367],
      "ImageType": [
        "ORIGINAL",
        "PRIMARY",
        "M",
        "MB",
        "ND",
        "MOSAIC"
],
      "ImagedNucleus": "1H",
      "ImagingFrequency": 123.243668,
      "InPlanePhaseEncodingDirection": "COL",
      "MRAcquisitionType": "2D",
      "MagneticFieldStrength": 3.0,
      "Manufacturer": "SIEMENS",
      "ManufacturerModelName": "Prisma",
      "Modality": "MR",
      "NominalInterval": 0,
      "NumberOfAverages": 1.0,
      "NumberOfPhaseEncodingSteps": 106,
      "PercentPhaseFieldOfView": 100.0,
      "PercentSampling": 100.0,
      "PerformedProcedureStepStartTime": "143752.132000",
      "PhotometricInterpretation": "MONOCHROME2",
      "PixelBandwidth": 2620.0,
      "PixelRepresentation": 0,
      "PixelSpacing": [2.0, 2.0],
      "ProtocolName": "task-backtothefuture_run-1",
      "RepetitionTime": 1500.0,
      "Rows": 954,
      "SAR": 0.08446023827837,
      "SamplesPerPixel": 1,
      "ScanOptions": [
        "FS",
        "EXT"
],
      "ScanningSequence": "EP",
      "SequenceName": "epfid2d1_106",
      "SequenceVariant": [
        "SK",
        "SS"
],
      "SeriesDescription": "task-backtothefuture_run-1",
      "SeriesNumber": 3,
      "SeriesTime": "150348.992000",
      "SliceLocation": -57.144577026367,
      "SliceThickness": 2.0,
      "SmallestImagePixelValue": 0,
      "SoftwareVersions": "syngo MR E11",
      "SpacingBetweenSlices": 2.0,
      "SpecificCharacterSet": "ISO_IR 100",
      "StudyID": "1",
      "StudyTime": "143752.055000",
      "TransmitCoilName": "Body",
      "VariableFlipAngleFlag": "N",
      "WindowCenterWidthExplanation": "Algo1",
      "dBdt": 0.0},
    "slices": {}
  },
  "time": {
    "samples": {
      "AcquisitionNumber": [1, 2, 3, 4, 5, 6, 7, 8, 9, 10, 11, 12, 13, 14, 15, 16, 17, 18, 19, 20, 21, 22, 23, 24, 25, 26, 27, 28, 29, 30, 31, 32, 33, 34, 35, 36, 37, 38, 39, 40, 41, 42, 43, 44, 45, 46, 47, 48, 49, 50, 51, 52, 53, 54, 55, 56, 57, 58, 59, 60, 61, 62, 63, 64, 65, 66, 67, 68, 69, 70, 71, 72, 73, 74, 75, 76, 77, 78, 79, 80, 81, 82, 83, 84, 85, 86, 87, 88, 89, 90, 91, 92, 93, 94, 95, 96, 97, 98, 99, 100, 101, 102, 103, 104, 105, 106, 107, 108, 109, 110, 111, 112, 113, 114, 115, 116, 117, 118, 119, 120, 121, 122, 123, 124, 125, 126, 127, 128, 129, 130, 131, 132, 133, 134, 135, 136, 137, 138, 139, 140, 141, 142, 143, 144, 145, 146, 147, 148, 149, 150, 151, 152, 153, 154, 155, 156, 157, 158, 159, 160, 161, 162, 163, 164, 165, 166, 167, 168, 169, 170, 171, 172, 173, 174, 175, 176, 177, 178, 179, 180, 181, 182, 183, 184, 185, 186, 187, 188, 189, 190, 191, 192, 193, 194, 195, 196, 197, 198, 199, 200, 201, 202, 203, 204, 205, 206, 207, 208, 209, 210, 211, 212, 213, 214, 215, 216, 217, 218, 219, 220, 221, 222, 223, 224, 225, 226, 227, 228, 229, 230, 231, 232, 233, 234, 235, 236, 237, 238, 239, 240, 241, 242, 243, 244, 245, 246, 247, 248, 249, 250, 251, 252, 253, 254, 255, 256, 257, 258, 259, 260, 261, 262, 263, 264, 265, 266, 267, 268, 269, 270, 271, 272, 273, 274, 275, 276, 277, 278, 279, 280, 281, 282, 283, 284, 285, 286, 287, 288, 289, 290, 291, 292, 293, 294, 295, 296, 297, 298, 299, 300, 301, 302, 303, 304, 305, 306, 307, 308, 309, 310, 311, 312, 313, 314, 315, 316, 317, 318, 319, 320, 321, 322, 323, 324, 325, 326, 327, 328, 329, 330, 331, 332, 333, 334, 335, 336, 337, 338, 339, 340, 341, 342, 343, 344, 345, 346, 347, 348, 349, 350, 351, 352, 353, 354, 355, 356, 357, 358, 359, 360, 361, 362, 363, 364, 365, 366, 367, 368, 369, 370, 371, 372, 373, 374, 375, 376, 377, 378, 379, 380, 381, 382, 383, 384, 385, 386, 387, 388, 389, 390, 391, 392, 393, 394, 395, 396, 397, 398, 399, 400, 401, 402, 403, 404, 405, 406, 407, 408, 409, 410, 411, 412, 413, 414, 415, 416, 417, 418, 419, 420, 421, 422, 423, 424, 425, 426, 427, 428, 429, 430, 431, 432, 433, 434, 435, 436, 437, 438, 439, 440, 441, 442, 443, 444, 445, 446, 447, 448, 449, 450, 451, 452, 453, 454, 455, 456, 457, 458, 459, 460, 461, 462, 463, 464, 465, 466, 467, 468, 469, 470, 471, 472, 473, 474, 475, 476, 477, 478, 479, 480, 481, 482, 483, 484, 485, 486, 487, 488, 489, 490, 491, 492, 493, 494, 495, 496, 497, 498, 499, 500, 501, 502, 503, 504, 505, 506, 507, 508, 509, 510, 511, 512, 513, 514, 515, 516, 517, 518, 519, 520, 521, 522, 523, 524, 525, 526, 527, 528, 529, 530, 531, 532, 533, 534, 535, 536, 537, 538, 539, 540, 541, 542, 543, 544, 545, 546, 547, 548, 549, 550, 551, 552, 553, 554, 555, 556, 557, 558, 559, 560, 561, 562, 563, 564, 565, 566, 567, 568, 569, 570, 571, 572, 573, 574, 575, 576, 577, 578, 579, 580, 581, 582, 583, 584, 585, 586, 587, 588, 589, 590, 591, 592, 593, 594, 595, 596, 597, 598, 599, 600, 601, 602, 603, 604, 605, 606, 607, 608, 609, 610, 611, 612, 613, 614, 615, 616, 617, 618, 619, 620, 621, 622, 623, 624, 625, 626, 627, 628, 629, 630, 631, 632, 633, 634, 635, 636, 637, 638, 639, 640, 641, 642, 643, 644, 645, 646, 647, 648, 649, 650, 651, 652, 653, 654, 655, 656, 657, 658, 659, 660, 661, 662, 663, 664, 665, 666, 667, 668, 669, 670, 671, 672, 673, 674, 675, 676, 677, 678, 679, 680, 681, 682, 683, 684, 685, 686, 687, 688, 689, 690, 691, 692, 693, 694, 695, 696, 697, 698, 699, 700, 701, 702, 703, 704, 705, 706, 707, 708, 709, 710, 711, 712, 713, 714, 715, 716, 717, 718, 719, 720, 721, 722, 723, 724, 725, 726, 727, 728, 729, 730, 731, 732, 733, 734, 735, 736, 737, 738, 739, 740, 741, 742, 743, 744, 745, 746, 747, 748, 749, 750, 751, 752, 753, 754, 755, 756, 757, 758, 759, 760, 761, 762, 763, 764, 765, 766, 767, 768, 769, 770, 771, 772, 773, 774, 775, 776, 777, 778, 779, 780, 781, 782, 783, 784, 785, 786, 787, 788, 789, 790, 791, 792, 793, 794, 795, 796, 797, 798, 799, 800, 801, 802, 803, 804, 805, 806, 807, 808, 809, 810, 811, 812, 813, 814, 815, 816, 817, 818, 819, 820, 821, 822, 823, 824, 825, 826, 827, 828, 829, 830, 831, 832, 833, 834, 835, 836, 837, 838, 839, 840, 841, 842, 843, 844, 845, 846, 847, 848, 849, 850, 851, 852, 853, 854, 855, 856, 857, 858, 859, 860, 861, 862, 863, 864, 865, 866, 867, 868, 869, 870, 871, 872, 873, 874, 875, 876, 877, 878, 879, 880, 881, 882, 883, 884, 885, 886, 887, 888, 889, 890, 891, 892, 893, 894, 895, 896, 897, 898, 899, 900, 901, 902, 903, 904, 905, 906, 907, 908, 909, 910, 911, 912, 913, 914, 915, 916, 917, 918, 919, 920, 921, 922, 923, 924, 925, 926, 927, 928, 929, 930, 931, 932, 933, 934, 935, 936, 937, 938, 939, 940, 941, 942, 943, 944, 945, 946, 947, 948, 949, 950, 951, 952, 953, 954, 955, 956, 957, 958, 959, 960, 961, 962, 963, 964, 965, 966, 967, 968, 969, 970, 971, 972, 973, 974, 975, 976, 977, 978, 979, 980, 981, 982, 983, 984, 985, 986, 987, 988, 989, 990, 991, 992, 993, 994, 995, 996, 997, 998, 999, 1000, 1001, 1002, 1003, 1004, 1005, 1006, 1007, 1008, 1009, 1010, 1011, 1012, 1013, 1014, 1015, 1016, 1017, 1018, 1019, 1020, 1021, 1022, 1023, 1024, 1025, 1026, 1027, 1028, 1029, 1030, 1031, 1032, 1033, 1034, 1035, 1036, 1037, 1038, 1039, 1040, 1041, 1042, 1043, 1044, 1045, 1046, 1047, 1048, 1049, 1050, 1051, 1052, 1053, 1054, 1055, 1056, 1057, 1058, 1059, 1060, 1061, 1062, 1063, 1064, 1065, 1066, 1067, 1068, 1069, 1070, 1071, 1072, 1073, 1074, 1075, 1076, 1077, 1078, 1079, 1080, 1081, 1082, 1083, 1084, 1085, 1086, 1087, 1088, 1089, 1090, 1091, 1092, 1093, 1094, 1095, 1096, 1097, 1098, 1099, 1100, 1101, 1102, 1103, 1104, 1105, 1106, 1107, 1108, 1109, 1110, 1111, 1112, 1113, 1114, 1115, 1116, 1117, 1118, 1119, 1120, 1121, 1122, 1123, 1124, 1125, 1126, 1127, 1128, 1129, 1130, 1131, 1132, 1133, 1134, 1135, 1136, 1137, 1138, 1139, 1140, 1141, 1142, 1143, 1144, 1145, 1146, 1147, 1148, 1149, 1150, 1151, 1152, 1153, 1154, 1155, 1156, 1157, 1158, 1159, 1160, 1161, 1162, 1163, 1164, 1165, 1166, 1167, 1168, 1169, 1170, 1171, 1172, 1173, 1174, 1175, 1176, 1177, 1178, 1179, 1180, 1181, 1182, 1183, 1184, 1185, 1186, 1187, 1188, 1189, 1190, 1191, 1192, 1193, 1194, 1195, 1196, 1197, 1198, 1199, 1200, 1201, 1202, 1203, 1204, 1205, 1206, 1207, 1208, 1209, 1210, 1211, 1212, 1213, 1214, 1215, 1216, 1217, 1218, 1219, 1220, 1221, 1222, 1223, 1224, 1225, 1226, 1227, 1228, 1229, 1230, 1231, 1232, 1233, 1234, 1235, 1236, 1237, 1238, 1239, 1240, 1241, 1242, 1243, 1244, 1245, 1246, 1247, 1248, 1249, 1250, 1251, 1252, 1253, 1254, 1255, 1256, 1257, 1258, 1259, 1260, 1261, 1262, 1263, 1264, 1265, 1266, 1267, 1268, 1269, 1270, 1271, 1272, 1273, 1274, 1275, 1276, 1277, 1278, 1279, 1280, 1281, 1282, 1283, 1284, 1285, 1286, 1287, 1288, 1289, 1290, 1291, 1292, 1293, 1294, 1295, 1296, 1297, 1298, 1299, 1300, 1301, 1302, 1303, 1304, 1305, 1306, 1307, 1308, 1309, 1310, 1311, 1312, 1313, 1314, 1315, 1316, 1317, 1318, 1319, 1320, 1321, 1322, 1323, 1324, 1325, 1326, 1327, 1328, 1329, 1330, 1331, 1332, 1333, 1334, 1335, 1336, 1337, 1338, 1339, 1340, 1341, 1342, 1343, 1344, 1345, 1346, 1347, 1348, 1349, 1350, 1351, 1352, 1353, 1354, 1355, 1356, 1357, 1358, 1359, 1360],
      "AcquisitionTime": ["150308.702500", "150310.202500", "150311.702500", "150313.202500", "150314.702500", "150316.202500", "150317.702500", "150319.202500", "150320.702500", "150322.202500", "150323.702500", "150325.202500", "150326.702500", "150328.202500", "150329.702500", "150331.202500", "150332.702500", "150334.202500", "150335.702500", "150337.202500", "150338.702500", "150340.202500", "150341.702500", "150343.202500", "150344.702500", "150346.202500", "150347.702500", "150349.202500", "150350.702500", "150352.202500", "150353.702500", "150355.202500", "150356.702500", "150358.202500", "150359.702500", "150401.202500", "150402.702500", "150404.202500", "150405.702500", "150407.202500", "150408.702500", "150410.202500", "150411.702500", "150413.202500", "150414.702500", "150416.202500", "150417.702500", "150419.202500", "150420.702500", "150422.202500", "150423.702500", "150425.202500", "150426.702500", "150428.202500", "150429.702500", "150431.202500", "150432.702500", "150434.202500", "150435.702500", "150437.202500", "150438.702500", "150440.202500", "150441.702500", "150443.202500", "150444.702500", "150446.202500", "150447.702500", "150449.202500", "150450.702500", "150452.202500", "150453.702500", "150455.202500", "150456.702500", "150458.202500", "150459.702500", "150501.202500", "150502.702500", "150504.202500", "150505.702500", "150507.202500", "150508.702500", "150510.202500", "150511.702500", "150513.202500", "150514.702500", "150516.202500", "150517.702500", "150519.202500", "150520.702500", "150522.202500", "150523.702500", "150525.202500", "150526.702500", "150528.202500", "150529.702500", "150531.202500", "150532.702500", "150534.202500", "150535.702500", "150537.202500", "150538.702500", "150540.202500", "150541.702500", "150543.202500", "150544.702500", "150546.202500", "150547.702500", "150549.202500", "150550.702500", "150552.202500", "150553.702500", "150555.202500", "150556.702500", "150558.202500", "150559.702500", "150601.202500", "150602.702500", "150604.202500", "150605.702500", "150607.202500", "150608.702500", "150610.202500", "150611.702500", "150613.202500", "150614.702500", "150616.202500", "150617.702500", "150619.202500", "150620.702500", "150622.202500", "150623.702500", "150625.202500", "150626.702500", "150628.202500", "150629.702500", "150631.202500", "150632.702500", "150634.202500", "150635.702500", "150637.202500", "150638.702500", "150640.202500", "150641.702500", "150643.202500", "150644.702500", "150646.202500", "150647.702500", "150649.202500", "150650.702500", "150652.202500", "150653.702500", "150655.202500", "150656.702500", "150658.202500", "150659.702500", "150701.202500", "150702.702500", "150704.202500", "150705.702500", "150707.202500", "150708.702500", "150710.202500", "150711.702500", "150713.202500", "150714.702500", "150716.202500", "150717.702500", "150719.202500", "150720.702500", "150722.202500", "150723.702500", "150725.202500", "150726.702500", "150728.202500", "150729.702500", "150731.202500", "150732.702500", "150734.202500", "150735.702500", "150737.202500", "150738.702500", "150740.202500", "150741.702500", "150743.202500", "150744.702500", "150746.202500", "150747.702500", "150749.202500", "150750.702500", "150752.202500", "150753.702500", "150755.202500", "150756.702500", "150758.202500", "150759.702500", "150801.202500", "150802.702500", "150804.202500", "150805.702500", "150807.202500", "150808.702500", "150810.202500", "150811.702500", "150813.202500", "150814.702500", "150816.202500", "150817.702500", "150819.202500", "150820.702500", "150822.202500", "150823.702500", "150825.202500", "150826.702500", "150828.202500", "150829.702500", "150831.202500", "150832.702500", "150834.202500", "150835.702500", "150837.202500", "150838.702500", "150840.202500", "150841.702500", "150843.202500", "150844.702500", "150846.202500", "150847.702500", "150849.202500", "150850.702500", "150852.202500", "150853.702500", "150855.202500", "150856.702500", "150858.202500", "150859.702500", "150901.202500", "150902.702500", "150904.202500", "150905.702500", "150907.202500", "150908.702500", "150910.202500", "150911.702500", "150913.202500", "150914.702500", "150916.202500", "150917.702500", "150919.202500", "150920.702500", "150922.202500", "150923.702500", "150925.202500", "150926.702500", "150928.202500", "150929.702500", "150931.202500", "150932.702500", "150934.202500", "150935.702500", "150937.202500", "150938.702500", "150940.202500", "150941.702500", "150943.202500", "150944.702500", "150946.202500", "150947.702500", "150949.202500", "150950.702500", "150952.202500", "150953.702500", "150955.202500", "150956.702500", "150958.202500", "150959.702500", "151001.202500", "151002.702500", "151004.202500", "151005.702500", "151007.202500", "151008.702500", "151010.202500", "151011.702500", "151013.202500", "151014.702500", "151016.202500", "151017.702500", "151019.202500", "151020.702500", "151022.202500", "151023.702500", "151025.202500", "151026.702500", "151028.202500", "151029.702500", "151031.202500", "151032.702500", "151034.202500", "151035.702500", "151037.202500", "151038.702500", "151040.202500", "151041.702500", "151043.202500", "151044.702500", "151046.202500", "151047.702500", "151049.202500", "151050.702500", "151052.202500", "151053.702500", "151055.202500", "151056.702500", "151058.202500", "151059.702500", "151101.202500", "151102.702500", "151104.202500", "151105.702500", "151107.202500", "151108.702500", "151110.202500", "151111.702500", "151113.202500", "151114.702500", "151116.202500", "151117.702500", "151119.202500", "151120.702500", "151122.202500", "151123.702500", "151125.202500", "151126.702500", "151128.202500", "151129.702500", "151131.202500", "151132.702500", "151134.202500", "151135.702500", "151137.202500", "151138.702500", "151140.202500", "151141.702500", "151143.202500", "151144.702500", "151146.202500", "151147.702500", "151149.202500", "151150.702500", "151152.202500", "151153.702500", "151155.202500", "151156.702500", "151158.202500", "151159.702500", "151201.202500", "151202.702500", "151204.202500", "151205.702500", "151207.202500", "151208.702500", "151210.202500", "151211.702500", "151213.202500", "151214.702500", "151216.202500", "151217.702500", "151219.202500", "151220.702500", "151222.202500", "151223.702500", "151225.202500", "151226.702500", "151228.202500", "151229.702500", "151231.202500", "151232.702500", "151234.202500", "151235.702500", "151237.202500", "151238.702500", "151240.202500", "151241.702500", "151243.202500", "151244.702500", "151246.202500", "151247.702500", "151249.202500", "151250.702500", "151252.202500", "151253.702500", "151255.202500", "151256.702500", "151258.202500", "151259.702500", "151301.202500", "151302.702500", "151304.202500", "151305.702500", "151307.202500", "151308.702500", "151310.202500", "151311.702500", "151313.202500", "151314.702500", "151316.202500", "151317.702500", "151319.202500", "151320.702500", "151322.202500", "151323.702500", "151325.202500", "151326.702500", "151328.202500", "151329.702500", "151331.202500", "151332.702500", "151334.202500", "151335.702500", "151337.202500", "151338.702500", "151340.202500", "151341.702500", "151343.202500", "151344.702500", "151346.202500", "151347.702500", "151349.202500", "151350.702500", "151352.202500", "151353.702500", "151355.202500", "151356.702500", "151358.202500", "151359.702500", "151401.202500", "151402.702500", "151404.202500", "151405.702500", "151407.202500", "151408.702500", "151410.202500", "151411.702500", "151413.202500", "151414.702500", "151416.202500", "151417.702500", "151419.202500", "151420.702500", "151422.202500", "151423.702500", "151425.202500", "151426.702500", "151428.202500", "151429.702500", "151431.202500", "151432.702500", "151434.202500", "151435.702500", "151437.202500", "151438.702500", "151440.202500", "151441.702500", "151443.202500", "151444.702500", "151446.202500", "151447.702500", "151449.202500", "151450.702500", "151452.202500", "151453.702500", "151455.202500", "151456.702500", "151458.202500", "151459.702500", "151501.202500", "151502.702500", "151504.202500", "151505.702500", "151507.202500", "151508.702500", "151510.202500", "151511.702500", "151513.202500", "151514.702500", "151516.202500", "151517.702500", "151519.202500", "151520.702500", "151522.202500", "151523.702500", "151525.202500", "151526.702500", "151528.202500", "151529.702500", "151531.202500", "151532.702500", "151534.202500", "151535.702500", "151537.202500", "151538.702500", "151540.202500", "151541.702500", "151543.202500", "151544.702500", "151546.202500", "151547.702500", "151549.202500", "151550.702500", "151552.202500", "151553.702500", "151555.202500", "151556.702500", "151558.202500", "151559.702500", "151601.202500", "151602.702500", "151604.202500", "151605.702500", "151607.202500", "151608.702500", "151610.202500", "151611.702500", "151613.202500", "151614.702500", "151616.202500", "151617.702500", "151619.202500", "151620.702500", "151622.202500", "151623.702500", "151625.202500", "151626.702500", "151628.202500", "151629.702500", "151631.202500", "151632.702500", "151634.202500", "151635.702500", "151637.202500", "151638.702500", "151640.202500", "151641.702500", "151643.202500", "151644.702500", "151646.202500", "151647.702500", "151649.202500", "151650.702500", "151652.202500", "151653.702500", "151655.202500", "151656.702500", "151658.202500", "151659.702500", "151701.202500", "151702.702500", "151704.202500", "151705.702500", "151707.202500", "151708.702500", "151710.202500", "151711.702500", "151713.202500", "151714.702500", "151716.202500", "151717.702500", "151719.202500", "151720.702500", "151722.202500", "151723.702500", "151725.202500", "151726.702500", "151728.202500", "151729.702500", "151731.202500", "151732.702500", "151734.202500", "151735.702500", "151737.202500", "151738.702500", "151740.202500", "151741.702500", "151743.202500", "151744.702500", "151746.202500", "151747.702500", "151749.202500", "151750.702500", "151752.202500", "151753.702500", "151755.202500", "151756.702500", "151758.202500", "151759.702500", "151801.202500", "151802.702500", "151804.202500", "151805.702500", "151807.202500", "151808.702500", "151810.202500", "151811.702500", "151813.202500", "151814.702500", "151816.202500", "151817.702500", "151819.202500", "151820.702500", "151822.202500", "151823.702500", "151825.202500", "151826.702500", "151828.202500", "151829.702500", "151831.202500", "151832.702500", "151834.202500", "151835.702500", "151837.202500", "151838.702500", "151840.202500", "151841.702500", "151843.202500", "151844.702500", "151846.202500", "151847.702500", "151849.202500", "151850.702500", "151852.202500", "151853.702500", "151855.202500", "151856.702500", "151858.202500", "151859.702500", "151901.202500", "151902.702500", "151904.202500", "151905.702500", "151907.202500", "151908.702500", "151910.202500", "151911.702500", "151913.202500", "151914.702500", "151916.202500", "151917.702500", "151919.202500", "151920.702500", "151922.202500", "151923.702500", "151925.202500", "151926.702500", "151928.202500", "151929.702500", "151931.202500", "151932.702500", "151934.202500", "151935.702500", "151937.202500", "151938.702500", "151940.202500", "151941.702500", "151943.202500", "151944.702500", "151946.202500", "151947.702500", "151949.202500", "151950.702500", "151952.202500", "151953.702500", "151955.202500", "151956.702500", "151958.202500", "151959.702500", "152001.202500", "152002.702500", "152004.202500", "152005.702500", "152007.202500", "152008.702500", "152010.202500", "152011.702500", "152013.202500", "152014.702500", "152016.202500", "152017.702500", "152019.202500", "152020.702500", "152022.202500", "152023.702500", "152025.202500", "152026.702500", "152028.202500", "152029.702500", "152031.202500", "152032.702500", "152034.202500", "152035.702500", "152037.202500", "152038.702500", "152040.202500", "152041.702500", "152043.202500", "152044.702500", "152046.202500", "152047.702500", "152049.202500", "152050.702500", "152052.202500", "152053.702500", "152055.202500", "152056.702500", "152058.202500", "152059.702500", "152101.202500", "152102.702500", "152104.202500", "152105.702500", "152107.202500", "152108.702500", "152110.202500", "152111.702500", "152113.202500", "152114.702500", "152116.202500", "152117.702500", "152119.202500", "152120.702500", "152122.202500", "152123.702500", "152125.202500", "152126.702500", "152128.202500", "152129.702500", "152131.202500", "152132.702500", "152134.202500", "152135.702500", "152137.202500", "152138.702500", "152140.202500", "152141.702500", "152143.202500", "152144.702500", "152146.202500", "152147.702500", "152149.202500", "152150.702500", "152152.202500", "152153.702500", "152155.202500", "152156.702500", "152158.202500", "152159.702500", "152201.202500", "152202.702500", "152204.202500", "152205.702500", "152207.202500", "152208.702500", "152210.202500", "152211.702500", "152213.202500", "152214.702500", "152216.202500", "152217.702500", "152219.202500", "152220.702500", "152222.202500", "152223.702500", "152225.202500", "152226.702500", "152228.202500", "152229.702500", "152231.202500", "152232.702500", "152234.202500", "152235.702500", "152237.202500", "152238.702500", "152240.202500", "152241.702500", "152243.202500", "152244.702500", "152246.202500", "152247.702500", "152249.202500", "152250.702500", "152252.202500", "152253.702500", "152255.202500", "152256.702500", "152258.202500", "152259.702500", "152301.202500", "152302.702500", "152304.202500", "152305.702500", "152307.202500", "152308.702500", "152310.202500", "152311.702500", "152313.202500", "152314.702500", "152316.202500", "152317.702500", "152319.202500", "152320.702500", "152322.202500", "152323.702500", "152325.202500", "152326.702500", "152328.202500", "152329.702500", "152331.202500", "152332.702500", "152334.202500", "152335.702500", "152337.202500", "152338.702500", "152340.202500", "152341.702500", "152343.202500", "152344.702500", "152346.202500", "152347.702500", "152349.202500", "152350.702500", "152352.202500", "152353.702500", "152355.202500", "152356.702500", "152358.202500", "152359.702500", "152401.202500", "152402.702500", "152404.202500", "152405.702500", "152407.202500", "152408.702500", "152410.202500", "152411.702500", "152413.202500", "152414.702500", "152416.202500", "152417.702500", "152419.202500", "152420.702500", "152422.202500", "152423.702500", "152425.202500", "152426.702500", "152428.202500", "152429.702500", "152431.202500", "152432.702500", "152434.202500", "152435.702500", "152437.202500", "152438.702500", "152440.202500", "152441.702500", "152443.202500", "152444.702500", "152446.202500", "152447.702500", "152449.202500", "152450.702500", "152452.202500", "152453.702500", "152455.202500", "152456.702500", "152458.202500", "152459.702500", "152501.202500", "152502.702500", "152504.202500", "152505.702500", "152507.202500", "152508.702500", "152510.202500", "152511.702500", "152513.202500", "152514.702500", "152516.202500", "152517.702500", "152519.202500", "152520.702500", "152522.202500", "152523.702500", "152525.202500", "152526.702500", "152528.202500", "152529.702500", "152531.202500", "152532.702500", "152534.202500", "152535.702500", "152537.202500", "152538.702500", "152540.202500", "152541.702500", "152543.202500", "152544.702500", "152546.202500", "152547.702500", "152549.202500", "152550.702500", "152552.202500", "152553.702500", "152555.202500", "152556.702500", "152558.202500", "152559.702500", "152601.202500", "152602.702500", "152604.202500", "152605.702500", "152607.202500", "152608.702500", "152610.202500", "152611.702500", "152613.202500", "152614.702500", "152616.202500", "152617.702500", "152619.202500", "152620.702500", "152622.202500", "152623.702500", "152625.202500", "152626.702500", "152628.202500", "152629.702500", "152631.202500", "152632.702500", "152634.202500", "152635.702500", "152637.202500", "152638.702500", "152640.202500", "152641.702500", "152643.202500", "152644.702500", "152646.202500", "152647.702500", "152649.202500", "152650.702500", "152652.202500", "152653.702500", "152655.202500", "152656.702500", "152658.202500", "152659.702500", "152701.202500", "152702.702500", "152704.202500", "152705.702500", "152707.202500", "152708.702500", "152710.202500", "152711.702500", "152713.202500", "152714.702500", "152716.202500", "152717.702500", "152719.202500", "152720.702500", "152722.202500", "152723.702500", "152725.202500", "152726.702500", "152728.202500", "152729.702500", "152731.202500", "152732.702500", "152734.202500", "152735.702500", "152737.202500", "152738.702500", "152740.202500", "152741.702500", "152743.202500", "152744.702500", "152746.202500", "152747.702500", "152749.202500", "152750.702500", "152752.202500", "152753.702500", "152755.202500", "152756.702500", "152758.202500", "152759.702500", "152801.202500", "152802.702500", "152804.202500", "152805.702500", "152807.202500", "152808.702500", "152810.202500", "152811.702500", "152813.202500", "152814.702500", "152816.202500", "152817.702500", "152819.202500", "152820.702500", "152822.202500", "152823.702500", "152825.202500", "152826.702500", "152828.202500", "152829.702500", "152831.202500", "152832.702500", "152834.202500", "15