{
  "AcquisitionMatrixPE": 106,
  "AcquisitionNumber": 1,
  "AcquisitionTime": "12:31:4.225000",
  "BandwidthPerPixelPhaseEncode": 16.846,
  "BaseResolution": 106,
  "BodyPartExamined": "BRAIN",
  "CoilCombinationMethod": "Sum of Squares",
  "ConsistencyInfo": "N4_VE11C_LATEST_20160120",
  "ConversionSoftware": "dcm2niix",
  "ConversionSoftwareVersion": "v1.0.20220720",
  "DerivedVendorReportedEchoSpacing": 0.000560012,
  "DeviceSerialNumber": "166108",
  "DwellTime": 1.8e-06,
  "EchoTime": 0.0352,
  "EchoTrainLength": 106,
  "EffectiveEchoSpacing": 0.000560012,
  "FlipAngle": 60,
  "HeudiconvVersion": "1.3.0",
  "ImageComments": "Unaliased MB4/PE3/LB",
  "ImageOrientationPatientDICOM": [1, 0, 0, 0, 1, 0],
  "ImageOrientationText": "Tra",
  "ImageType": [
    "ORIGINAL",
    "PRIMARY",
    "M",
    "MB",
    "ND",
    "MOSAIC"
],
  "ImagingFrequency": 123.244,
  "InPlanePhaseEncodingDirectionDICOM": "COL",
  "InstitutionAddress": "Bedford Way 26,London,London,GB,WC1H 0AP",
  "InstitutionName": "University College",
  "InstitutionalDepartmentName": "Department",
  "MRAcquisitionType": "2D",
  "MagneticFieldStrength": 3,
  "Manufacturer": "Siemens",
  "ManufacturersModelName": "Prisma",
  "MatrixCoilMode": "SENSE",
  "Modality": "MR",
  "MultibandAccelerationFactor": 4,
  "NonlinearGradientCorrection": false,
  "PartialFourier": 1,
  "PatientPosition": "HFS",
  "PercentPhaseFOV": 100,
  "PercentSampling": 100,
  "PhaseEncodingDirection": "j-",
  "PhaseEncodingSteps": 106,
  "PhaseResolution": 1,
  "PixelBandwidth": 2620,
  "ProcedureStepDescription": "Egor^MovieProject2",
  "ProtocolName": "task-backtothefuture_run-2",
  "PulseSequenceDetails": "%CustomerSeq%\\cmrr_mbep2d_bold",
  "ReceiveCoilActiveElements": "HEA;HEP",
  "ReceiveCoilName": "Head_32",
  "ReconMatrixPE": 106,
  "RepetitionTime": 1.5,
  "SAR": 0.0759623,
  "ScanOptions": "FS\\EXT",
  "ScanningSequence": "EP",
  "SequenceName": "epfid2d1_106",
  "SequenceVariant": "SK\\SS",
  "SeriesDescription": "task-backtothefuture_run-2",
  "SeriesNumber": 7,
  "ShimSetting": [-1486, 601, 7414, 128, 9, 50, 166, -127],
  "SliceThickness": 2,
  "SliceTiming": [0, 1.07, 0.6575, 0.2475, 1.315, 0.905, 0.495, 0.0825, 1.1525, 0.74, 0.33, 1.3975, 0.9875, 0.575, 0.165, 1.235, 0.8225, 0.4125, 0, 1.07, 0.6575, 0.2475, 1.315, 0.905, 0.495, 0.0825, 1.1525, 0.74, 0.33, 1.3975, 0.9875, 0.575, 0.165, 1.235, 0.8225, 0.4125, 0, 1.07, 0.6575, 0.2475, 1.315, 0.905, 0.495, 0.0825, 1.1525, 0.74, 0.33, 1.3975, 0.9875, 0.575, 0.165, 1.235, 0.8225, 0.4125, 0, 1.07, 0.6575, 0.2475, 1.315, 0.905, 0.495, 0.0825, 1.1525, 0.74, 0.33, 1.3975, 0.9875, 0.575, 0.165, 1.235, 0.8225, 0.4125],
  "SoftwareVersions": "syngo MR E11",
  "SpacingBetweenSlices": 2,
  "StationName": "AWP166108",
  "TaskName": "backtothefuture",
  "TotalReadoutTime": 0.0588013,
  "TxRefAmp": 233.311,
  "WipMemBlock": "5bf6a018-4086-4bcc-bd4e-edc8943f2a5f||Sequence: R016 ve11c/master r/e634e98; Dec 19 2017 11:00:25 by eja",
  "dcmmeta_affine": [
    [-2.0, 0.0, 0.0, 106.0],
    [0.0, 2.0, 0.0, -92.55421447753906],
    [0.0, 0.0, 2.0, -62.56626510620117],
    [0.0, 0.0, 0.0, 1.0]
],
  "dcmmeta_reorient_transform": [
    [0.0, -1.0, 0.0, 105.0],
    [1.0, 0.0, 0.0, 0.0],
    [0.0, 0.0, 1.0, 0.0],
    [0.0, 0.0, 0.0, 1.0]
],
  "dcmmeta_shape": [106, 106, 72, 1522],
  "dcmmeta_slice_dim": 2,
  "dcmmeta_version": 0.6,
  "global": {
    "const": {
      "AcquisitionMatrix": [106, 0, 0, 106],
      "AngioFlag": "N",
      "BitsAllocated": 16,
      "BitsStored": 16,
      "BodyPartExamined": "BRAIN",
      "CardiacNumberOfImages": 1,
      "Columns": 954,
      "EchoNumbers": 1,
      "EchoTime": 35.2,
      "EchoTrainLength": 106,
      "FlipAngle": 60.0,
      "HighBit": 15,
      "ImageOrientationPatient": [1.0, 0.0, 0.0, 0.0, 1.0, 0.0],
      "ImagePositionPatient": [-954.0, -965.44578266144, -62.566265106201],
      "ImageType": [
        "ORIGINAL",
        "PRIMARY",
        "M",
        "MB",
        "ND",
        "MOSAIC"
],
      "ImagedNucleus": "1H",
      "ImagingFrequency": 123.243647,
      "InPlanePhaseEncodingDirection": "COL",
      "MRAcquisitionType": "2D",
      "MagneticFieldStrength": 3.0,
      "Manufacturer": "SIEMENS",
      "ManufacturerModelName": "Prisma",
      "Modality": "MR",
      "NominalInterval": 0,
      "NumberOfAverages": 1.0,
      "NumberOfPhaseEncodingSteps": 106,
      "PercentPhaseFieldOfView": 100.0,
      "PercentSampling": 100.0,
      "PerformedProcedureStepStartTime": "112307.080000",
      "PhotometricInterpretation": "MONOCHROME2",
      "PixelBandwidth": 2620.0,
      "PixelRepresentation": 0,
      "PixelSpacing": [2.0, 2.0],
      "ProtocolName": "task-backtothefuture_run-2",
      "RepetitionTime": 1500.0,
      "Rows": 954,
      "SAR": 0.07596227624456,
      "SamplesPerPixel": 1,
      "ScanOptions": [
        "FS",
        "EXT"
],
      "ScanningSequence": "EP",
      "SequenceName": "epfid2d1_106",
      "SequenceVariant": [
        "SK",
        "SS"
],
      "SeriesDescription": "task-backtothefuture_run-2",
      "SeriesNumber": 7,
      "SeriesTime": "123145.379000",
      "SliceLocation": -62.566265106201,
      "SliceThickness": 2.0,
      "SmallestImagePixelValue": 0,
      "SoftwareVersions": "syngo MR E11",
      "SpacingBetweenSlices": 2.0000000537281,
      "SpecificCharacterSet": "ISO_IR 100",
      "StudyID": "1",
      "StudyTime": "112307.031000",
      "TransmitCoilName": "Body",
      "VariableFlipAngleFlag": "N",
      "WindowCenterWidthExplanation": "Algo1",
      "dBdt": 0.0},
    "slices": {}
  },
  "time": {
    "samples": {
      "AcquisitionNumber": [1, 2, 3, 4, 5, 6, 7, 8, 9, 10, 11, 12, 13, 14, 15, 16, 17, 18, 19, 20, 21, 22, 23, 24, 25, 26, 27, 28, 29, 30, 31, 32, 33, 34, 35, 36, 37, 38, 39, 40, 41, 42, 43, 44, 45, 46, 47, 48, 49, 50, 51, 52, 53, 54, 55, 56, 57, 58, 59, 60, 61, 62, 63, 64, 65, 66, 67, 68, 69, 70, 71, 72, 73, 74, 75, 76, 77, 78, 79, 80, 81, 82, 83, 84, 85, 86, 87, 88, 89, 90, 91, 92, 93, 94, 95, 96, 97, 98, 99, 100, 101, 102, 103, 104, 105, 106, 107, 108, 109, 110, 111, 112, 113, 114, 115, 116, 117, 118, 119, 120, 121, 122, 123, 124, 125, 126, 127, 128, 129, 130, 131, 132, 133, 134, 135, 136, 137, 138, 139, 140, 141, 142, 143, 144, 145, 146, 147, 148, 149, 150, 151, 152, 153, 154, 155, 156, 157, 158, 159, 160, 161, 162, 163, 164, 165, 166, 167, 168, 169, 170, 171, 172, 173, 174, 175, 176, 177, 178, 179, 180, 181, 182, 183, 184, 185, 186, 187, 188, 189, 190, 191, 192, 193, 194, 195, 196, 197, 198, 199, 200, 201, 202, 203, 204, 205, 206, 207, 208, 209, 210, 211, 212, 213, 214, 215, 216, 217, 218, 219, 220, 221, 222, 223, 224, 225, 226, 227, 228, 229, 230, 231, 232, 233, 234, 235, 236, 237, 238, 239, 240, 241, 242, 243, 244, 245, 246, 247, 248, 249, 250, 251, 252, 253, 254, 255, 256, 257, 258, 259, 260, 261, 262, 263, 264, 265, 266, 267, 268, 269, 270, 271, 272, 273, 274, 275, 276, 277, 278, 279, 280, 281, 282, 283, 284, 285, 286, 287, 288, 289, 290, 291, 292, 293, 294, 295, 296, 297, 298, 299, 300, 301, 302, 303, 304, 305, 306, 307, 308, 309, 310, 311, 312, 313, 314, 315, 316, 317, 318, 319, 320, 321, 322, 323, 324, 325, 326, 327, 328, 329, 330, 331, 332, 333, 334, 335, 336, 337, 338, 339, 340, 341, 342, 343, 344, 345, 346, 347, 348, 349, 350, 351, 352, 353, 354, 355, 356, 357, 358, 359, 360, 361, 362, 363, 364, 365, 366, 367, 368, 369, 370, 371, 372, 373, 374, 375, 376, 377, 378, 379, 380, 381, 382, 383, 384, 385, 386, 387, 388, 389, 390, 391, 392, 393, 394, 395, 396, 397, 398, 399, 400, 401, 402, 403, 404, 405, 406, 407, 408, 409, 410, 411, 412, 413, 414, 415, 416, 417, 418, 419, 420, 421, 422, 423, 424, 425, 426, 427, 428, 429, 430, 431, 432, 433, 434, 435, 436, 437, 438, 439, 440, 441, 442, 443, 444, 445, 446, 447, 448, 449, 450, 451, 452, 453, 454, 455, 456, 457, 458, 459, 460, 461, 462, 463, 464, 465, 466, 467, 468, 469, 470, 471, 472, 473, 474, 475, 476, 477, 478, 479, 480, 481, 482, 483, 484, 485, 486, 487, 488, 489, 490, 491, 492, 493, 494, 495, 496, 497, 498, 499, 500, 501, 502, 503, 504, 505, 506, 507, 508, 509, 510, 511, 512, 513, 514, 515, 516, 517, 518, 519, 520, 521, 522, 523, 524, 525, 526, 527, 528, 529, 530, 531, 532, 533, 534, 535, 536, 537, 538, 539, 540, 541, 542, 543, 544, 545, 546, 547, 548, 549, 550, 551, 552, 553, 554, 555, 556, 557, 558, 559, 560, 561, 562, 563, 564, 565, 566, 567, 568, 569, 570, 571, 572, 573, 574, 575, 576, 577, 578, 579, 580, 581, 582, 583, 584, 585, 586, 587, 588, 589, 590, 591, 592, 593, 594, 595, 596, 597, 598, 599, 600, 601, 602, 603, 604, 605, 606, 607, 608, 609, 610, 611, 612, 613, 614, 615, 616, 617, 618, 619, 620, 621, 622, 623, 624, 625, 626, 627, 628, 629, 630, 631, 632, 633, 634, 635, 636, 637, 638, 639, 640, 641, 642, 643, 644, 645, 646, 647, 648, 649, 650, 651, 652, 653, 654, 655, 656, 657, 658, 659, 660, 661, 662, 663, 664, 665, 666, 667, 668, 669, 670, 671, 672, 673, 674, 675, 676, 677, 678, 679, 680, 681, 682, 683, 684, 685, 686, 687, 688, 689, 690, 691, 692, 693, 694, 695, 696, 697, 698, 699, 700, 701, 702, 703, 704, 705, 706, 707, 708, 709, 710, 711, 712, 713, 714, 715, 716, 717, 718, 719, 720, 721, 722, 723, 724, 725, 726, 727, 728, 729, 730, 731, 732, 733, 734, 735, 736, 737, 738, 739, 740, 741, 742, 743, 744, 745, 746, 747, 748, 749, 750, 751, 752, 753, 754, 755, 756, 757, 758, 759, 760, 761, 762, 763, 764, 765, 766, 767, 768, 769, 770, 771, 772, 773, 774, 775, 776, 777, 778, 779, 780, 781, 782, 783, 784, 785, 786, 787, 788, 789, 790, 791, 792, 793, 794, 795, 796, 797, 798, 799, 800, 801, 802, 803, 804, 805, 806, 807, 808, 809, 810, 811, 812, 813, 814, 815, 816, 817, 818, 819, 820, 821, 822, 823, 824, 825, 826, 827, 828, 829, 830, 831, 832, 833, 834, 835, 836, 837, 838, 839, 840, 841, 842, 843, 844, 845, 846, 847, 848, 849, 850, 851, 852, 853, 854, 855, 856, 857, 858, 859, 860, 861, 862, 863, 864, 865, 866, 867, 868, 869, 870, 871, 872, 873, 874, 875, 876, 877, 878, 879, 880, 881, 882, 883, 884, 885, 886, 887, 888, 889, 890, 891, 892, 893, 894, 895, 896, 897, 898, 899, 900, 901, 902, 903, 904, 905, 906, 907, 908, 909, 910, 911, 912, 913, 914, 915, 916, 917, 918, 919, 920, 921, 922, 923, 924, 925, 926, 927, 928, 929, 930, 931, 932, 933, 934, 935, 936, 937, 938, 939, 940, 941, 942, 943, 944, 945, 946, 947, 948, 949, 950, 951, 952, 953, 954, 955, 956, 957, 958, 959, 960, 961, 962, 963, 964, 965, 966, 967, 968, 969, 970, 971, 972, 973, 974, 975, 976, 977, 978, 979, 980, 981, 982, 983, 984, 985, 986, 987, 988, 989, 990, 991, 992, 993, 994, 995, 996, 997, 998, 999, 1000, 1001, 1002, 1003, 1004, 1005, 1006, 1007, 1008, 1009, 1010, 1011, 1012, 1013, 1014, 1015, 1016, 1017, 1018, 1019, 1020, 1021, 1022, 1023, 1024, 1025, 1026, 1027, 1028, 1029, 1030, 1031, 1032, 1033, 1034, 1035, 1036, 1037, 1038, 1039, 1040, 1041, 1042, 1043, 1044, 1045, 1046, 1047, 1048, 1049, 1050, 1051, 1052, 1053, 1054, 1055, 1056, 1057, 1058, 1059, 1060, 1061, 1062, 1063, 1064, 1065, 1066, 1067, 1068, 1069, 1070, 1071, 1072, 1073, 1074, 1075, 1076, 1077, 1078, 1079, 1080, 1081, 1082, 1083, 1084, 1085, 1086, 1087, 1088, 1089, 1090, 1091, 1092, 1093, 1094, 1095, 1096, 1097, 1098, 1099, 1100, 1101, 1102, 1103, 1104, 1105, 1106, 1107, 1108, 1109, 1110, 1111, 1112, 1113, 1114, 1115, 1116, 1117, 1118, 1119, 1120, 1121, 1122, 1123, 1124, 1125, 1126, 1127, 1128, 1129, 1130, 1131, 1132, 1133, 1134, 1135, 1136, 1137, 1138, 1139, 1140, 1141, 1142, 1143, 1144, 1145, 1146, 1147, 1148, 1149, 1150, 1151, 1152, 1153, 1154, 1155, 1156, 1157, 1158, 1159, 1160, 1161, 1162, 1163, 1164, 1165, 1166, 1167, 1168, 1169, 1170, 1171, 1172, 1173, 1174, 1175, 1176, 1177, 1178, 1179, 1180, 1181, 1182, 1183, 1184, 1185, 1186, 1187, 1188, 1189, 1190, 1191, 1192, 1193, 1194, 1195, 1196, 1197, 1198, 1199, 1200, 1201, 1202, 1203, 1204, 1205, 1206, 1207, 1208, 1209, 1210, 1211, 1212, 1213, 1214, 1215, 1216, 1217, 1218, 1219, 1220, 1221, 1222, 1223, 1224, 1225, 1226, 1227, 1228, 1229, 1230, 1231, 1232, 1233, 1234, 1235, 1236, 1237, 1238, 1239, 1240, 1241, 1242, 1243, 1244, 1245, 1246, 1247, 1248, 1249, 1250, 1251, 1252, 1253, 1254, 1255, 1256, 1257, 1258, 1259, 1260, 1261, 1262, 1263, 1264, 1265, 1266, 1267, 1268, 1269, 1270, 1271, 1272, 1273, 1274, 1275, 1276, 1277, 1278, 1279, 1280, 1281, 1282, 1283, 1284, 1285, 1286, 1287, 1288, 1289, 1290, 1291, 1292, 1293, 1294, 1295, 1296, 1297, 1298, 1299, 1300, 1301, 1302, 1303, 1304, 1305, 1306, 1307, 1308, 1309, 1310, 1311, 1312, 1313, 1314, 1315, 1316, 1317, 1318, 1319, 1320, 1321, 1322, 1323, 1324, 1325, 1326, 1327, 1328, 1329, 1330, 1331, 1332, 1333, 1334, 1335, 1336, 1337, 1338, 1339, 1340, 1341, 1342, 1343, 1344, 1345, 1346, 1347, 1348, 1349, 1350, 1351, 1352, 1353, 1354, 1355, 1356, 1357, 1358, 1359, 1360, 1361, 1362, 1363, 1364, 1365, 1366, 1367, 1368, 1369, 1370, 1371, 1372, 1373, 1374, 1375, 1376, 1377, 1378, 1379, 1380, 1381, 1382, 1383, 1384, 1385, 1386, 1387, 1388, 1389, 1390, 1391, 1392, 1393, 1394, 1395, 1396, 1397, 1398, 1399, 1400, 1401, 1402, 1403, 1404, 1405, 1406, 1407, 1408, 1409, 1410, 1411, 1412, 1413, 1414, 1415, 1416, 1417, 1418, 1419, 1420, 1421, 1422, 1423, 1424, 1425, 1426, 1427, 1428, 1429, 1430, 1431, 1432, 1433, 1434, 1435, 1436, 1437, 1438, 1439, 1440, 1441, 1442, 1443, 1444, 1445, 1446, 1447, 1448, 1449, 1450, 1451, 1452, 1453, 1454, 1455, 1456, 1457, 1458, 1459, 1460, 1461, 1462, 1463, 1464, 1465, 1466, 1467, 1468, 1469, 1470, 1471, 1472, 1473, 1474, 1475, 1476, 1477, 1478, 1479, 1480, 1481, 1482, 1483, 1484, 1485, 1486, 1487, 1488, 1489, 1490, 1491, 1492, 1493, 1494, 1495, 1496, 1497, 1498, 1499, 1500, 1501, 1502, 1503, 1504, 1505, 1506, 1507, 1508, 1509, 1510, 1511, 1512, 1513, 1514, 1515, 1516, 1517, 1518, 1519, 1520, 1521, 1522],
      "AcquisitionTime": ["123104.225000", "123105.725000", "123107.225000", "123108.725000", "123110.225000", "123111.725000", "123113.225000", "123114.725000", "123116.225000", "123117.725000", "123119.225000", "123120.725000", "123122.225000", "123123.725000", "123125.225000", "123126.725000", "123128.225000", "123129.725000", "123131.225000", "123132.725000", "123134.225000", "123135.725000", "123137.225000", "123138.725000", "123140.225000", "123141.725000", "123143.225000", "123144.725000", "123146.225000", "123147.725000", "123149.225000", "123150.725000", "123152.225000", "123153.725000", "123155.225000", "123156.725000", "123158.225000", "123159.725000", "123201.225000", "123202.725000", "123204.225000", "123205.725000", "123207.225000", "123208.725000", "123210.225000", "123211.725000", "123213.225000", "123214.725000", "123216.225000", "123217.725000", "123219.225000", "123220.725000", "123222.225000", "123223.725000", "123225.225000", "123226.725000", "123228.225000", "123229.725000", "123231.225000", "123232.725000", "123234.225000", "123235.725000", "123237.225000", "123238.725000", "123240.225000", "123241.725000", "123243.225000", "123244.725000", "123246.225000", "123247.725000", "123249.225000", "123250.725000", "123252.225000", "123253.725000", "123255.225000", "123256.725000", "123258.225000", "123259.725000", "123301.225000", "123302.725000", "123304.225000", "123305.725000", "123307.225000", "123308.725000", "123310.225000", "123311.725000", "123313.225000", "123314.725000", "123316.225000", "123317.725000", "123319.225000", "123320.725000", "123322.225000", "123323.725000", "123325.225000", "123326.725000", "123328.225000", "123329.725000", "123331.225000", "123332.725000", "123334.225000", "123335.725000", "123337.225000", "123338.725000", "123340.225000", "123341.725000", "123343.225000", "123344.725000", "123346.225000", "123347.725000", "123349.225000", "123350.725000", "123352.225000", "123353.725000", "123355.225000", "123356.725000", "123358.225000", "123359.725000", "123401.225000", "123402.725000", "123404.225000", "123405.725000", "123407.225000", "123408.725000", "123410.225000", "123411.725000", "123413.225000", "123414.725000", "123416.225000", "123417.725000", "123419.225000", "123420.725000", "123422.225000", "123423.725000", "123425.225000", "123426.725000", "123428.225000", "123429.725000", "123431.225000", "123432.725000", "123434.225000", "123435.725000", "123437.225000", "123438.725000", "123440.225000", "123441.725000", "123443.225000", "123444.725000", "123446.225000", "123447.725000", "123449.225000", "123450.725000", "123452.225000", "123453.725000", "123455.225000", "123456.725000", "123458.225000", "123459.725000", "123501.225000", "123502.725000", "123504.225000", "123505.725000", "123507.225000", "123508.725000", "123510.225000", "123511.725000", "123513.225000", "123514.725000", "123516.225000", "123517.725000", "123519.225000", "123520.725000", "123522.225000", "123523.725000", "123525.225000", "123526.725000", "123528.225000", "123529.725000", "123531.225000", "123532.725000", "123534.225000", "123535.725000", "123537.225000", "123538.725000", "123540.225000", "123541.725000", "123543.225000", "123544.725000", "123546.225000", "123547.725000", "123549.225000", "123550.725000", "123552.225000", "123553.725000", "123555.225000", "123556.725000", "123558.225000", "123559.725000", "123601.225000", "123602.725000", "123604.225000", "123605.725000", "123607.225000", "123608.725000", "123610.225000", "123611.725000", "123613.225000", "123614.725000", "123616.225000", "123617.725000", "123619.225000", "123620.725000", "123622.225000", "123623.725000", "123625.225000", "123626.725000", "123628.225000", "123629.725000", "123631.225000", "123632.725000", "123634.225000", "123635.725000", "123637.225000", "123638.725000", "123640.225000", "123641.725000", "123643.225000", "123644.725000", "123646.225000", "123647.725000", "123649.225000", "123650.725000", "123652.225000", "123653.725000", "123655.225000", "123656.725000", "123658.225000", "123659.725000", "123701.225000", "123702.725000", "123704.225000", "123705.725000", "123707.225000", "123708.725000", "123710.225000", "123711.725000", "123713.225000", "123714.725000", "123716.225000", "123717.725000", "123719.225000", "123720.725000", "123722.225000", "123723.725000", "123725.225000", "123726.725000", "123728.225000", "123729.725000", "123731.225000", "123732.725000", "123734.225000", "123735.725000", "123737.225000", "123738.725000", "123740.225000", "123741.725000", "123743.225000", "123744.725000", "123746.225000", "123747.725000", "123749.225000", "123750.725000", "123752.225000", "123753.725000", "123755.225000", "123756.725000", "123758.225000", "123759.725000", "123801.225000", "123802.725000", "123804.225000", "123805.725000", "123807.225000", "123808.725000", "123810.225000", "123811.725000", "123813.225000", "123814.725000", "123816.225000", "123817.725000", "123819.225000", "123820.725000", "123822.225000", "123823.725000", "123825.225000", "123826.725000", "123828.225000", "123829.725000", "123831.225000", "123832.725000", "123834.225000", "123835.725000", "123837.225000", "123838.725000", "123840.225000", "123841.725000", "123843.225000", "123844.725000", "123846.225000", "123847.725000", "123849.225000", "123850.725000", "123852.225000", "123853.725000", "123855.225000", "123856.725000", "123858.225000", "123859.725000", "123901.225000", "123902.725000", "123904.225000", "123905.725000", "123907.225000", "123908.725000", "123910.225000", "123911.725000", "123913.225000", "123914.725000", "123916.225000", "123917.725000", "123919.225000", "123920.725000", "123922.225000", "123923.725000", "123925.225000", "123926.725000", "123928.225000", "123929.725000", "123931.225000", "123932.725000", "123934.225000", "123935.725000", "123937.225000", "123938.725000", "123940.225000", "123941.725000", "123943.225000", "123944.725000", "123946.225000", "123947.725000", "123949.225000", "123950.725000", "123952.225000", "123953.725000", "123955.225000", "123956.725000", "123958.225000", "123959.725000", "124001.225000", "124002.725000", "124004.225000", "124005.725000", "124007.225000", "124008.725000", "124010.225000", "124011.725000", "124013.225000", "124014.725000", "124016.225000", "124017.725000", "124019.225000", "124020.725000", "124022.225000", "124023.725000", "124025.225000", "124026.725000", "124028.225000", "124029.725000", "124031.225000", "124032.725000", "124034.225000", "124035.725000", "124037.225000", "124038.725000", "124040.225000", "124041.725000", "124043.225000", "124044.725000", "124046.225000", "124047.725000", "124049.225000", "124050.725000", "124052.225000", "124053.725000", "124055.225000", "124056.725000", "124058.225000", "124059.725000", "124101.225000", "124102.725000", "124104.225000", "124105.725000", "124107.225000", "124108.725000", "124110.225000", "124111.725000", "124113.225000", "124114.725000", "124116.225000", "124117.725000", "124119.225000", "124120.725000", "124122.225000", "124123.725000", "124125.225000", "124126.725000", "124128.225000", "124129.725000", "124131.225000", "124132.725000", "124134.225000", "124135.725000", "124137.225000", "124138.725000", "124140.225000", "124141.725000", "124143.225000", "124144.725000", "124146.225000", "124147.725000", "124149.225000", "124150.725000", "124152.225000", "124153.725000", "124155.225000", "124156.725000", "124158.225000", "124159.725000", "124201.225000", "124202.725000", "124204.225000", "124205.725000", "124207.225000", "124208.725000", "124210.225000", "124211.725000", "124213.225000", "124214.725000", "124216.225000", "124217.725000", "124219.225000", "124220.725000", "124222.225000", "124223.725000", "124225.225000", "124226.725000", "124228.225000", "124229.725000", "124231.225000", "124232.725000", "124234.225000", "124235.725000", "124237.225000", "124238.725000", "124240.225000", "124241.725000", "124243.225000", "124244.725000", "124246.225000", "124247.725000", "124249.225000", "124250.725000", "124252.225000", "124253.725000", "124255.225000", "124256.725000", "124258.225000", "124259.725000", "124301.225000", "124302.725000", "124304.225000", "124305.725000", "124307.225000", "124308.725000", "124310.225000", "124311.725000", "124313.225000", "124314.725000", "124316.225000", "124317.725000", "124319.225000", "124320.725000", "124322.225000", "124323.725000", "124325.225000", "124326.725000", "124328.225000", "124329.725000", "124331.225000", "124332.725000", "124334.225000", "124335.725000", "124337.225000", "124338.725000", "124340.225000", "124341.725000", "124343.225000", "124344.725000", "124346.225000", "124347.725000", "124349.225000", "124350.725000", "124352.225000", "124353.725000", "124355.225000", "124356.725000", "124358.225000", "124359.725000", "124401.225000", "124402.725000", "124404.225000", "124405.725000", "124407.225000", "124408.725000", "124410.225000", "124411.725000", "124413.225000", "124414.725000", "124416.225000", "124417.725000", "124419.225000", "124420.725000", "124422.225000", "124423.725000", "124425.225000", "124426.725000", "124428.225000", "124429.725000", "124431.225000", "124432.725000", "124434.225000", "124435.725000", "124437.225000", "124438.725000", "124440.225000", "124441.725000", "124443.225000", "124444.725000", "124446.225000", "124447.725000", "124449.225000", "124450.725000", "124452.225000", "124453.725000", "124455.225000", "124456.725000", "124458.225000", "124459.725000", "124501.225000", "124502.725000", "124504.225000", "124505.725000", "124507.225000", "124508.725000", "124510.225000", "124511.725000", "124513.225000", "124514.725000", "124516.225000", "124517.725000", "124519.225000", "124520.725000", "124522.225000", "124523.725000", "124525.225000", "124526.725000", "124528.225000", "124529.725000", "124531.225000", "124532.725000", "124534.225000", "124535.725000", "124537.225000", "124538.725000", "124540.225000", "124541.725000", "124543.225000", "124544.725000", "124546.225000", "124547.725000", "124549.225000", "124550.725000", "124552.225000", "124553.725000", "124555.225000", "124556.725000", "124558.225000", "124559.725000", "124601.225000", "124602.725000", "124604.225000", "124605.725000", "124607.225000", "124608.725000", "124610.225000", "124611.725000", "124613.225000", "124614.725000", "124616.225000", "124617.725000", "124619.225000", "124620.725000", "124622.225000", "124623.725000", "124625.225000", "124626.725000", "124628.225000", "124629.725000", "124631.225000", "124632.725000", "124634.225000", "124635.725000", "124637.225000", "124638.725000", "124640.225000", "124641.725000", "124643.225000", "124644.725000", "124646.225000", "124647.725000", "124649.225000", "124650.725000", "124652.225000", "124653.725000", "124655.225000", "124656.725000", "124658.225000", "124659.725000", "124701.225000", "124702.725000", "124704.225000", "124705.725000", "124707.225000", "124708.725000", "124710.225000", "124711.725000", "124713.225000", "124714.725000", "124716.225000", "124717.725000", "124719.225000", "124720.725000", "124722.225000", "124723.725000", "124725.225000", "124726.725000", "124728.225000", "124729.725000", "124731.225000", "124732.725000", "124734.225000", "124735.725000", "124737.225000", "124738.725000", "124740.225000", "124741.725000", "124743.225000", "124744.725000", "124746.225000", "124747.725000", "124749.225000", "124750.725000", "124752.225000", "124753.725000", "124755.225000", "124756.725000", "124758.225000", "124759.725000", "124801.225000", "124802.725000", "124804.225000", "124805.725000", "124807.225000", "124808.725000", "124810.225000", "124811.725000", "124813.225000", "124814.725000", "124816.225000", "124817.725000", "124819.225000", "124820.725000", "124822.225000", "124823.725000", "124825.225000", "124826.725000", "124828.225000", "124829.725000", "124831.225000", "124832.725000", "124834.225000", "124835.725000", "124837.225000", "124838.725000", "124840.225000", "124841.725000", "124843.225000", "124844.725000", "124846.225000", "124847.725000", "124849.225000", "124850.725000", "124852.225000", "124853.725000", "124855.225000", "124856.725000", "124858.225000", "124859.725000", "124901.225000", "124902.725000", "124904.225000", "124905.725000", "124907.225000", "124908.725000", "124910.225000", "124911.725000", "124913.225000", "124914.725000", "124916.225000", "124917.725000", "124919.225000", "124920.725000", "124922.225000", "124923.725000", "124925.225000", "124926.725000", "124928.225000", "124929.725000", "124931.225000", "124932.725000", "124934.225000", "124935.725000", "124937.225000", "124938.725000", "124940.225000", "124941.725000", "124943.225000", "124944.725000", "124946.225000", "124947.725000", "124949.225000", "124950.725000", "124952.225000", "124953.725000", "124955.225000", "124956.725000", "124958.225000", "124959.725000", "125001.225000", "125002.725000", "125004.225000", "125005.725000", "125007.225000", "125008.725000", "125010.225000", "125011.725000", "125013.225000", "125014.725000", "125016.225000", "125017.725000", "125019.225000", "125020.725000", "125022.225000", "125023.725000", "125025.225000", "125026.725000", "125028.225000", "125029.725000", "125031.225000", "125032.725000", "125034.225000", "125035.725000", "125037.225000", "125038.725000", "125040.225000", "125041.725000", "125043.225000", "125044.725000", "125046.225000", "125047.725000", "125049.225000", "125050.725000", "125052.225000", "125053.725000", "125055.225000", "125056.725000", "125058.225000", "125059.725000", "125101.225000", "125102.725000", "125104.225000", "125105.725000", "125107.225000", "125108.725000", "125110.225000", "125111.725000", "125113.225000", "125114.725000", "125116.225000", "125117.725000", "125119.225000", "125120.725000", "125122.225000", "125123.725000", "125125.225000", "125126.725000", "125128.225000", "125129.725000", "125131.225000", "125132.725000", "125134.225000", "125135.725000", "125137.225000", "125138.725000", "125140.225000", "125141.725000", "125143.225000", "125144.725000", "125146.225000", "125147.725000", "125149.225000", "125150.725000", "125152.225000", "125153.725000", "125155.225000", "125156.725000", "125158.225000", "125159.725000", "125201.225000", "125202.725000", "125204.225000", "125205.725000", "125207.225000", "125208.725000", "125210.225000", "125211.725000", "125213.225000", "125214.725000", "125216.225000", "125217.725000", "125219.225000", "125220.725000", "125222.225000", "125223.725000", "125225.225000", "125226.725000", "125228.225000", "125229.725000", "125231.225000", "125232.725000", "125234.225000", "125235.725000", "125237.225000", "125238.725000", "125240.225000", "125241.725000", "125243.225000", "125244.725000", "125246.225000", "125247.725000", "125249.225000", "125250.725000", "125252.225000", "125253.725000", "125255.225000", "125256.725000", "125258.225000", "125259.725000", "125301.225000", "125302.725000", "125304.225000", "125305.725000", "125307.225000", "125308.725000", "125310.225000", "125311.725000", "125313.225000", "125314.725000", "125316.225000", "125317.725000", "125319.225000", "125320.725000", "125322.225000", "125323.725000", "125325.225000", "125326.725000", "125328.225000", "125329.725000", "125331.225000", "125332.725000", "125334.225000", "125335.725000", "125337.225000", "125338.725000", "125340.225000", "125341.725000", "125343.225000", "125344.725000", "125346.225000", "125347.725000", "125349.225000", "125350.725000", "125352.225000", "125353.725000", "125355.225000", "125356.725000", "125358.225000", "125359.725000", "125401.225000", "125402.725000", "125404.225000", "125405.725000", "125407.225000", "125408.725000", "125410.225000", "125411.725000", "125413.225000", "125414.725000", "125416.225000", "125417.725000", "125419.225000", "125420.725000", "125422.225000", "125423.725000", "125425.225000", "125426.725000", "125428.225000", "125429.725000", "125431.225000", "125432.725000", "125434.225000", "125435.725000", "125437.225000", "125438.725000", "125440.225000", "125441.725000", "125443.225000", "125444.725000", "125446.225000", "125447.725000", "125449.225000", "125450.725000", "125452.225000", "125453.725000", "125455.225000", "125456.725000", "125458.225000", "125459.725000", "125501.225000", "125502.725000", "125504