{
  "AcquisitionMatrixPE": 106,
  "AcquisitionNumber": 1,
  "AcquisitionTime": "16:02:49.840000",
  "BandwidthPerPixelPhaseEncode": 16.846,
  "BaseResolution": 106,
  "BodyPartExamined": "BRAIN",
  "CoilCombinationMethod": "Sum of Squares",
  "ConsistencyInfo": "N4_VE11C_LATEST_20160120",
  "ConversionSoftware": "dcm2niix",
  "ConversionSoftwareVersion": "v1.0.20220720",
  "DerivedVendorReportedEchoSpacing": 0.000560012,
  "DeviceSerialNumber": "166108",
  "DwellTime": 1.8e-06,
  "EchoTime": 0.0352,
  "EchoTrainLength": 106,
  "EffectiveEchoSpacing": 0.000560012,
  "FlipAngle": 60,
  "HeudiconvVersion": "1.3.0",
  "ImageComments": "Unaliased MB4/PE3/LB",
  "ImageOrientationPatientDICOM": [1, 0, 0, 0, 1, 0],
  "ImageOrientationText": "Tra",
  "ImageType": [
    "ORIGINAL",
    "PRIMARY",
    "M",
    "MB",
    "ND",
    "MOSAIC"
],
  "ImagingFrequency": 123.244,
  "InPlanePhaseEncodingDirectionDICOM": "COL",
  "InstitutionAddress": "Bedford Way 26,London,London,GB,WC1H 0AP",
  "InstitutionName": "University College",
  "InstitutionalDepartmentName": "Department",
  "MRAcquisitionType": "2D",
  "MagneticFieldStrength": 3,
  "Manufacturer": "Siemens",
  "ManufacturersModelName": "Prisma",
  "MatrixCoilMode": "SENSE",
  "Modality": "MR",
  "MultibandAccelerationFactor": 4,
  "NonlinearGradientCorrection": false,
  "PartialFourier": 1,
  "PatientPosition": "HFS",
  "PercentPhaseFOV": 100,
  "PercentSampling": 100,
  "PhaseEncodingDirection": "j-",
  "PhaseEncodingSteps": 106,
  "PhaseResolution": 1,
  "PixelBandwidth": 2620,
  "ProcedureStepDescription": "Egor^MovieProject2",
  "ProtocolName": "task-backtothefuture_run-1",
  "PulseSequenceDetails": "%CustomerSeq%\\cmrr_mbep2d_bold",
  "ReceiveCoilActiveElements": "HEA;HEP",
  "ReceiveCoilName": "Head_32",
  "ReconMatrixPE": 106,
  "RepetitionTime": 1.5,
  "SAR": 0.0760525,
  "ScanOptions": "FS\\EXT",
  "ScanningSequence": "EP",
  "SequenceName": "epfid2d1_106",
  "SequenceVariant": "SK\\SS",
  "SeriesDescription": "task-backtothefuture_run-1",
  "SeriesNumber": 3,
  "ShimSetting": [-1532, 639, 7344, 221, -290, 194, 193, -31],
  "SliceThickness": 2,
  "SliceTiming": [0, 1.07, 0.6575, 0.2475, 1.315, 0.905, 0.4925, 0.0825, 1.1525, 0.74, 0.33, 1.3975, 0.9875, 0.575, 0.165, 1.2325, 0.8225, 0.4125, 0, 1.07, 0.6575, 0.2475, 1.315, 0.905, 0.4925, 0.0825, 1.1525, 0.74, 0.33, 1.3975, 0.9875, 0.575, 0.165, 1.2325, 0.8225, 0.4125, 0, 1.07, 0.6575, 0.2475, 1.315, 0.905, 0.4925, 0.0825, 1.1525, 0.74, 0.33, 1.3975, 0.9875, 0.575, 0.165, 1.2325, 0.8225, 0.4125, 0, 1.07, 0.6575, 0.2475, 1.315, 0.905, 0.4925, 0.0825, 1.1525, 0.74, 0.33, 1.3975, 0.9875, 0.575, 0.165, 1.2325, 0.8225, 0.4125],
  "SoftwareVersions": "syngo MR E11",
  "SpacingBetweenSlices": 2,
  "StationName": "AWP166108",
  "TaskName": "backtothefuture",
  "TotalReadoutTime": 0.0588013,
  "TxRefAmp": 246.675,
  "WipMemBlock": "83ed6c5f-d3c0-4105-917d-3ae618c6d629||Sequence: R016 ve11c/master r/e634e98; Dec 19 2017 11:00:25 by eja",
  "dcmmeta_affine": [
    [-2.0, 0.0, 0.0, 106.0],
    [0.0, 2.0, 0.0, -94.36144256591797],
    [0.0, 0.0, 2.0, -57.746986389160156],
    [0.0, 0.0, 0.0, 1.0]
],
  "dcmmeta_reorient_transform": [
    [0.0, -1.0, 0.0, 105.0],
    [1.0, 0.0, 0.0, 0.0],
    [0.0, 0.0, 1.0, 0.0],
    [0.0, 0.0, 0.0, 1.0]
],
  "dcmmeta_shape": [106, 106, 72, 1360],
  "dcmmeta_slice_dim": 2,
  "dcmmeta_version": 0.6,
  "global": {
    "const": {
      "AcquisitionMatrix": [106, 0, 0, 106],
      "AngioFlag": "N",
      "BitsAllocated": 16,
      "BitsStored": 16,
      "BodyPartExamined": "BRAIN",
      "CardiacNumberOfImages": 1,
      "Columns": 954,
      "EchoNumbers": 1,
      "EchoTime": 35.2,
      "EchoTrainLength": 106,
      "FlipAngle": 60.0,
      "HighBit": 15,
      "ImageOrientationPatient": [1.0, 0.0, 0.0, 0.0, 1.0, 0.0],
      "ImagePositionPatient": [-954.0, -963.63855457306, -57.74698638916],
      "ImageType": [
        "ORIGINAL",
        "PRIMARY",
        "M",
        "MB",
        "ND",
        "MOSAIC"
],
      "ImagedNucleus": "1H",
      "ImagingFrequency": 123.243605,
      "InPlanePhaseEncodingDirection": "COL",
      "MRAcquisitionType": "2D",
      "MagneticFieldStrength": 3.0,
      "Manufacturer": "SIEMENS",
      "ManufacturerModelName": "Prisma",
      "Modality": "MR",
      "NominalInterval": 0,
      "NumberOfAverages": 1.0,
      "NumberOfPhaseEncodingSteps": 106,
      "PercentPhaseFieldOfView": 100.0,
      "PercentSampling": 100.0,
      "PerformedProcedureStepStartTime": "153136.450000",
      "PhotometricInterpretation": "MONOCHROME2",
      "PixelBandwidth": 2620.0,
      "PixelRepresentation": 0,
      "PixelSpacing": [2.0, 2.0],
      "ProtocolName": "task-backtothefuture_run-1",
      "RepetitionTime": 1500.0,
      "Rows": 954,
      "SAR": 0.07605253245968,
      "SamplesPerPixel": 1,
      "ScanOptions": [
        "FS",
        "EXT"
],
      "ScanningSequence": "EP",
      "SequenceName": "epfid2d1_106",
      "SequenceVariant": [
        "SK",
        "SS"
],
      "SeriesDescription": "task-backtothefuture_run-1",
      "SeriesNumber": 3,
      "SeriesTime": "160347.451000",
      "SliceLocation": -57.74698638916,
      "SliceThickness": 2.0,
      "SmallestImagePixelValue": 0,
      "SoftwareVersions": "syngo MR E11",
      "SpacingBetweenSlices": 2.0,
      "SpecificCharacterSet": "ISO_IR 100",
      "StudyID": "1",
      "StudyTime": "153136.385000",
      "TransmitCoilName": "Body",
      "VariableFlipAngleFlag": "N",
      "WindowCenterWidthExplanation": "Algo1",
      "dBdt": 0.0},
    "slices": {}
  },
  "time": {
    "samples": {
      "AcquisitionNumber": [1, 2, 3, 4, 5, 6, 7, 8, 9, 10, 11, 12, 13, 14, 15, 16, 17, 18, 19, 20, 21, 22, 23, 24, 25, 26, 27, 28, 29, 30, 31, 32, 33, 34, 35, 36, 37, 38, 39, 40, 41, 42, 43, 44, 45, 46, 47, 48, 49, 50, 51, 52, 53, 54, 55, 56, 57, 58, 59, 60, 61, 62, 63, 64, 65, 66, 67, 68, 69, 70, 71, 72, 73, 74, 75, 76, 77, 78, 79, 80, 81, 82, 83, 84, 85, 86, 87, 88, 89, 90, 91, 92, 93, 94, 95, 96, 97, 98, 99, 100, 101, 102, 103, 104, 105, 106, 107, 108, 109, 110, 111, 112, 113, 114, 115, 116, 117, 118, 119, 120, 121, 122, 123, 124, 125, 126, 127, 128, 129, 130, 131, 132, 133, 134, 135, 136, 137, 138, 139, 140, 141, 142, 143, 144, 145, 146, 147, 148, 149, 150, 151, 152, 153, 154, 155, 156, 157, 158, 159, 160, 161, 162, 163, 164, 165, 166, 167, 168, 169, 170, 171, 172, 173, 174, 175, 176, 177, 178, 179, 180, 181, 182, 183, 184, 185, 186, 187, 188, 189, 190, 191, 192, 193, 194, 195, 196, 197, 198, 199, 200, 201, 202, 203, 204, 205, 206, 207, 208, 209, 210, 211, 212, 213, 214, 215, 216, 217, 218, 219, 220, 221, 222, 223, 224, 225, 226, 227, 228, 229, 230, 231, 232, 233, 234, 235, 236, 237, 238, 239, 240, 241, 242, 243, 244, 245, 246, 247, 248, 249, 250, 251, 252, 253, 254, 255, 256, 257, 258, 259, 260, 261, 262, 263, 264, 265, 266, 267, 268, 269, 270, 271, 272, 273, 274, 275, 276, 277, 278, 279, 280, 281, 282, 283, 284, 285, 286, 287, 288, 289, 290, 291, 292, 293, 294, 295, 296, 297, 298, 299, 300, 301, 302, 303, 304, 305, 306, 307, 308, 309, 310, 311, 312, 313, 314, 315, 316, 317, 318, 319, 320, 321, 322, 323, 324, 325, 326, 327, 328, 329, 330, 331, 332, 333, 334, 335, 336, 337, 338, 339, 340, 341, 342, 343, 344, 345, 346, 347, 348, 349, 350, 351, 352, 353, 354, 355, 356, 357, 358, 359, 360, 361, 362, 363, 364, 365, 366, 367, 368, 369, 370, 371, 372, 373, 374, 375, 376, 377, 378, 379, 380, 381, 382, 383, 384, 385, 386, 387, 388, 389, 390, 391, 392, 393, 394, 395, 396, 397, 398, 399, 400, 401, 402, 403, 404, 405, 406, 407, 408, 409, 410, 411, 412, 413, 414, 415, 416, 417, 418, 419, 420, 421, 422, 423, 424, 425, 426, 427, 428, 429, 430, 431, 432, 433, 434, 435, 436, 437, 438, 439, 440, 441, 442, 443, 444, 445, 446, 447, 448, 449, 450, 451, 452, 453, 454, 455, 456, 457, 458, 459, 460, 461, 462, 463, 464, 465, 466, 467, 468, 469, 470, 471, 472, 473, 474, 475, 476, 477, 478, 479, 480, 481, 482, 483, 484, 485, 486, 487, 488, 489, 490, 491, 492, 493, 494, 495, 496, 497, 498, 499, 500, 501, 502, 503, 504, 505, 506, 507, 508, 509, 510, 511, 512, 513, 514, 515, 516, 517, 518, 519, 520, 521, 522, 523, 524, 525, 526, 527, 528, 529, 530, 531, 532, 533, 534, 535, 536, 537, 538, 539, 540, 541, 542, 543, 544, 545, 546, 547, 548, 549, 550, 551, 552, 553, 554, 555, 556, 557, 558, 559, 560, 561, 562, 563, 564, 565, 566, 567, 568, 569, 570, 571, 572, 573, 574, 575, 576, 577, 578, 579, 580, 581, 582, 583, 584, 585, 586, 587, 588, 589, 590, 591, 592, 593, 594, 595, 596, 597, 598, 599, 600, 601, 602, 603, 604, 605, 606, 607, 608, 609, 610, 611, 612, 613, 614, 615, 616, 617, 618, 619, 620, 621, 622, 623, 624, 625, 626, 627, 628, 629, 630, 631, 632, 633, 634, 635, 636, 637, 638, 639, 640, 641, 642, 643, 644, 645, 646, 647, 648, 649, 650, 651, 652, 653, 654, 655, 656, 657, 658, 659, 660, 661, 662, 663, 664, 665, 666, 667, 668, 669, 670, 671, 672, 673, 674, 675, 676, 677, 678, 679, 680, 681, 682, 683, 684, 685, 686, 687, 688, 689, 690, 691, 692, 693, 694, 695, 696, 697, 698, 699, 700, 701, 702, 703, 704, 705, 706, 707, 708, 709, 710, 711, 712, 713, 714, 715, 716, 717, 718, 719, 720, 721, 722, 723, 724, 725, 726, 727, 728, 729, 730, 731, 732, 733, 734, 735, 736, 737, 738, 739, 740, 741, 742, 743, 744, 745, 746, 747, 748, 749, 750, 751, 752, 753, 754, 755, 756, 757, 758, 759, 760, 761, 762, 763, 764, 765, 766, 767, 768, 769, 770, 771, 772, 773, 774, 775, 776, 777, 778, 779, 780, 781, 782, 783, 784, 785, 786, 787, 788, 789, 790, 791, 792, 793, 794, 795, 796, 797, 798, 799, 800, 801, 802, 803, 804, 805, 806, 807, 808, 809, 810, 811, 812, 813, 814, 815, 816, 817, 818, 819, 820, 821, 822, 823, 824, 825, 826, 827, 828, 829, 830, 831, 832, 833, 834, 835, 836, 837, 838, 839, 840, 841, 842, 843, 844, 845, 846, 847, 848, 849, 850, 851, 852, 853, 854, 855, 856, 857, 858, 859, 860, 861, 862, 863, 864, 865, 866, 867, 868, 869, 870, 871, 872, 873, 874, 875, 876, 877, 878, 879, 880, 881, 882, 883, 884, 885, 886, 887, 888, 889, 890, 891, 892, 893, 894, 895, 896, 897, 898, 899, 900, 901, 902, 903, 904, 905, 906, 907, 908, 909, 910, 911, 912, 913, 914, 915, 916, 917, 918, 919, 920, 921, 922, 923, 924, 925, 926, 927, 928, 929, 930, 931, 932, 933, 934, 935, 936, 937, 938, 939, 940, 941, 942, 943, 944, 945, 946, 947, 948, 949, 950, 951, 952, 953, 954, 955, 956, 957, 958, 959, 960, 961, 962, 963, 964, 965, 966, 967, 968, 969, 970, 971, 972, 973, 974, 975, 976, 977, 978, 979, 980, 981, 982, 983, 984, 985, 986, 987, 988, 989, 990, 991, 992, 993, 994, 995, 996, 997, 998, 999, 1000, 1001, 1002, 1003, 1004, 1005, 1006, 1007, 1008, 1009, 1010, 1011, 1012, 1013, 1014, 1015, 1016, 1017, 1018, 1019, 1020, 1021, 1022, 1023, 1024, 1025, 1026, 1027, 1028, 1029, 1030, 1031, 1032, 1033, 1034, 1035, 1036, 1037, 1038, 1039, 1040, 1041, 1042, 1043, 1044, 1045, 1046, 1047, 1048, 1049, 1050, 1051, 1052, 1053, 1054, 1055, 1056, 1057, 1058, 1059, 1060, 1061, 1062, 1063, 1064, 1065, 1066, 1067, 1068, 1069, 1070, 1071, 1072, 1073, 1074, 1075, 1076, 1077, 1078, 1079, 1080, 1081, 1082, 1083, 1084, 1085, 1086, 1087, 1088, 1089, 1090, 1091, 1092, 1093, 1094, 1095, 1096, 1097, 1098, 1099, 1100, 1101, 1102, 1103, 1104, 1105, 1106, 1107, 1108, 1109, 1110, 1111, 1112, 1113, 1114, 1115, 1116, 1117, 1118, 1119, 1120, 1121, 1122, 1123, 1124, 1125, 1126, 1127, 1128, 1129, 1130, 1131, 1132, 1133, 1134, 1135, 1136, 1137, 1138, 1139, 1140, 1141, 1142, 1143, 1144, 1145, 1146, 1147, 1148, 1149, 1150, 1151, 1152, 1153, 1154, 1155, 1156, 1157, 1158, 1159, 1160, 1161, 1162, 1163, 1164, 1165, 1166, 1167, 1168, 1169, 1170, 1171, 1172, 1173, 1174, 1175, 1176, 1177, 1178, 1179, 1180, 1181, 1182, 1183, 1184, 1185, 1186, 1187, 1188, 1189, 1190, 1191, 1192, 1193, 1194, 1195, 1196, 1197, 1198, 1199, 1200, 1201, 1202, 1203, 1204, 1205, 1206, 1207, 1208, 1209, 1210, 1211, 1212, 1213, 1214, 1215, 1216, 1217, 1218, 1219, 1220, 1221, 1222, 1223, 1224, 1225, 1226, 1227, 1228, 1229, 1230, 1231, 1232, 1233, 1234, 1235, 1236, 1237, 1238, 1239, 1240, 1241, 1242, 1243, 1244, 1245, 1246, 1247, 1248, 1249, 1250, 1251, 1252, 1253, 1254, 1255, 1256, 1257, 1258, 1259, 1260, 1261, 1262, 1263, 1264, 1265, 1266, 1267, 1268, 1269, 1270, 1271, 1272, 1273, 1274, 1275, 1276, 1277, 1278, 1279, 1280, 1281, 1282, 1283, 1284, 1285, 1286, 1287, 1288, 1289, 1290, 1291, 1292, 1293, 1294, 1295, 1296, 1297, 1298, 1299, 1300, 1301, 1302, 1303, 1304, 1305, 1306, 1307, 1308, 1309, 1310, 1311, 1312, 1313, 1314, 1315, 1316, 1317, 1318, 1319, 1320, 1321, 1322, 1323, 1324, 1325, 1326, 1327, 1328, 1329, 1330, 1331, 1332, 1333, 1334, 1335, 1336, 1337, 1338, 1339, 1340, 1341, 1342, 1343, 1344, 1345, 1346, 1347, 1348, 1349, 1350, 1351, 1352, 1353, 1354, 1355, 1356, 1357, 1358, 1359, 1360],
      "AcquisitionTime": ["160249.840000", "160251.340000", "160252.840000", "160254.340000", "160255.840000", "160257.340000", "160258.840000", "160300.340000", "160301.840000", "160303.340000", "160304.840000", "160306.340000", "160307.840000", "160309.340000", "160310.840000", "160312.340000", "160313.840000", "160315.340000", "160316.840000", "160318.340000", "160319.840000", "160321.340000", "160322.840000", "160324.340000", "160325.840000", "160327.340000", "160328.840000", "160330.340000", "160331.840000", "160333.340000", "160334.840000", "160336.340000", "160337.840000", "160339.340000", "160340.840000", "160342.340000", "160343.840000", "160345.340000", "160346.840000", "160348.340000", "160349.840000", "160351.340000", "160352.840000", "160354.340000", "160355.840000", "160357.340000", "160358.840000", "160400.340000", "160401.840000", "160403.340000", "160404.840000", "160406.340000", "160407.840000", "160409.340000", "160410.840000", "160412.340000", "160413.840000", "160415.340000", "160416.840000", "160418.340000", "160419.840000", "160421.340000", "160422.840000", "160424.340000", "160425.840000", "160427.340000", "160428.840000", "160430.340000", "160431.840000", "160433.340000", "160434.840000", "160436.340000", "160437.840000", "160439.340000", "160440.840000", "160442.340000", "160443.840000", "160445.340000", "160446.840000", "160448.340000", "160449.840000", "160451.340000", "160452.840000", "160454.340000", "160455.840000", "160457.340000", "160458.840000", "160500.340000", "160501.840000", "160503.340000", "160504.840000", "160506.340000", "160507.840000", "160509.340000", "160510.840000", "160512.340000", "160513.840000", "160515.340000", "160516.840000", "160518.340000", "160519.840000", "160521.340000", "160522.840000", "160524.340000", "160525.840000", "160527.340000", "160528.840000", "160530.340000", "160531.840000", "160533.340000", "160534.840000", "160536.340000", "160537.840000", "160539.340000", "160540.840000", "160542.340000", "160543.840000", "160545.340000", "160546.840000", "160548.340000", "160549.840000", "160551.340000", "160552.840000", "160554.340000", "160555.840000", "160557.340000", "160558.840000", "160600.340000", "160601.840000", "160603.340000", "160604.840000", "160606.340000", "160607.840000", "160609.340000", "160610.840000", "160612.340000", "160613.840000", "160615.340000", "160616.840000", "160618.340000", "160619.840000", "160621.340000", "160622.840000", "160624.340000", "160625.840000", "160627.340000", "160628.840000", "160630.340000", "160631.840000", "160633.340000", "160634.840000", "160636.340000", "160637.840000", "160639.340000", "160640.840000", "160642.340000", "160643.840000", "160645.340000", "160646.840000", "160648.340000", "160649.840000", "160651.340000", "160652.840000", "160654.340000", "160655.840000", "160657.340000", "160658.840000", "160700.340000", "160701.840000", "160703.340000", "160704.840000", "160706.340000", "160707.840000", "160709.340000", "160710.840000", "160712.340000", "160713.840000", "160715.340000", "160716.840000", "160718.340000", "160719.840000", "160721.340000", "160722.840000", "160724.340000", "160725.840000", "160727.340000", "160728.840000", "160730.340000", "160731.840000", "160733.340000", "160734.840000", "160736.340000", "160737.840000", "160739.340000", "160740.840000", "160742.340000", "160743.840000", "160745.340000", "160746.840000", "160748.340000", "160749.840000", "160751.340000", "160752.840000", "160754.340000", "160755.840000", "160757.340000", "160758.840000", "160800.340000", "160801.840000", "160803.340000", "160804.840000", "160806.340000", "160807.840000", "160809.340000", "160810.840000", "160812.340000", "160813.840000", "160815.340000", "160816.840000", "160818.340000", "160819.840000", "160821.340000", "160822.840000", "160824.340000", "160825.840000", "160827.340000", "160828.840000", "160830.340000", "160831.840000", "160833.340000", "160834.840000", "160836.340000", "160837.840000", "160839.340000", "160840.840000", "160842.340000", "160843.840000", "160845.340000", "160846.840000", "160848.340000", "160849.840000", "160851.340000", "160852.840000", "160854.340000", "160855.840000", "160857.340000", "160858.840000", "160900.340000", "160901.840000", "160903.340000", "160904.840000", "160906.340000", "160907.840000", "160909.340000", "160910.840000", "160912.340000", "160913.840000", "160915.340000", "160916.840000", "160918.340000", "160919.840000", "160921.340000", "160922.840000", "160924.340000", "160925.840000", "160927.340000", "160928.840000", "160930.340000", "160931.840000", "160933.340000", "160934.840000", "160936.340000", "160937.840000", "160939.340000", "160940.840000", "160942.340000", "160943.840000", "160945.340000", "160946.840000", "160948.340000", "160949.840000", "160951.340000", "160952.840000", "160954.340000", "160955.840000", "160957.340000", "160958.840000", "161000.340000", "161001.840000", "161003.340000", "161004.840000", "161006.340000", "161007.840000", "161009.340000", "161010.840000", "161012.340000", "161013.840000", "161015.340000", "161016.840000", "161018.340000", "161019.840000", "161021.340000", "161022.840000", "161024.340000", "161025.840000", "161027.340000", "161028.840000", "161030.340000", "161031.840000", "161033.340000", "161034.840000", "161036.340000", "161037.840000", "161039.340000", "161040.840000", "161042.340000", "161043.840000", "161045.340000", "161046.840000", "161048.340000", "161049.840000", "161051.340000", "161052.840000", "161054.340000", "161055.840000", "161057.340000", "161058.840000", "161100.340000", "161101.840000", "161103.340000", "161104.840000", "161106.340000", "161107.840000", "161109.340000", "161110.840000", "161112.340000", "161113.840000", "161115.340000", "161116.840000", "161118.340000", "161119.840000", "161121.340000", "161122.840000", "161124.340000", "161125.840000", "161127.340000", "161128.840000", "161130.340000", "161131.840000", "161133.340000", "161134.840000", "161136.340000", "161137.840000", "161139.340000", "161140.840000", "161142.340000", "161143.840000", "161145.340000", "161146.840000", "161148.340000", "161149.840000", "161151.340000", "161152.840000", "161154.340000", "161155.840000", "161157.340000", "161158.840000", "161200.340000", "161201.840000", "161203.340000", "161204.840000", "161206.340000", "161207.840000", "161209.340000", "161210.840000", "161212.340000", "161213.840000", "161215.340000", "161216.840000", "161218.340000", "161219.840000", "161221.340000", "161222.840000", "161224.340000", "161225.840000", "161227.340000", "161228.840000", "161230.340000", "161231.840000", "161233.340000", "161234.840000", "161236.340000", "161237.840000", "161239.340000", "161240.840000", "161242.340000", "161243.840000", "161245.340000", "161246.840000", "161248.340000", "161249.840000", "161251.340000", "161252.840000", "161254.340000", "161255.840000", "161257.340000", "161258.840000", "161300.340000", "161301.840000", "161303.340000", "161304.840000", "161306.340000", "161307.840000", "161309.340000", "161310.840000", "161312.340000", "161313.840000", "161315.340000", "161316.840000", "161318.340000", "161319.840000", "161321.340000", "161322.840000", "161324.340000", "161325.840000", "161327.340000", "161328.840000", "161330.340000", "161331.840000", "161333.340000", "161334.840000", "161336.340000", "161337.840000", "161339.340000", "161340.840000", "161342.340000", "161343.840000", "161345.340000", "161346.840000", "161348.340000", "161349.840000", "161351.340000", "161352.840000", "161354.340000", "161355.840000", "161357.340000", "161358.840000", "161400.340000", "161401.840000", "161403.340000", "161404.840000", "161406.340000", "161407.840000", "161409.340000", "161410.840000", "161412.340000", "161413.840000", "161415.340000", "161416.840000", "161418.340000", "161419.840000", "161421.340000", "161422.840000", "161424.340000", "161425.840000", "161427.340000", "161428.840000", "161430.340000", "161431.840000", "161433.340000", "161434.840000", "161436.340000", "161437.840000", "161439.340000", "161440.840000", "161442.340000", "161443.840000", "161445.340000", "161446.840000", "161448.340000", "161449.840000", "161451.340000", "161452.840000", "161454.340000", "161455.840000", "161457.340000", "161458.840000", "161500.340000", "161501.840000", "161503.340000", "161504.840000", "161506.340000", "161507.840000", "161509.340000", "161510.840000", "161512.340000", "161513.840000", "161515.340000", "161516.840000", "161518.340000", "161519.840000", "161521.340000", "161522.840000", "161524.340000", "161525.840000", "161527.340000", "161528.840000", "161530.340000", "161531.840000", "161533.340000", "161534.840000", "161536.340000", "161537.840000", "161539.340000", "161540.840000", "161542.340000", "161543.840000", "161545.340000", "161546.840000", "161548.340000", "161549.840000", "161551.340000", "161552.840000", "161554.340000", "161555.840000", "161557.340000", "161558.840000", "161600.340000", "161601.840000", "161603.340000", "161604.840000", "161606.340000", "161607.840000", "161609.340000", "161610.840000", "161612.340000", "161613.840000", "161615.340000", "161616.840000", "161618.340000", "161619.840000", "161621.340000", "161622.840000", "161624.340000", "161625.840000", "161627.340000", "161628.840000", "161630.340000", "161631.840000", "161633.340000", "161634.840000", "161636.340000", "161637.840000", "161639.340000", "161640.840000", "161642.340000", "161643.840000", "161645.340000", "161646.840000", "161648.340000", "161649.840000", "161651.340000", "161652.840000", "161654.340000", "161655.840000", "161657.340000", "161658.840000", "161700.340000", "161701.840000", "161703.340000", "161704.840000", "161706.340000", "161707.840000", "161709.340000", "161710.840000", "161712.340000", "161713.840000", "161715.340000", "161716.840000", "161718.340000", "161719.840000", "161721.340000", "161722.840000", "161724.340000", "161725.840000", "161727.340000", "161728.840000", "161730.340000", "161731.840000", "161733.340000", "161734.840000", "161736.340000", "161737.840000", "161739.340000", "161740.840000", "161742.340000", "161743.840000", "161745.340000", "161746.840000", "161748.340000", "161749.840000", "161751.340000", "161752.840000", "161754.340000", "161755.840000", "161757.340000", "161758.840000", "161800.340000", "161801.840000", "161803.340000", "161804.840000", "161806.340000", "161807.840000", "161809.340000", "161810.840000", "161812.340000", "161813.840000", "161815.340000", "161816.840000", "161818.340000", "161819.840000", "161821.340000", "161822.840000", "161824.340000", "161825.840000", "161827.340000", "161828.840000", "161830.340000", "161831.840000", "161833.340000", "161834.840000", "161836.340000", "161837.840000", "161839.340000", "161840.840000", "161842.340000", "161843.840000", "161845.340000", "161846.840000", "161848.340000", "161849.840000", "161851.340000", "161852.840000", "161854.340000", "161855.840000", "161857.340000", "161858.840000", "161900.340000", "161901.840000", "161903.340000", "161904.840000", "161906.340000", "161907.840000", "161909.340000", "161910.840000", "161912.340000", "161913.840000", "161915.340000", "161916.840000", "161918.340000", "161919.840000", "161921.340000", "161922.840000", "161924.340000", "161925.840000", "161927.340000", "161928.840000", "161930.340000", "161931.840000", "161933.340000", "161934.840000", "161936.340000", "161937.840000", "161939.340000", "161940.840000", "161942.340000", "161943.840000", "161945.340000", "161946.840000", "161948.340000", "161949.840000", "161951.340000", "161952.840000", "161954.340000", "161955.840000", "161957.340000", "161958.840000", "162000.340000", "162001.840000", "162003.340000", "162004.840000", "162006.340000", "162007.840000", "162009.340000", "162010.840000", "162012.340000", "162013.840000", "162015.340000", "162016.840000", "162018.340000", "162019.840000", "162021.340000", "162022.840000", "162024.340000", "162025.840000", "162027.340000", "162028.840000", "162030.340000", "162031.840000", "162033.340000", "162034.840000", "162036.340000", "162037.840000", "162039.340000", "162040.840000", "162042.340000", "162043.840000", "162045.340000", "162046.840000", "162048.340000", "162049.840000", "162051.340000", "162052.840000", "162054.340000", "162055.840000", "162057.340000", "162058.840000", "162100.340000", "162101.840000", "162103.340000", "162104.840000", "162106.340000", "162107.840000", "162109.340000", "162110.840000", "162112.340000", "162113.840000", "162115.340000", "162116.840000", "162118.340000", "162119.840000", "162121.340000", "162122.840000", "162124.340000", "162125.840000", "162127.340000", "162128.840000", "162130.340000", "162131.840000", "162133.340000", "162134.840000", "162136.340000", "162137.840000", "162139.340000", "162140.840000", "162142.340000", "162143.840000", "162145.340000", "162146.840000", "162148.340000", "162149.840000", "162151.340000", "162152.840000", "162154.340000", "162155.840000", "162157.340000", "162158.840000", "162200.340000", "162201.840000", "162203.340000", "162204.840000", "162206.340000", "162207.840000", "162209.340000", "162210.840000", "162212.340000", "162213.840000", "162215.340000", "162216.840000", "162218.340000", "162219.840000", "162221.340000", "162222.840000", "162224.340000", "162225.840000", "162227.340000", "162228.840000", "162230.340000", "162231.840000", "162233.340000", "162234.840000", "162236.340000", "162237.840000", "162239.340000", "162240.840000", "162242.340000", "162243.840000", "162245.340000", "162246.840000", "162248.340000", "162249.840000", "162251.340000", "162252.840000", "162254.340000", "162255.840000", "162257.340000", "162258.840000", "162300.340000", "162301.840000", "162303.340000", "162304.840000", "162306.340000", "162307.840000", "162309.340000", "162310.840000", "162312.340000", "162313.840000", "162315.340000", "162316.840000", "162318.340000", "162319.840000", "162321.340000", "162322.840000", "162324.340000", "162325.840000", "162327.340000", "162328.840000", "162330.340000", "162331.840000", "162333.340000", "162334.840000", "162336.340000", "162337.840000", "162339.340000", "162340.840000", "162342.340000", "162343.840000", "162345.340000", "162346.840000", "162348.340000", "162349.840000", "162351.340000", "162352.840000", "162354.340000", "162355.840000", "162357.340000", "162358.840000", "162400.340000", "162401.840000", "162403.340000", "162404.840000", "162406.340000", "162407.840000", "162409.340000", "162410.840000", "162412.340000", "162413.840000", "162415.340000", "162416.840000", "162418.340000", "162419.840000", "162421.340000", "162422.840000", "162424.340000", "162425.840000", "162427.340000", "162428.840000", "162430.340000", "162431.840000", "162433.340000", "162434.840000", "162436.340000", "162437.840000", "162439.340000", "162440.840000", "162442.340000", "162443.840000", "162445.340000", "162446.840000", "162448.340000", "162449.840000", "162451.340000", "162452.840000", "162454.340000", "162455.840000", "162457.340000", "162458.840000", "162500.340000", "162501.840000", "162503.340000", "162504.840000", "162506.340000", "162507.840000", "162509.340000", "162510.840000", "162512.340000", "162513.840000", "162515.340000", "162516.840000", "162518.340000", "162519.840000", "162521.340000", "162522.840000", "162524.340000", "162525.840000", "162527.340000", "162528.840000", "162530.340000", "162531.840000", "162533.340000", "162534.840000", "162536.340000", "162537.840000", "162539.340000", "162540.840000", "162542.340000", "162543.840000", "162545.340000", "162546.840000", "162548.340000", "162549.840000", "162551.340000", "162552.840000", "162554.340000", "162555.840000", "162557.340000", "162558.840000", "162600.340000", "162601.840000", "162603.340000", "162604.840000", "162606.340000", "162607.840000", "162609.340000", "162610.840000", "162612.340000", "162613.840000", "162615.340000", "162616.840000", "162618.340000", "162619.840000", "162621.340000", "162622.840000", "162624.340000", "162625.840000", "162627.340000", "162628.840000", "162630.340000", "162631.840000", "162633.340000", "162634.840000", "162636.340000", "162637.840000", "162639.340000", "162640.840000", "162642.340000", "162643.840000", "162645.340000", "162646.840000", "162648.340000", "162649.840000", "162651.340000", "162652.840000", "162654.340000", "162655.840000", "162657.340000", "162658.840000", "162700.340000", "162701.840000", "162703.340000", "162704.840000", "162706.340000", "162707.840000", "162709.340000", "162710.840000", "162712.340000", "162713.840000", "162715.340000", "162716.840000", "162718.340000", "162719.840000", "162721.340000", "162722.840000", "162724.340000", "162725.840000", "162727.340000", "162728.840000", "162730.340000", "162731.840000", "162733.340000", "162734.840000", "162736.340000", "162737.840000", "162739.340000", "162740.840000", "162742.340000", "162743.840000", "162745.340000", "162746.840000", "162748.340000", "162749.840000", "162751.340000", "162752.840000", "162754.340000", "162755.840000", "162757.340000", "162758.840000", "162800.340000", "162801.840000", "162803.340000", "162804.840000", "162806.340000", "162807.840000", "162809.340000", "162810.840000", "162812.340000", "162813.840000", "162815.340