{
  "AcquisitionMatrixPE": 106,
  "AcquisitionNumber": 1,
  "AcquisitionTime": "18:57:55.472500",
  "BandwidthPerPixelPhaseEncode": 16.846,
  "BaseResolution": 106,
  "BodyPartExamined": "BRAIN",
  "CoilCombinationMethod": "Sum of Squares",
  "ConsistencyInfo": "N4_VE11C_LATEST_20160120",
  "ConversionSoftware": "dcm2niix",
  "ConversionSoftwareVersion": "v1.0.20220720",
  "DerivedVendorReportedEchoSpacing": 0.000560012,
  "DeviceSerialNumber": "166108",
  "DwellTime": 1.8e-06,
  "EchoTime": 0.0352,
  "EchoTrainLength": 106,
  "EffectiveEchoSpacing": 0.000560012,
  "FlipAngle": 60,
  "HeudiconvVersion": "1.3.0",
  "ImageComments": "Unaliased MB4/PE3/LB",
  "ImageOrientationPatientDICOM": [1, 0, 0, 0, 1, 0],
  "ImageOrientationText": "Tra",
  "ImageType": [
    "ORIGINAL",
    "PRIMARY",
    "M",
    "MB",
    "ND",
    "MOSAIC"
],
  "ImagingFrequency": 123.244,
  "InPlanePhaseEncodingDirectionDICOM": "COL",
  "InstitutionAddress": "Bedford Way 26,London,London,GB,WC1H 0AP",
  "InstitutionName": "University College",
  "InstitutionalDepartmentName": "Department",
  "MRAcquisitionType": "2D",
  "MagneticFieldStrength": 3,
  "Manufacturer": "Siemens",
  "ManufacturersModelName": "Prisma",
  "MatrixCoilMode": "SENSE",
  "Modality": "MR",
  "MultibandAccelerationFactor": 4,
  "NonlinearGradientCorrection": false,
  "PartialFourier": 1,
  "PatientPosition": "HFS",
  "PercentPhaseFOV": 100,
  "PercentSampling": 100,
  "PhaseEncodingDirection": "j-",
  "PhaseEncodingSteps": 106,
  "PhaseResolution": 1,
  "PixelBandwidth": 2620,
  "ProcedureStepDescription": "Egor^MovieProject2",
  "ProtocolName": "task-backtothefuture_run-2",
  "PulseSequenceDetails": "%CustomerSeq%\\cmrr_mbep2d_bold",
  "ReceiveCoilActiveElements": "HEA;HEP",
  "ReceiveCoilName": "Head_32",
  "ReconMatrixPE": 106,
  "RepetitionTime": 1.5,
  "SAR": 0.0825436,
  "ScanOptions": "FS\\EXT",
  "ScanningSequence": "EP",
  "SequenceName": "epfid2d1_106",
  "SequenceVariant": "SK\\SS",
  "SeriesDescription": "task-backtothefuture_run-2",
  "SeriesNumber": 7,
  "ShimSetting": [-1526, 597, 7397, 121, -61, 226, 130, -24],
  "SliceThickness": 2,
  "SliceTiming": [0, 1.0675, 0.6575, 0.245, 1.315, 0.9025, 0.4925, 0.08, 1.15, 0.74, 0.3275, 1.3975, 0.985, 0.575, 0.1625, 1.2325, 0.82, 0.41, 0, 1.0675, 0.6575, 0.245, 1.315, 0.9025, 0.4925, 0.08, 1.15, 0.74, 0.3275, 1.3975, 0.985, 0.575, 0.1625, 1.2325, 0.82, 0.41, 0, 1.0675, 0.6575, 0.245, 1.315, 0.9025, 0.4925, 0.08, 1.15, 0.74, 0.3275, 1.3975, 0.985, 0.575, 0.1625, 1.2325, 0.82, 0.41, 0, 1.0675, 0.6575, 0.245, 1.315, 0.9025, 0.4925, 0.08, 1.15, 0.74, 0.3275, 1.3975, 0.985, 0.575, 0.1625, 1.2325, 0.82, 0.41],
  "SoftwareVersions": "syngo MR E11",
  "SpacingBetweenSlices": 2,
  "StationName": "AWP166108",
  "TaskName": "backtothefuture",
  "TotalReadoutTime": 0.0588013,
  "TxRefAmp": 256.796,
  "WipMemBlock": "8a935ae4-020b-4fe8-ae38-c2088bbfada5||Sequence: R016 ve11c/master r/e634e98; Dec 19 2017 11:00:25 by eja",
  "dcmmeta_affine": [
    [-2.0, 0.0, 0.0, 106.0],
    [0.0, 2.0, 0.0, -84.72289276123047],
    [0.0, 0.0, 2.0, -64.97590637207031],
    [0.0, 0.0, 0.0, 1.0]
],
  "dcmmeta_reorient_transform": [
    [0.0, -1.0, 0.0, 105.0],
    [1.0, 0.0, 0.0, 0.0],
    [0.0, 0.0, 1.0, 0.0],
    [0.0, 0.0, 0.0, 1.0]
],
  "dcmmeta_shape": [106, 106, 72, 1522],
  "dcmmeta_slice_dim": 2,
  "dcmmeta_version": 0.6,
  "global": {
    "const": {
      "AcquisitionMatrix": [106, 0, 0, 106],
      "AngioFlag": "N",
      "BitsAllocated": 16,
      "BitsStored": 16,
      "BodyPartExamined": "BRAIN",
      "CardiacNumberOfImages": 1,
      "Columns": 954,
      "EchoNumbers": 1,
      "EchoTime": 35.2,
      "EchoTrainLength": 106,
      "FlipAngle": 60.0,
      "HighBit": 15,
      "ImageOrientationPatient": [1.0, 0.0, 0.0, 0.0, 1.0, 0.0],
      "ImagePositionPatient": [-954.0, -973.27710914612, -64.97590637207],
      "ImageType": [
        "ORIGINAL",
        "PRIMARY",
        "M",
        "MB",
        "ND",
        "MOSAIC"
],
      "ImagedNucleus": "1H",
      "ImagingFrequency": 123.243671,
      "InPlanePhaseEncodingDirection": "COL",
      "MRAcquisitionType": "2D",
      "MagneticFieldStrength": 3.0,
      "Manufacturer": "SIEMENS",
      "ManufacturerModelName": "Prisma",
      "Modality": "MR",
      "NominalInterval": 0,
      "NumberOfAverages": 1.0,
      "NumberOfPhaseEncodingSteps": 106,
      "PercentPhaseFieldOfView": 100.0,
      "PercentSampling": 100.0,
      "PerformedProcedureStepStartTime": "175446.320000",
      "PhotometricInterpretation": "MONOCHROME2",
      "PixelBandwidth": 2620.0,
      "PixelRepresentation": 0,
      "PixelSpacing": [2.0, 2.0],
      "ProtocolName": "task-backtothefuture_run-2",
      "RepetitionTime": 1500.0,
      "Rows": 954,
      "SAR": 0.08254362263891,
      "SamplesPerPixel": 1,
      "ScanOptions": [
        "FS",
        "EXT"
],
      "ScanningSequence": "EP",
      "SequenceName": "epfid2d1_106",
      "SequenceVariant": [
        "SK",
        "SS"
],
      "SeriesDescription": "task-backtothefuture_run-2",
      "SeriesNumber": 7,
      "SeriesTime": "185836.638000",
      "SliceLocation": -64.97590637207,
      "SliceThickness": 2.0,
      "SmallestImagePixelValue": 0,
      "SoftwareVersions": "syngo MR E11",
      "SpacingBetweenSlices": 2.0,
      "SpecificCharacterSet": "ISO_IR 100",
      "StudyID": "1",
      "StudyTime": "175446.184000",
      "TransmitCoilName": "Body",
      "VariableFlipAngleFlag": "N",
      "WindowCenterWidthExplanation": "Algo1",
      "dBdt": 0.0},
    "slices": {}
  },
  "time": {
    "samples": {
      "AcquisitionNumber": [1, 2, 3, 4, 5, 6, 7, 8, 9, 10, 11, 12, 13, 14, 15, 16, 17, 18, 19, 20, 21, 22, 23, 24, 25, 26, 27, 28, 29, 30, 31, 32, 33, 34, 35, 36, 37, 38, 39, 40, 41, 42, 43, 44, 45, 46, 47, 48, 49, 50, 51, 52, 53, 54, 55, 56, 57, 58, 59, 60, 61, 62, 63, 64, 65, 66, 67, 68, 69, 70, 71, 72, 73, 74, 75, 76, 77, 78, 79, 80, 81, 82, 83, 84, 85, 86, 87, 88, 89, 90, 91, 92, 93, 94, 95, 96, 97, 98, 99, 100, 101, 102, 103, 104, 105, 106, 107, 108, 109, 110, 111, 112, 113, 114, 115, 116, 117, 118, 119, 120, 121, 122, 123, 124, 125, 126, 127, 128, 129, 130, 131, 132, 133, 134, 135, 136, 137, 138, 139, 140, 141, 142, 143, 144, 145, 146, 147, 148, 149, 150, 151, 152, 153, 154, 155, 156, 157, 158, 159, 160, 161, 162, 163, 164, 165, 166, 167, 168, 169, 170, 171, 172, 173, 174, 175, 176, 177, 178, 179, 180, 181, 182, 183, 184, 185, 186, 187, 188, 189, 190, 191, 192, 193, 194, 195, 196, 197, 198, 199, 200, 201, 202, 203, 204, 205, 206, 207, 208, 209, 210, 211, 212, 213, 214, 215, 216, 217, 218, 219, 220, 221, 222, 223, 224, 225, 226, 227, 228, 229, 230, 231, 232, 233, 234, 235, 236, 237, 238, 239, 240, 241, 242, 243, 244, 245, 246, 247, 248, 249, 250, 251, 252, 253, 254, 255, 256, 257, 258, 259, 260, 261, 262, 263, 264, 265, 266, 267, 268, 269, 270, 271, 272, 273, 274, 275, 276, 277, 278, 279, 280, 281, 282, 283, 284, 285, 286, 287, 288, 289, 290, 291, 292, 293, 294, 295, 296, 297, 298, 299, 300, 301, 302, 303, 304, 305, 306, 307, 308, 309, 310, 311, 312, 313, 314, 315, 316, 317, 318, 319, 320, 321, 322, 323, 324, 325, 326, 327, 328, 329, 330, 331, 332, 333, 334, 335, 336, 337, 338, 339, 340, 341, 342, 343, 344, 345, 346, 347, 348, 349, 350, 351, 352, 353, 354, 355, 356, 357, 358, 359, 360, 361, 362, 363, 364, 365, 366, 367, 368, 369, 370, 371, 372, 373, 374, 375, 376, 377, 378, 379, 380, 381, 382, 383, 384, 385, 386, 387, 388, 389, 390, 391, 392, 393, 394, 395, 396, 397, 398, 399, 400, 401, 402, 403, 404, 405, 406, 407, 408, 409, 410, 411, 412, 413, 414, 415, 416, 417, 418, 419, 420, 421, 422, 423, 424, 425, 426, 427, 428, 429, 430, 431, 432, 433, 434, 435, 436, 437, 438, 439, 440, 441, 442, 443, 444, 445, 446, 447, 448, 449, 450, 451, 452, 453, 454, 455, 456, 457, 458, 459, 460, 461, 462, 463, 464, 465, 466, 467, 468, 469, 470, 471, 472, 473, 474, 475, 476, 477, 478, 479, 480, 481, 482, 483, 484, 485, 486, 487, 488, 489, 490, 491, 492, 493, 494, 495, 496, 497, 498, 499, 500, 501, 502, 503, 504, 505, 506, 507, 508, 509, 510, 511, 512, 513, 514, 515, 516, 517, 518, 519, 520, 521, 522, 523, 524, 525, 526, 527, 528, 529, 530, 531, 532, 533, 534, 535, 536, 537, 538, 539, 540, 541, 542, 543, 544, 545, 546, 547, 548, 549, 550, 551, 552, 553, 554, 555, 556, 557, 558, 559, 560, 561, 562, 563, 564, 565, 566, 567, 568, 569, 570, 571, 572, 573, 574, 575, 576, 577, 578, 579, 580, 581, 582, 583, 584, 585, 586, 587, 588, 589, 590, 591, 592, 593, 594, 595, 596, 597, 598, 599, 600, 601, 602, 603, 604, 605, 606, 607, 608, 609, 610, 611, 612, 613, 614, 615, 616, 617, 618, 619, 620, 621, 622, 623, 624, 625, 626, 627, 628, 629, 630, 631, 632, 633, 634, 635, 636, 637, 638, 639, 640, 641, 642, 643, 644, 645, 646, 647, 648, 649, 650, 651, 652, 653, 654, 655, 656, 657, 658, 659, 660, 661, 662, 663, 664, 665, 666, 667, 668, 669, 670, 671, 672, 673, 674, 675, 676, 677, 678, 679, 680, 681, 682, 683, 684, 685, 686, 687, 688, 689, 690, 691, 692, 693, 694, 695, 696, 697, 698, 699, 700, 701, 702, 703, 704, 705, 706, 707, 708, 709, 710, 711, 712, 713, 714, 715, 716, 717, 718, 719, 720, 721, 722, 723, 724, 725, 726, 727, 728, 729, 730, 731, 732, 733, 734, 735, 736, 737, 738, 739, 740, 741, 742, 743, 744, 745, 746, 747, 748, 749, 750, 751, 752, 753, 754, 755, 756, 757, 758, 759, 760, 761, 762, 763, 764, 765, 766, 767, 768, 769, 770, 771, 772, 773, 774, 775, 776, 777, 778, 779, 780, 781, 782, 783, 784, 785, 786, 787, 788, 789, 790, 791, 792, 793, 794, 795, 796, 797, 798, 799, 800, 801, 802, 803, 804, 805, 806, 807, 808, 809, 810, 811, 812, 813, 814, 815, 816, 817, 818, 819, 820, 821, 822, 823, 824, 825, 826, 827, 828, 829, 830, 831, 832, 833, 834, 835, 836, 837, 838, 839, 840, 841, 842, 843, 844, 845, 846, 847, 848, 849, 850, 851, 852, 853, 854, 855, 856, 857, 858, 859, 860, 861, 862, 863, 864, 865, 866, 867, 868, 869, 870, 871, 872, 873, 874, 875, 876, 877, 878, 879, 880, 881, 882, 883, 884, 885, 886, 887, 888, 889, 890, 891, 892, 893, 894, 895, 896, 897, 898, 899, 900, 901, 902, 903, 904, 905, 906, 907, 908, 909, 910, 911, 912, 913, 914, 915, 916, 917, 918, 919, 920, 921, 922, 923, 924, 925, 926, 927, 928, 929, 930, 931, 932, 933, 934, 935, 936, 937, 938, 939, 940, 941, 942, 943, 944, 945, 946, 947, 948, 949, 950, 951, 952, 953, 954, 955, 956, 957, 958, 959, 960, 961, 962, 963, 964, 965, 966, 967, 968, 969, 970, 971, 972, 973, 974, 975, 976, 977, 978, 979, 980, 981, 982, 983, 984, 985, 986, 987, 988, 989, 990, 991, 992, 993, 994, 995, 996, 997, 998, 999, 1000, 1001, 1002, 1003, 1004, 1005, 1006, 1007, 1008, 1009, 1010, 1011, 1012, 1013, 1014, 1015, 1016, 1017, 1018, 1019, 1020, 1021, 1022, 1023, 1024, 1025, 1026, 1027, 1028, 1029, 1030, 1031, 1032, 1033, 1034, 1035, 1036, 1037, 1038, 1039, 1040, 1041, 1042, 1043, 1044, 1045, 1046, 1047, 1048, 1049, 1050, 1051, 1052, 1053, 1054, 1055, 1056, 1057, 1058, 1059, 1060, 1061, 1062, 1063, 1064, 1065, 1066, 1067, 1068, 1069, 1070, 1071, 1072, 1073, 1074, 1075, 1076, 1077, 1078, 1079, 1080, 1081, 1082, 1083, 1084, 1085, 1086, 1087, 1088, 1089, 1090, 1091, 1092, 1093, 1094, 1095, 1096, 1097, 1098, 1099, 1100, 1101, 1102, 1103, 1104, 1105, 1106, 1107, 1108, 1109, 1110, 1111, 1112, 1113, 1114, 1115, 1116, 1117, 1118, 1119, 1120, 1121, 1122, 1123, 1124, 1125, 1126, 1127, 1128, 1129, 1130, 1131, 1132, 1133, 1134, 1135, 1136, 1137, 1138, 1139, 1140, 1141, 1142, 1143, 1144, 1145, 1146, 1147, 1148, 1149, 1150, 1151, 1152, 1153, 1154, 1155, 1156, 1157, 1158, 1159, 1160, 1161, 1162, 1163, 1164, 1165, 1166, 1167, 1168, 1169, 1170, 1171, 1172, 1173, 1174, 1175, 1176, 1177, 1178, 1179, 1180, 1181, 1182, 1183, 1184, 1185, 1186, 1187, 1188, 1189, 1190, 1191, 1192, 1193, 1194, 1195, 1196, 1197, 1198, 1199, 1200, 1201, 1202, 1203, 1204, 1205, 1206, 1207, 1208, 1209, 1210, 1211, 1212, 1213, 1214, 1215, 1216, 1217, 1218, 1219, 1220, 1221, 1222, 1223, 1224, 1225, 1226, 1227, 1228, 1229, 1230, 1231, 1232, 1233, 1234, 1235, 1236, 1237, 1238, 1239, 1240, 1241, 1242, 1243, 1244, 1245, 1246, 1247, 1248, 1249, 1250, 1251, 1252, 1253, 1254, 1255, 1256, 1257, 1258, 1259, 1260, 1261, 1262, 1263, 1264, 1265, 1266, 1267, 1268, 1269, 1270, 1271, 1272, 1273, 1274, 1275, 1276, 1277, 1278, 1279, 1280, 1281, 1282, 1283, 1284, 1285, 1286, 1287, 1288, 1289, 1290, 1291, 1292, 1293, 1294, 1295, 1296, 1297, 1298, 1299, 1300, 1301, 1302, 1303, 1304, 1305, 1306, 1307, 1308, 1309, 1310, 1311, 1312, 1313, 1314, 1315, 1316, 1317, 1318, 1319, 1320, 1321, 1322, 1323, 1324, 1325, 1326, 1327, 1328, 1329, 1330, 1331, 1332, 1333, 1334, 1335, 1336, 1337, 1338, 1339, 1340, 1341, 1342, 1343, 1344, 1345, 1346, 1347, 1348, 1349, 1350, 1351, 1352, 1353, 1354, 1355, 1356, 1357, 1358, 1359, 1360, 1361, 1362, 1363, 1364, 1365, 1366, 1367, 1368, 1369, 1370, 1371, 1372, 1373, 1374, 1375, 1376, 1377, 1378, 1379, 1380, 1381, 1382, 1383, 1384, 1385, 1386, 1387, 1388, 1389, 1390, 1391, 1392, 1393, 1394, 1395, 1396, 1397, 1398, 1399, 1400, 1401, 1402, 1403, 1404, 1405, 1406, 1407, 1408, 1409, 1410, 1411, 1412, 1413, 1414, 1415, 1416, 1417, 1418, 1419, 1420, 1421, 1422, 1423, 1424, 1425, 1426, 1427, 1428, 1429, 1430, 1431, 1432, 1433, 1434, 1435, 1436, 1437, 1438, 1439, 1440, 1441, 1442, 1443, 1444, 1445, 1446, 1447, 1448, 1449, 1450, 1451, 1452, 1453, 1454, 1455, 1456, 1457, 1458, 1459, 1460, 1461, 1462, 1463, 1464, 1465, 1466, 1467, 1468, 1469, 1470, 1471, 1472, 1473, 1474, 1475, 1476, 1477, 1478, 1479, 1480, 1481, 1482, 1483, 1484, 1485, 1486, 1487, 1488, 1489, 1490, 1491, 1492, 1493, 1494, 1495, 1496, 1497, 1498, 1499, 1500, 1501, 1502, 1503, 1504, 1505, 1506, 1507, 1508, 1509, 1510, 1511, 1512, 1513, 1514, 1515, 1516, 1517, 1518, 1519, 1520, 1521, 1522],
      "AcquisitionTime": ["185755.472500", "185756.972500", "185758.472500", "185759.972500", "185801.472500", "185802.972500", "185804.472500", "185805.972500", "185807.472500", "185808.972500", "185810.472500", "185811.972500", "185813.472500", "185814.972500", "185816.472500", "185817.972500", "185819.472500", "185820.972500", "185822.472500", "185823.972500", "185825.472500", "185826.972500", "185828.472500", "185829.972500", "185831.472500", "185832.972500", "185834.472500", "185835.972500", "185837.472500", "185838.972500", "185840.472500", "185841.972500", "185843.472500", "185844.972500", "185846.472500", "185847.972500", "185849.472500", "185850.972500", "185852.472500", "185853.972500", "185855.472500", "185856.972500", "185858.472500", "185859.972500", "185901.472500", "185902.972500", "185904.472500", "185905.972500", "185907.472500", "185908.972500", "185910.472500", "185911.972500", "185913.472500", "185914.972500", "185916.472500", "185917.972500", "185919.472500", "185920.972500", "185922.472500", "185923.972500", "185925.472500", "185926.972500", "185928.472500", "185929.972500", "185931.472500", "185932.972500", "185934.472500", "185935.972500", "185937.472500", "185938.972500", "185940.472500", "185941.972500", "185943.472500", "185944.972500", "185946.472500", "185947.972500", "185949.472500", "185950.972500", "185952.472500", "185953.972500", "185955.472500", "185956.972500", "185958.472500", "185959.972500", "190001.472500", "190002.972500", "190004.472500", "190005.972500", "190007.472500", "190008.972500", "190010.472500", "190011.972500", "190013.472500", "190014.972500", "190016.472500", "190017.972500", "190019.472500", "190020.972500", "190022.472500", "190023.972500", "190025.472500", "190026.972500", "190028.472500", "190029.972500", "190031.472500", "190032.972500", "190034.472500", "190035.972500", "190037.472500", "190038.972500", "190040.472500", "190041.972500", "190043.472500", "190044.972500", "190046.472500", "190047.972500", "190049.472500", "190050.972500", "190052.472500", "190053.972500", "190055.472500", "190056.972500", "190058.472500", "190059.972500", "190101.472500", "190102.972500", "190104.472500", "190105.972500", "190107.472500", "190108.972500", "190110.472500", "190111.972500", "190113.472500", "190114.972500", "190116.472500", "190117.972500", "190119.472500", "190120.972500", "190122.472500", "190123.972500", "190125.472500", "190126.972500", "190128.472500", "190129.972500", "190131.472500", "190132.972500", "190134.472500", "190135.972500", "190137.472500", "190138.972500", "190140.472500", "190141.972500", "190143.472500", "190144.972500", "190146.472500", "190147.972500", "190149.472500", "190150.972500", "190152.472500", "190153.972500", "190155.472500", "190156.972500", "190158.472500", "190159.972500", "190201.472500", "190202.972500", "190204.472500", "190205.972500", "190207.472500", "190208.972500", "190210.472500", "190211.972500", "190213.472500", "190214.972500", "190216.472500", "190217.972500", "190219.472500", "190220.972500", "190222.472500", "190223.972500", "190225.472500", "190226.972500", "190228.472500", "190229.972500", "190231.472500", "190232.972500", "190234.472500", "190235.972500", "190237.472500", "190238.972500", "190240.472500", "190241.972500", "190243.472500", "190244.972500", "190246.472500", "190247.972500", "190249.472500", "190250.972500", "190252.472500", "190253.972500", "190255.472500", "190256.972500", "190258.472500", "190259.972500", "190301.472500", "190302.972500", "190304.472500", "190305.972500", "190307.472500", "190308.972500", "190310.472500", "190311.972500", "190313.472500", "190314.972500", "190316.472500", "190317.972500", "190319.472500", "190320.972500", "190322.472500", "190323.972500", "190325.472500", "190326.972500", "190328.472500", "190329.972500", "190331.472500", "190332.972500", "190334.472500", "190335.972500", "190337.472500", "190338.972500", "190340.472500", "190341.972500", "190343.472500", "190344.972500", "190346.472500", "190347.972500", "190349.472500", "190350.972500", "190352.472500", "190353.972500", "190355.472500", "190356.972500", "190358.472500", "190359.972500", "190401.472500", "190402.972500", "190404.472500", "190405.972500", "190407.472500", "190408.972500", "190410.472500", "190411.972500", "190413.472500", "190414.972500", "190416.472500", "190417.972500", "190419.472500", "190420.972500", "190422.472500", "190423.972500", "190425.472500", "190426.972500", "190428.472500", "190429.972500", "190431.472500", "190432.972500", "190434.472500", "190435.972500", "190437.472500", "190438.972500", "190440.472500", "190441.972500", "190443.472500", "190444.972500", "190446.472500", "190447.972500", "190449.472500", "190450.972500", "190452.472500", "190453.972500", "190455.472500", "190456.972500", "190458.472500", "190459.972500", "190501.472500", "190502.972500", "190504.472500", "190505.972500", "190507.472500", "190508.972500", "190510.472500", "190511.972500", "190513.472500", "190514.972500", "190516.472500", "190517.972500", "190519.472500", "190520.972500", "190522.472500", "190523.972500", "190525.472500", "190526.972500", "190528.472500", "190529.972500", "190531.472500", "190532.972500", "190534.472500", "190535.972500", "190537.472500", "190538.972500", "190540.472500", "190541.972500", "190543.472500", "190544.972500", "190546.472500", "190547.972500", "190549.472500", "190550.972500", "190552.472500", "190553.972500", "190555.472500", "190556.972500", "190558.472500", "190559.972500", "190601.472500", "190602.972500", "190604.472500", "190605.972500", "190607.472500", "190608.972500", "190610.472500", "190611.972500", "190613.472500", "190614.972500", "190616.472500", "190617.972500", "190619.472500", "190620.972500", "190622.472500", "190623.972500", "190625.472500", "190626.972500", "190628.472500", "190629.972500", "190631.472500", "190632.972500", "190634.472500", "190635.972500", "190637.472500", "190638.972500", "190640.472500", "190641.972500", "190643.472500", "190644.972500", "190646.472500", "190647.972500", "190649.472500", "190650.972500", "190652.472500", "190653.972500", "190655.472500", "190656.972500", "190658.472500", "190659.972500", "190701.472500", "190702.972500", "190704.472500", "190705.972500", "190707.472500", "190708.972500", "190710.472500", "190711.972500", "190713.472500", "190714.972500", "190716.472500", "190717.972500", "190719.472500", "190720.972500", "190722.472500", "190723.972500", "190725.472500", "190726.972500", "190728.472500", "190729.972500", "190731.472500", "190732.972500", "190734.472500", "190735.972500", "190737.472500", "190738.972500", "190740.472500", "190741.972500", "190743.472500", "190744.972500", "190746.472500", "190747.972500", "190749.472500", "190750.972500", "190752.472500", "190753.972500", "190755.472500", "190756.972500", "190758.472500", "190759.972500", "190801.472500", "190802.972500", "190804.472500", "190805.972500", "190807.472500", "190808.972500", "190810.472500", "190811.972500", "190813.472500", "190814.972500", "190816.472500", "190817.972500", "190819.472500", "190820.972500", "190822.472500", "190823.972500", "190825.472500", "190826.972500", "190828.472500", "190829.972500", "190831.472500", "190832.972500", "190834.472500", "190835.972500", "190837.472500", "190838.972500", "190840.472500", "190841.972500", "190843.472500", "190844.972500", "190846.472500", "190847.972500", "190849.472500", "190850.972500", "190852.472500", "190853.972500", "190855.472500", "190856.972500", "190858.472500", "190859.972500", "190901.472500", "190902.972500", "190904.472500", "190905.972500", "190907.472500", "190908.972500", "190910.472500", "190911.972500", "190913.472500", "190914.972500", "190916.472500", "190917.972500", "190919.472500", "190920.972500", "190922.472500", "190923.972500", "190925.472500", "190926.972500", "190928.472500", "190929.972500", "190931.472500", "190932.972500", "190934.472500", "190935.972500", "190937.472500", "190938.972500", "190940.472500", "190941.972500", "190943.472500", "190944.972500", "190946.472500", "190947.972500", "190949.472500", "190950.972500", "190952.472500", "190953.972500", "190955.472500", "190956.972500", "190958.472500", "190959.972500", "191001.472500", "191002.972500", "191004.472500", "191005.972500", "191007.472500", "191008.972500", "191010.472500", "191011.972500", "191013.472500", "191014.972500", "191016.472500", "191017.972500", "191019.472500", "191020.972500", "191022.472500", "191023.972500", "191025.472500", "191026.972500", "191028.472500", "191029.972500", "191031.472500", "191032.972500", "191034.472500", "191035.972500", "191037.472500", "191038.972500", "191040.472500", "191041.972500", "191043.472500", "191044.972500", "191046.472500", "191047.972500", "191049.472500", "191050.972500", "191052.472500", "191053.972500", "191055.472500", "191056.972500", "191058.472500", "191059.972500", "191101.472500", "191102.972500", "191104.472500", "191105.972500", "191107.472500", "191108.972500", "191110.472500", "191111.972500", "191113.472500", "191114.972500", "191116.472500", "191117.972500", "191119.472500", "191120.972500", "191122.472500", "191123.972500", "191125.472500", "191126.972500", "191128.472500", "191129.972500", "191131.472500", "191132.972500", "191134.472500", "191135.972500", "191137.472500", "191138.972500", "191140.472500", "191141.972500", "191143.472500", "191144.972500", "191146.472500", "191147.972500", "191149.472500", "191150.972500", "191152.472500", "191153.972500", "191155.472500", "191156.972500", "191158.472500", "191159.972500", "191201.472500", "191202.972500", "191204.472500", "191205.972500", "191207.472500", "191208.972500", "191210.472500", "191211.972500", "191213.472500", "191214.972500", "191216.472500", "191217.972500", "191219.472500", "191220.972500", "191222.472500", "191223.972500", "191225.472500", "191226.972500", "191228.472500", "191229.972500", "191231.472500", "191232.972500", "191234.472500", "191235.972500", "191237.472500", "191238.972500", "191240.472500", "191241.972500", "191243.472500", "191244.972500", "191246.472500", "191247.972500", "191249.472500", "191250.972500", "191252.472500", "191253.972500", "191255.472500", "191256.972500", "191258.472500", "191259.972500", "191301.472500", "191302.972500", "191304.472500", "191305.972500", "191307.472500", "191308.972500", "191310.472500", "191311.972500", "191313.472500", "191314.972500", "191316.472500", "191317.972500", "191319.472500", "191320.972500", "191322.472500", "191323.972500", "191325.472500", "191326.972500", "191328.472500", "191329.972500", "191331.472500", "191332.972500", "191334.472500", "191335.972500", "191337.472500", "191338.972500", "191340.472500", "191341.972500", "191343.472500", "191344.972500", "191346.472500", "191347.972500", "191349.472500", "191350.972500", "191352.472500", "191353.972500", "191355.472500", "191356.972500", "191358.472500", "191359.972500", "191401.472500", "191402.972500", "191404.472500", "191405.972500", "191407.472500", "191408.972500", "191410.472500", "191411.972500", "191413.472500", "191414.972500", "191416.472500", "191417.972500", "191419.472500", "191420.972500", "191422.472500", "191423.972500", "191425.472500", "191426.972500", "191428.472500", "191429.972500", "191431.472500", "191432.972500", "191434.472500", "191435.972500", "191437.472500", "191438.972500", "191440.472500", "191441.972500", "191443.472500", "191444.972500", "191446.472500", "191447.972500", "191449.472500", "191450.972500", "191452.472500", "191453.972500", "191455.472500", "191456.972500", "191458.472500", "191459.972500", "191501.472500", "191502.972500", "191504.472500", "191505.972500", "191507.472500", "191508.972500", "191510.472500", "191511.972500", "191513.472500", "191514.972500", "191516.472500", "191517.972500", "191519.472500", "191520.972500", "191522.472500", "191523.972500", "191525.472500", "191526.972500", "191528.472500", "191529.972500", "191531.472500", "191532.972500", "191534.472500", "191535.972500", "191537.472500", "191538.972500", "191540.472500", "191541.972500", "191543.472500", "191544.972500", "191546.472500", "191547.972500", "191549.472500", "191550.972500", "191552.472500", "191553.972500", "191555.472500", "191556.972500", "191558.472500", "191559.972500", "191601.472500", "191602.972500", "191604.472500", "191605.972500", "191607.472500", "191608.972500", "191610.472500", "191611.972500", "191613.472500", "191614.972500", "191616.472500", "191617.972500", "191619.472500", "191620.972500", "191622.472500", "191623.972500", "191625.472500", "191626.972500", "191628.472500", "191629.972500", "191631.472500", "191632.972500", "191634.472500", "191635.972500", "191637.472500", "191638.972500", "191640.472500", "191641.972500", "191643.472500", "191644.972500", "191646.472500", "191647.972500", "191649.472500", "191650.972500", "191652.472500", "191653.972500", "191655.472500", "191656.972500", "191658.472500", "191659.972500", "191701.472500", "191702.972500", "191704.472500", "191705.972500", "191707.472500", "191708.972500", "191710.472500", "191711.972500", "191713.472500", "191714.972500", "191716.472500", "191717.972500", "191719.472500", "191720.972500", "191722.472500", "191723.972500", "191725.472500", "191726.972500", "191728.472500", "191729.972500", "191731.472500", "191732.972500", "191734.472500", "191735.972500", "191737.472500", "191738.972500", "191740.472500", "191741.972500", "191743.472500", "191744.972500", "191746.472500", "191747.972500", "191749.472500", "191750.972500", "191752.472500", "191753.972500", "191755.472500", "191756.972500", "191758.472500", "191759.972500", "191801.472500", "191802.972500", "191804.472500", "191805.972500", "191807.472500", "191808.972500", "191810.472500", "191811.972500", "191813.472500", "191814.972500", "191816.472500", "191817.972500", "191819.472500", "191820.972500", "191822.472500", "191823.972500", "191825.472500", "191826.972500", "191828.472500", "191829.972500", "191831.472500", "191832.972500", "191834.472500", "191835.972500", "191837.472500", "191838.972500", "191840.472500", "191841.972500", "191843.472500", "191844.972500", "191846.472500", "191847.972500", "191849.472500", "191850.972500", "191852.472500", "191853.972500", "191855.472500", "191856.972500", "191858.472500", "191859.972500", "191901.472500", "191902.972500", "191904.472500", "191905.972500", "191907.472500", "191908.972500", "191910.472500", "191911.972500", "191913.472500", "191914.972500", "191916.472500", "191917.972500", "191919.472500", "191920.972500", "191922.472500", "191923.972500", "191925.472500", "191926.972500", "191928.472500", "191929.972500", "191931.472500", "191932.972500", "191934.472500", "191935.972500", "191937.472500", "191938.972500", "191940.472500", "191941.972500", "191943.472500", "191944.972500", "191946.472500", "191947.972500", "191949.472500", "191950.972500", "191952.472500", "191953.972500", "191955.472500", "191956.972500", "191958.472500", "191959.972500", "192001.472500", "192002.972500", "192004.472500", "192005.972500", "192007.472500", "192008.972500", "192010.472500", "192011.972500", "192013.472500", "192014.972500", "192016.472500", "192017.972500", "192019.472500", "192020.972500", "192022.472500", "192023.972500", "192025.472500", "192026.972500", "192028.472500", "192029.972500", "192031.472500", "192032.972500", "192034.472500", "192035.972500", "192037.472500", "192038.972500", "192040.472500", "192041.972500", "192043.472500", "192044.972500", "192046.472500", "192047.972500", "192049.472500", "192050.972500", "192052.472500", "192053.972500", "192055.472500", "192056.972500", "192058.472500", "192059.972500", "192101.472500", "192102.972500", "192104.472500", "192105.972500", "192107.472500", "192108.972500", "192110.472500", "192111.972500", "192113.472500", "192114.972500", "192116.472500", "192117.972500", "192119.472500", "192120.972500", "192122.472500", "192123.972500", "192125.472500", "192126.972500", "192128.472500", "192129.972500", "192131.472500", "192132.972500", "192134.472500", "192135.972500", "192137.472500", "192138.972500", "192140.472500", "192141.972500", "192143.472500", "192144.972500", "192146.472500", "192147.972500", "192149.472500", "192150.972500", "192152.472500", "192153.972500", "192155.472500", "192156.9