{
  "AcquisitionMatrixPE": 106,
  "AcquisitionNumber": 1,
  "AcquisitionTime": "18:21:46.545000",
  "BandwidthPerPixelPhaseEncode": 16.846,
  "BaseResolution": 106,
  "BodyPartExamined": "BRAIN",
  "CoilCombinationMethod": "Sum of Squares",
  "ConsistencyInfo": "N4_VE11C_LATEST_20160120",
  "ConversionSoftware": "dcm2niix",
  "ConversionSoftwareVersion": "v1.0.20220720",
  "DerivedVendorReportedEchoSpacing": 0.000560012,
  "DeviceSerialNumber": "166108",
  "DwellTime": 1.8e-06,
  "EchoTime": 0.0352,
  "EchoTrainLength": 106,
  "EffectiveEchoSpacing": 0.000560012,
  "FlipAngle": 60,
  "HeudiconvVersion": "1.3.0",
  "ImageComments": "Unaliased MB4/PE3/LB",
  "ImageOrientationPatientDICOM": [1, 0, 0, 0, 1, 0],
  "ImageOrientationText": "Tra",
  "ImageType": [
    "ORIGINAL",
    "PRIMARY",
    "M",
    "MB",
    "ND",
    "MOSAIC"
],
  "ImagingFrequency": 123.244,
  "InPlanePhaseEncodingDirectionDICOM": "COL",
  "InstitutionAddress": "Bedford Way 26,London,London,GB,WC1H 0AP",
  "InstitutionName": "University College",
  "InstitutionalDepartmentName": "Department",
  "MRAcquisitionType": "2D",
  "MagneticFieldStrength": 3,
  "Manufacturer": "Siemens",
  "ManufacturersModelName": "Prisma",
  "MatrixCoilMode": "SENSE",
  "Modality": "MR",
  "MultibandAccelerationFactor": 4,
  "NonlinearGradientCorrection": false,
  "PartialFourier": 1,
  "PatientPosition": "HFS",
  "PercentPhaseFOV": 100,
  "PercentSampling": 100,
  "PhaseEncodingDirection": "j-",
  "PhaseEncodingSteps": 106,
  "PhaseResolution": 1,
  "PixelBandwidth": 2620,
  "ProcedureStepDescription": "Egor^MovieProject2",
  "ProtocolName": "task-backtothefuture_run-1",
  "PulseSequenceDetails": "%CustomerSeq%\\cmrr_mbep2d_bold",
  "ReceiveCoilActiveElements": "HEA;HEP",
  "ReceiveCoilName": "Head_32",
  "ReconMatrixPE": 106,
  "RepetitionTime": 1.5,
  "SAR": 0.0825278,
  "ScanOptions": "FS\\EXT",
  "ScanningSequence": "EP",
  "SequenceName": "epfid2d1_106",
  "SequenceVariant": "SK\\SS",
  "SeriesDescription": "task-backtothefuture_run-1",
  "SeriesNumber": 3,
  "ShimSetting": [-1526, 597, 7397, 121, -61, 226, 130, -24],
  "SliceThickness": 2,
  "SliceTiming": [0, 1.0675, 0.6575, 0.245, 1.315, 0.9025, 0.4925, 0.0825, 1.15, 0.74, 0.3275, 1.3975, 0.985, 0.575, 0.1625, 1.2325, 0.82, 0.41, 0, 1.0675, 0.6575, 0.245, 1.315, 0.9025, 0.4925, 0.0825, 1.15, 0.74, 0.3275, 1.3975, 0.985, 0.575, 0.1625, 1.2325, 0.82, 0.41, 0, 1.0675, 0.6575, 0.245, 1.315, 0.9025, 0.4925, 0.0825, 1.15, 0.74, 0.3275, 1.3975, 0.985, 0.575, 0.1625, 1.2325, 0.82, 0.41, 0, 1.0675, 0.6575, 0.245, 1.315, 0.9025, 0.4925, 0.0825, 1.15, 0.74, 0.3275, 1.3975, 0.985, 0.575, 0.1625, 1.2325, 0.82, 0.41],
  "SoftwareVersions": "syngo MR E11",
  "SpacingBetweenSlices": 2,
  "StationName": "AWP166108",
  "TaskName": "backtothefuture",
  "TotalReadoutTime": 0.0588013,
  "TxRefAmp": 256.796,
  "WipMemBlock": "78c6bcf5-c093-481f-9dc8-89b6a96d52fc||Sequence: R016 ve11c/master r/e634e98; Dec 19 2017 11:00:25 by eja",
  "dcmmeta_affine": [
    [-2.0, 0.0, 0.0, 106.0],
    [0.0, 2.0, 0.0, -84.72289276123047],
    [0.0, 0.0, 2.0, -64.97590637207031],
    [0.0, 0.0, 0.0, 1.0]
],
  "dcmmeta_reorient_transform": [
    [0.0, -1.0, 0.0, 105.0],
    [1.0, 0.0, 0.0, 0.0],
    [0.0, 0.0, 1.0, 0.0],
    [0.0, 0.0, 0.0, 1.0]
],
  "dcmmeta_shape": [106, 106, 72, 1360],
  "dcmmeta_slice_dim": 2,
  "dcmmeta_version": 0.6,
  "global": {
    "const": {
      "AcquisitionMatrix": [106, 0, 0, 106],
      "AngioFlag": "N",
      "BitsAllocated": 16,
      "BitsStored": 16,
      "BodyPartExamined": "BRAIN",
      "CardiacNumberOfImages": 1,
      "Columns": 954,
      "EchoNumbers": 1,
      "EchoTime": 35.2,
      "EchoTrainLength": 106,
      "FlipAngle": 60.0,
      "HighBit": 15,
      "ImageOrientationPatient": [1.0, 0.0, 0.0, 0.0, 1.0, 0.0],
      "ImagePositionPatient": [-954.0, -973.27710914612, -64.97590637207],
      "ImageType": [
        "ORIGINAL",
        "PRIMARY",
        "M",
        "MB",
        "ND",
        "MOSAIC"
],
      "ImagedNucleus": "1H",
      "ImagingFrequency": 123.243644,
      "InPlanePhaseEncodingDirection": "COL",
      "MRAcquisitionType": "2D",
      "MagneticFieldStrength": 3.0,
      "Manufacturer": "SIEMENS",
      "ManufacturerModelName": "Prisma",
      "Modality": "MR",
      "NominalInterval": 0,
      "NumberOfAverages": 1.0,
      "NumberOfPhaseEncodingSteps": 106,
      "PercentPhaseFieldOfView": 100.0,
      "PercentSampling": 100.0,
      "PerformedProcedureStepStartTime": "175446.320000",
      "PhotometricInterpretation": "MONOCHROME2",
      "PixelBandwidth": 2620.0,
      "PixelRepresentation": 0,
      "PixelSpacing": [2.0, 2.0],
      "ProtocolName": "task-backtothefuture_run-1",
      "RepetitionTime": 1500.0,
      "Rows": 954,
      "SAR": 0.08252783934224,
      "SamplesPerPixel": 1,
      "ScanOptions": [
        "FS",
        "EXT"
],
      "ScanningSequence": "EP",
      "SequenceName": "epfid2d1_106",
      "SequenceVariant": [
        "SK",
        "SS"
],
      "SeriesDescription": "task-backtothefuture_run-1",
      "SeriesNumber": 3,
      "SeriesTime": "182236.506000",
      "SliceLocation": -64.97590637207,
      "SliceThickness": 2.0,
      "SmallestImagePixelValue": 0,
      "SoftwareVersions": "syngo MR E11",
      "SpacingBetweenSlices": 2.0,
      "SpecificCharacterSet": "ISO_IR 100",
      "StudyID": "1",
      "StudyTime": "175446.184000",
      "TransmitCoilName": "Body",
      "VariableFlipAngleFlag": "N",
      "WindowCenterWidthExplanation": "Algo1",
      "dBdt": 0.0},
    "slices": {}
  },
  "time": {
    "samples": {
      "AcquisitionNumber": [1, 2, 3, 4, 5, 6, 7, 8, 9, 10, 11, 12, 13, 14, 15, 16, 17, 18, 19, 20, 21, 22, 23, 24, 25, 26, 27, 28, 29, 30, 31, 32, 33, 34, 35, 36, 37, 38, 39, 40, 41, 42, 43, 44, 45, 46, 47, 48, 49, 50, 51, 52, 53, 54, 55, 56, 57, 58, 59, 60, 61, 62, 63, 64, 65, 66, 67, 68, 69, 70, 71, 72, 73, 74, 75, 76, 77, 78, 79, 80, 81, 82, 83, 84, 85, 86, 87, 88, 89, 90, 91, 92, 93, 94, 95, 96, 97, 98, 99, 100, 101, 102, 103, 104, 105, 106, 107, 108, 109, 110, 111, 112, 113, 114, 115, 116, 117, 118, 119, 120, 121, 122, 123, 124, 125, 126, 127, 128, 129, 130, 131, 132, 133, 134, 135, 136, 137, 138, 139, 140, 141, 142, 143, 144, 145, 146, 147, 148, 149, 150, 151, 152, 153, 154, 155, 156, 157, 158, 159, 160, 161, 162, 163, 164, 165, 166, 167, 168, 169, 170, 171, 172, 173, 174, 175, 176, 177, 178, 179, 180, 181, 182, 183, 184, 185, 186, 187, 188, 189, 190, 191, 192, 193, 194, 195, 196, 197, 198, 199, 200, 201, 202, 203, 204, 205, 206, 207, 208, 209, 210, 211, 212, 213, 214, 215, 216, 217, 218, 219, 220, 221, 222, 223, 224, 225, 226, 227, 228, 229, 230, 231, 232, 233, 234, 235, 236, 237, 238, 239, 240, 241, 242, 243, 244, 245, 246, 247, 248, 249, 250, 251, 252, 253, 254, 255, 256, 257, 258, 259, 260, 261, 262, 263, 264, 265, 266, 267, 268, 269, 270, 271, 272, 273, 274, 275, 276, 277, 278, 279, 280, 281, 282, 283, 284, 285, 286, 287, 288, 289, 290, 291, 292, 293, 294, 295, 296, 297, 298, 299, 300, 301, 302, 303, 304, 305, 306, 307, 308, 309, 310, 311, 312, 313, 314, 315, 316, 317, 318, 319, 320, 321, 322, 323, 324, 325, 326, 327, 328, 329, 330, 331, 332, 333, 334, 335, 336, 337, 338, 339, 340, 341, 342, 343, 344, 345, 346, 347, 348, 349, 350, 351, 352, 353, 354, 355, 356, 357, 358, 359, 360, 361, 362, 363, 364, 365, 366, 367, 368, 369, 370, 371, 372, 373, 374, 375, 376, 377, 378, 379, 380, 381, 382, 383, 384, 385, 386, 387, 388, 389, 390, 391, 392, 393, 394, 395, 396, 397, 398, 399, 400, 401, 402, 403, 404, 405, 406, 407, 408, 409, 410, 411, 412, 413, 414, 415, 416, 417, 418, 419, 420, 421, 422, 423, 424, 425, 426, 427, 428, 429, 430, 431, 432, 433, 434, 435, 436, 437, 438, 439, 440, 441, 442, 443, 444, 445, 446, 447, 448, 449, 450, 451, 452, 453, 454, 455, 456, 457, 458, 459, 460, 461, 462, 463, 464, 465, 466, 467, 468, 469, 470, 471, 472, 473, 474, 475, 476, 477, 478, 479, 480, 481, 482, 483, 484, 485, 486, 487, 488, 489, 490, 491, 492, 493, 494, 495, 496, 497, 498, 499, 500, 501, 502, 503, 504, 505, 506, 507, 508, 509, 510, 511, 512, 513, 514, 515, 516, 517, 518, 519, 520, 521, 522, 523, 524, 525, 526, 527, 528, 529, 530, 531, 532, 533, 534, 535, 536, 537, 538, 539, 540, 541, 542, 543, 544, 545, 546, 547, 548, 549, 550, 551, 552, 553, 554, 555, 556, 557, 558, 559, 560, 561, 562, 563, 564, 565, 566, 567, 568, 569, 570, 571, 572, 573, 574, 575, 576, 577, 578, 579, 580, 581, 582, 583, 584, 585, 586, 587, 588, 589, 590, 591, 592, 593, 594, 595, 596, 597, 598, 599, 600, 601, 602, 603, 604, 605, 606, 607, 608, 609, 610, 611, 612, 613, 614, 615, 616, 617, 618, 619, 620, 621, 622, 623, 624, 625, 626, 627, 628, 629, 630, 631, 632, 633, 634, 635, 636, 637, 638, 639, 640, 641, 642, 643, 644, 645, 646, 647, 648, 649, 650, 651, 652, 653, 654, 655, 656, 657, 658, 659, 660, 661, 662, 663, 664, 665, 666, 667, 668, 669, 670, 671, 672, 673, 674, 675, 676, 677, 678, 679, 680, 681, 682, 683, 684, 685, 686, 687, 688, 689, 690, 691, 692, 693, 694, 695, 696, 697, 698, 699, 700, 701, 702, 703, 704, 705, 706, 707, 708, 709, 710, 711, 712, 713, 714, 715, 716, 717, 718, 719, 720, 721, 722, 723, 724, 725, 726, 727, 728, 729, 730, 731, 732, 733, 734, 735, 736, 737, 738, 739, 740, 741, 742, 743, 744, 745, 746, 747, 748, 749, 750, 751, 752, 753, 754, 755, 756, 757, 758, 759, 760, 761, 762, 763, 764, 765, 766, 767, 768, 769, 770, 771, 772, 773, 774, 775, 776, 777, 778, 779, 780, 781, 782, 783, 784, 785, 786, 787, 788, 789, 790, 791, 792, 793, 794, 795, 796, 797, 798, 799, 800, 801, 802, 803, 804, 805, 806, 807, 808, 809, 810, 811, 812, 813, 814, 815, 816, 817, 818, 819, 820, 821, 822, 823, 824, 825, 826, 827, 828, 829, 830, 831, 832, 833, 834, 835, 836, 837, 838, 839, 840, 841, 842, 843, 844, 845, 846, 847, 848, 849, 850, 851, 852, 853, 854, 855, 856, 857, 858, 859, 860, 861, 862, 863, 864, 865, 866, 867, 868, 869, 870, 871, 872, 873, 874, 875, 876, 877, 878, 879, 880, 881, 882, 883, 884, 885, 886, 887, 888, 889, 890, 891, 892, 893, 894, 895, 896, 897, 898, 899, 900, 901, 902, 903, 904, 905, 906, 907, 908, 909, 910, 911, 912, 913, 914, 915, 916, 917, 918, 919, 920, 921, 922, 923, 924, 925, 926, 927, 928, 929, 930, 931, 932, 933, 934, 935, 936, 937, 938, 939, 940, 941, 942, 943, 944, 945, 946, 947, 948, 949, 950, 951, 952, 953, 954, 955, 956, 957, 958, 959, 960, 961, 962, 963, 964, 965, 966, 967, 968, 969, 970, 971, 972, 973, 974, 975, 976, 977, 978, 979, 980, 981, 982, 983, 984, 985, 986, 987, 988, 989, 990, 991, 992, 993, 994, 995, 996, 997, 998, 999, 1000, 1001, 1002, 1003, 1004, 1005, 1006, 1007, 1008, 1009, 1010, 1011, 1012, 1013, 1014, 1015, 1016, 1017, 1018, 1019, 1020, 1021, 1022, 1023, 1024, 1025, 1026, 1027, 1028, 1029, 1030, 1031, 1032, 1033, 1034, 1035, 1036, 1037, 1038, 1039, 1040, 1041, 1042, 1043, 1044, 1045, 1046, 1047, 1048, 1049, 1050, 1051, 1052, 1053, 1054, 1055, 1056, 1057, 1058, 1059, 1060, 1061, 1062, 1063, 1064, 1065, 1066, 1067, 1068, 1069, 1070, 1071, 1072, 1073, 1074, 1075, 1076, 1077, 1078, 1079, 1080, 1081, 1082, 1083, 1084, 1085, 1086, 1087, 1088, 1089, 1090, 1091, 1092, 1093, 1094, 1095, 1096, 1097, 1098, 1099, 1100, 1101, 1102, 1103, 1104, 1105, 1106, 1107, 1108, 1109, 1110, 1111, 1112, 1113, 1114, 1115, 1116, 1117, 1118, 1119, 1120, 1121, 1122, 1123, 1124, 1125, 1126, 1127, 1128, 1129, 1130, 1131, 1132, 1133, 1134, 1135, 1136, 1137, 1138, 1139, 1140, 1141, 1142, 1143, 1144, 1145, 1146, 1147, 1148, 1149, 1150, 1151, 1152, 1153, 1154, 1155, 1156, 1157, 1158, 1159, 1160, 1161, 1162, 1163, 1164, 1165, 1166, 1167, 1168, 1169, 1170, 1171, 1172, 1173, 1174, 1175, 1176, 1177, 1178, 1179, 1180, 1181, 1182, 1183, 1184, 1185, 1186, 1187, 1188, 1189, 1190, 1191, 1192, 1193, 1194, 1195, 1196, 1197, 1198, 1199, 1200, 1201, 1202, 1203, 1204, 1205, 1206, 1207, 1208, 1209, 1210, 1211, 1212, 1213, 1214, 1215, 1216, 1217, 1218, 1219, 1220, 1221, 1222, 1223, 1224, 1225, 1226, 1227, 1228, 1229, 1230, 1231, 1232, 1233, 1234, 1235, 1236, 1237, 1238, 1239, 1240, 1241, 1242, 1243, 1244, 1245, 1246, 1247, 1248, 1249, 1250, 1251, 1252, 1253, 1254, 1255, 1256, 1257, 1258, 1259, 1260, 1261, 1262, 1263, 1264, 1265, 1266, 1267, 1268, 1269, 1270, 1271, 1272, 1273, 1274, 1275, 1276, 1277, 1278, 1279, 1280, 1281, 1282, 1283, 1284, 1285, 1286, 1287, 1288, 1289, 1290, 1291, 1292, 1293, 1294, 1295, 1296, 1297, 1298, 1299, 1300, 1301, 1302, 1303, 1304, 1305, 1306, 1307, 1308, 1309, 1310, 1311, 1312, 1313, 1314, 1315, 1316, 1317, 1318, 1319, 1320, 1321, 1322, 1323, 1324, 1325, 1326, 1327, 1328, 1329, 1330, 1331, 1332, 1333, 1334, 1335, 1336, 1337, 1338, 1339, 1340, 1341, 1342, 1343, 1344, 1345, 1346, 1347, 1348, 1349, 1350, 1351, 1352, 1353, 1354, 1355, 1356, 1357, 1358, 1359, 1360],
      "AcquisitionTime": ["182146.545000", "182148.045000", "182149.545000", "182151.045000", "182152.545000", "182154.045000", "182155.545000", "182157.045000", "182158.545000", "182200.045000", "182201.545000", "182203.045000", "182204.545000", "182206.045000", "182207.545000", "182209.045000", "182210.545000", "182212.045000", "182213.545000", "182215.045000", "182216.545000", "182218.045000", "182219.545000", "182221.045000", "182222.545000", "182224.045000", "182225.545000", "182227.045000", "182228.545000", "182230.045000", "182231.545000", "182233.045000", "182234.545000", "182236.045000", "182237.545000", "182239.045000", "182240.545000", "182242.045000", "182243.545000", "182245.045000", "182246.545000", "182248.045000", "182249.545000", "182251.045000", "182252.545000", "182254.045000", "182255.545000", "182257.045000", "182258.545000", "182300.045000", "182301.545000", "182303.045000", "182304.545000", "182306.045000", "182307.545000", "182309.045000", "182310.545000", "182312.045000", "182313.545000", "182315.045000", "182316.545000", "182318.045000", "182319.545000", "182321.045000", "182322.545000", "182324.045000", "182325.545000", "182327.045000", "182328.545000", "182330.045000", "182331.545000", "182333.045000", "182334.545000", "182336.045000", "182337.545000", "182339.045000", "182340.545000", "182342.045000", "182343.545000", "182345.045000", "182346.545000", "182348.045000", "182349.545000", "182351.045000", "182352.545000", "182354.045000", "182355.545000", "182357.045000", "182358.545000", "182400.045000", "182401.545000", "182403.045000", "182404.545000", "182406.045000", "182407.545000", "182409.045000", "182410.545000", "182412.045000", "182413.545000", "182415.045000", "182416.545000", "182418.045000", "182419.545000", "182421.045000", "182422.545000", "182424.045000", "182425.545000", "182427.045000", "182428.545000", "182430.045000", "182431.545000", "182433.045000", "182434.545000", "182436.045000", "182437.545000", "182439.045000", "182440.545000", "182442.045000", "182443.545000", "182445.045000", "182446.545000", "182448.045000", "182449.545000", "182451.045000", "182452.545000", "182454.045000", "182455.545000", "182457.045000", "182458.545000", "182500.045000", "182501.545000", "182503.045000", "182504.545000", "182506.045000", "182507.545000", "182509.045000", "182510.545000", "182512.045000", "182513.545000", "182515.045000", "182516.545000", "182518.045000", "182519.545000", "182521.045000", "182522.545000", "182524.045000", "182525.545000", "182527.045000", "182528.545000", "182530.045000", "182531.545000", "182533.045000", "182534.545000", "182536.045000", "182537.545000", "182539.045000", "182540.545000", "182542.045000", "182543.545000", "182545.045000", "182546.545000", "182548.045000", "182549.545000", "182551.045000", "182552.545000", "182554.045000", "182555.545000", "182557.045000", "182558.545000", "182600.045000", "182601.545000", "182603.045000", "182604.545000", "182606.045000", "182607.545000", "182609.045000", "182610.545000", "182612.045000", "182613.545000", "182615.045000", "182616.545000", "182618.045000", "182619.545000", "182621.045000", "182622.545000", "182624.045000", "182625.545000", "182627.045000", "182628.545000", "182630.045000", "182631.545000", "182633.045000", "182634.545000", "182636.045000", "182637.545000", "182639.045000", "182640.545000", "182642.045000", "182643.545000", "182645.045000", "182646.545000", "182648.045000", "182649.545000", "182651.045000", "182652.545000", "182654.045000", "182655.545000", "182657.045000", "182658.545000", "182700.045000", "182701.545000", "182703.045000", "182704.545000", "182706.045000", "182707.545000", "182709.045000", "182710.545000", "182712.045000", "182713.545000", "182715.045000", "182716.545000", "182718.045000", "182719.545000", "182721.045000", "182722.545000", "182724.045000", "182725.545000", "182727.045000", "182728.545000", "182730.045000", "182731.545000", "182733.045000", "182734.545000", "182736.045000", "182737.545000", "182739.045000", "182740.545000", "182742.045000", "182743.545000", "182745.045000", "182746.545000", "182748.045000", "182749.545000", "182751.045000", "182752.545000", "182754.045000", "182755.545000", "182757.045000", "182758.545000", "182800.045000", "182801.545000", "182803.045000", "182804.545000", "182806.045000", "182807.545000", "182809.045000", "182810.545000", "182812.045000", "182813.545000", "182815.045000", "182816.545000", "182818.045000", "182819.545000", "182821.045000", "182822.545000", "182824.045000", "182825.545000", "182827.045000", "182828.545000", "182830.045000", "182831.545000", "182833.045000", "182834.545000", "182836.045000", "182837.545000", "182839.045000", "182840.545000", "182842.045000", "182843.545000", "182845.045000", "182846.545000", "182848.045000", "182849.545000", "182851.045000", "182852.545000", "182854.045000", "182855.545000", "182857.045000", "182858.545000", "182900.045000", "182901.545000", "182903.045000", "182904.545000", "182906.045000", "182907.545000", "182909.045000", "182910.545000", "182912.045000", "182913.545000", "182915.045000", "182916.545000", "182918.045000", "182919.545000", "182921.045000", "182922.545000", "182924.045000", "182925.545000", "182927.045000", "182928.545000", "182930.045000", "182931.545000", "182933.045000", "182934.545000", "182936.045000", "182937.545000", "182939.045000", "182940.545000", "182942.045000", "182943.545000", "182945.045000", "182946.545000", "182948.045000", "182949.545000", "182951.045000", "182952.545000", "182954.045000", "182955.545000", "182957.045000", "182958.545000", "183000.045000", "183001.545000", "183003.045000", "183004.545000", "183006.045000", "183007.545000", "183009.045000", "183010.545000", "183012.045000", "183013.545000", "183015.045000", "183016.545000", "183018.045000", "183019.545000", "183021.045000", "183022.545000", "183024.045000", "183025.545000", "183027.045000", "183028.545000", "183030.045000", "183031.545000", "183033.045000", "183034.545000", "183036.045000", "183037.545000", "183039.045000", "183040.545000", "183042.045000", "183043.545000", "183045.045000", "183046.545000", "183048.045000", "183049.545000", "183051.045000", "183052.545000", "183054.045000", "183055.545000", "183057.045000", "183058.545000", "183100.045000", "183101.545000", "183103.045000", "183104.545000", "183106.045000", "183107.545000", "183109.045000", "183110.545000", "183112.045000", "183113.545000", "183115.045000", "183116.545000", "183118.045000", "183119.545000", "183121.045000", "183122.545000", "183124.045000", "183125.545000", "183127.045000", "183128.545000", "183130.045000", "183131.545000", "183133.045000", "183134.545000", "183136.045000", "183137.545000", "183139.045000", "183140.545000", "183142.045000", "183143.545000", "183145.045000", "183146.545000", "183148.045000", "183149.545000", "183151.045000", "183152.545000", "183154.045000", "183155.545000", "183157.045000", "183158.545000", "183200.045000", "183201.545000", "183203.045000", "183204.545000", "183206.045000", "183207.545000", "183209.045000", "183210.545000", "183212.045000", "183213.545000", "183215.045000", "183216.545000", "183218.045000", "183219.545000", "183221.045000", "183222.545000", "183224.045000", "183225.545000", "183227.045000", "183228.545000", "183230.045000", "183231.545000", "183233.045000", "183234.545000", "183236.045000", "183237.545000", "183239.045000", "183240.545000", "183242.045000", "183243.545000", "183245.045000", "183246.545000", "183248.045000", "183249.545000", "183251.045000", "183252.545000", "183254.045000", "183255.545000", "183257.045000", "183258.545000", "183300.045000", "183301.545000", "183303.045000", "183304.545000", "183306.045000", "183307.545000", "183309.045000", "183310.545000", "183312.045000", "183313.545000", "183315.045000", "183316.545000", "183318.045000", "183319.545000", "183321.045000", "183322.545000", "183324.045000", "183325.545000", "183327.045000", "183328.545000", "183330.045000", "183331.545000", "183333.045000", "183334.545000", "183336.045000", "183337.545000", "183339.045000", "183340.545000", "183342.045000", "183343.545000", "183345.045000", "183346.545000", "183348.045000", "183349.545000", "183351.045000", "183352.545000", "183354.045000", "183355.545000", "183357.045000", "183358.545000", "183400.045000", "183401.545000", "183403.045000", "183404.545000", "183406.045000", "183407.545000", "183409.045000", "183410.545000", "183412.045000", "183413.545000", "183415.045000", "183416.545000", "183418.045000", "183419.545000", "183421.045000", "183422.545000", "183424.045000", "183425.545000", "183427.045000", "183428.545000", "183430.045000", "183431.545000", "183433.045000", "183434.545000", "183436.045000", "183437.545000", "183439.045000", "183440.545000", "183442.045000", "183443.545000", "183445.045000", "183446.545000", "183448.045000", "183449.545000", "183451.045000", "183452.545000", "183454.045000", "183455.545000", "183457.045000", "183458.545000", "183500.045000", "183501.545000", "183503.045000", "183504.545000", "183506.045000", "183507.545000", "183509.045000", "183510.545000", "183512.045000", "183513.545000", "183515.045000", "183516.545000", "183518.045000", "183519.545000", "183521.045000", "183522.545000", "183524.045000", "183525.545000", "183527.045000", "183528.545000", "183530.045000", "183531.545000", "183533.045000", "183534.545000", "183536.045000", "183537.545000", "183539.045000", "183540.545000", "183542.045000", "183543.545000", "183545.045000", "183546.545000", "183548.045000", "183549.545000", "183551.045000", "183552.545000", "183554.045000", "183555.545000", "183557.045000", "183558.545000", "183600.045000", "183601.545000", "183603.045000", "183604.545000", "183606.045000", "183607.545000", "183609.045000", "183610.545000", "183612.045000", "183613.545000", "183615.045000", "183616.545000", "183618.045000", "183619.545000", "183621.045000", "183622.545000", "183624.045000", "183625.545000", "183627.045000", "183628.545000", "183630.045000", "183631.545000", "183633.045000", "183634.545000", "183636.045000", "183637.545000", "183639.045000", "183640.545000", "183642.045000", "183643.545000", "183645.045000", "183646.545000", "183648.045000", "183649.545000", "183651.045000", "183652.545000", "183654.045000", "183655.545000", "183657.045000", "183658.545000", "183700.045000", "183701.545000", "183703.045000", "183704.545000", "183706.045000", "183707.545000", "183709.045000", "183710.545000", "183712.045000", "183713.545000", "183715.045000", "183716.545000", "183718.045000", "183719.545000", "183721.045000", "183722.545000", "183724.045000", "183725.545000", "183727.045000", "183728.545000", "183730.045000", "183731.545000", "183733.045000", "183734.545000", "183736.045000", "183737.545000", "183739.045000", "183740.545000", "183742.045000", "183743.545000", "183745.045000", "183746.545000", "183748.045000", "183749.545000", "183751.045000", "183752.545000", "183754.045000", "183755.545000", "183757.045000", "183758.545000", "183800.045000", "183801.545000", "183803.045000", "183804.545000", "183806.045000", "183807.545000", "183809.045000", "183810.545000", "183812.045000", "183813.545000", "183815.045000", "183816.545000", "183818.045000", "183819.545000", "183821.045000", "183822.545000", "183824.045000", "183825.545000", "183827.045000", "183828.545000", "183830.045000", "183831.545000", "183833.045000", "183834.545000", "183836.045000", "183837.545000", "183839.045000", "183840.545000", "183842.045000", "183843.545000", "183845.045000", "183846.545000", "183848.045000", "183849.545000", "183851.045000", "183852.545000", "183854.045000", "183855.545000", "183857.045000", "183858.545000", "183900.045000", "183901.545000", "183903.045000", "183904.545000", "183906.045000", "183907.545000", "183909.045000", "183910.545000", "183912.045000", "183913.545000", "183915.045000", "183916.545000", "183918.045000", "183919.545000", "183921.045000", "183922.545000", "183924.045000", "183925.545000", "183927.045000", "183928.545000", "183930.045000", "183931.545000", "183933.045000", "183934.545000", "183936.045000", "183937.545000", "183939.045000", "183940.545000", "183942.045000", "183943.545000", "183945.045000", "183946.545000", "183948.045000", "183949.545000", "183951.045000", "183952.545000", "183954.045000", "183955.545000", "183957.045000", "183958.545000", "184000.045000", "184001.545000", "184003.045000", "184004.545000", "184006.045000", "184007.545000", "184009.045000", "184010.545000", "184012.045000", "184013.545000", "184015.045000", "184016.545000", "184018.045000", "184019.545000", "184021.045000", "184022.545000", "184024.045000", "184025.545000", "184027.045000", "184028.545000", "184030.045000", "184031.545000", "184033.045000", "184034.545000", "184036.045000", "184037.545000", "184039.045000", "184040.545000", "184042.045000", "184043.545000", "184045.045000", "184046.545000", "184048.045000", "184049.545000", "184051.045000", "184052.545000", "184054.045000", "184055.545000", "184057.045000", "184058.545000", "184100.045000", "184101.545000", "184103.045000", "184104.545000", "184106.045000", "184107.545000", "184109.045000", "184110.545000", "184112.045000", "184113.545000", "184115.045000", "184116.545000", "184118.045000", "184119.545000", "184121.045000", "184122.545000", "184124.045000", "184125.545000", "184127.045000", "184128.545000", "184130.045000", "184131.545000", "184133.045000", "184134.545000", "184136.045000", "184137.545000", "184139.045000", "184140.545000", "184142.045000", "184143.545000", "184145.045000", "184146.545000", "184148.045000", "184149.545000", "184151.045000", "184152.545000", "184154.045000", "184155.545000", "184157.045000", "184158.545000", "184200.045000", "184201.545000", "184203.045000", "184204.545000", "184206.045000", "184207.545000", "184209.045000", "184210.545000", "184212.045000", "184213.545000", "184215.045000", "184216.545000", "184218.045000", "184219.545000", "184221.045000", "184222.545000", "184224.045000", "184225.545000", "184227.045000", "184228.545000", "184230.045000", "184231.545000", "184233.045000", "184234.545000", "184236.045000", "184237.545000", "184239.045000", "184240.545000", "184242.045000", "184243.545000", "184245.045000", "184246.545000", "184248.045000", "184249.545000", "184251.045000", "184252.545000", "184254.045000", "184255.545000", "184257.045000", "184258.545000", "184300.045000", "184301.545000", "184303.045000", "184304.545000", "184306.045000", "184307.545000", "184309.045000", "184310.545000", "184312.045000", "184313.545000", "184315.045000", "184316.545000", "184318.045000", "184319.545000", "184321.045000", "184322.545000", "184324.045000", "184325.545000", "184327.045000", "184328.545000", "184330.045000", "184331.545000", "184333.045000", "184334.545000", "184336.045000", "184337.545000", "184339.045000", "184340.545000", "184342.045000", "184343.545000", "184345.045000", "184346.545000", "184348.045000", "184349.545000", "184351.045000", "184352.545000", "184354.045000", "184355.545000", "184357.045000", "184358.545000", "184400.045000", "184401.545000", "184403.045000", "184404.545000", "184406.045000", "184407.545000", "184409.045000", "184410.545000", "184412.045000", "184413.545000", "184415.045000", "184416.545000", "184418.045000", "184419.545000", "184421.045000", "184422.545000", "184424.045000", "184425.545000", "184427.045000", "184428.545000", "184430.045000", "184431.545000", "184433.045000", "184434.545000", "184436.045000", "184437.545000", "184439.045000", "184440.545000", "184442.045000", "184443.545000", "184445.045000", "184446.545000", "184448.045000", "184449.545000", "184451.045000", "184452.545000", "184454.045000", "184455.545000", "184457.045000", "184458.545000", "184500.045000", "184501.545000", "184503.045000", "184504.545000", "184506.045000", "184507.545000", "184509.045000", "184510.545000", "184512.045000", "184513.545000", "184515.045000", "184516.545000", "184518.045000", "184519.545000", "184521.045000", "184522.545000", "184524.045000", "184525.545000", "184527.045000", "184528.545000", "184530.045000", "184531.545000", "184533.045000", "184534.545000", "184536.045000", "184537.545000", "184539.045000", "184540.545000", "184542.045000", "184543.545000", "184545.045000", "184546.545000", "184548.045000", "184549.545000", "184551.045000", "184552.545000", "184554.045000", "184555.545000", "184557.045000", "184558.545000", "184600.045000", "184601.545000", "184603.045000", "184604.545000", "184606.045000", "184607.545000", "184609.045000", "184610.545000", "184612.045000", "184613.545000", "184615.045000", "184616.545000", "184618.045000", "184619.545000", "184621.045000", "184622.545000", "184624.045000", "184625.545000", "184627.045000", "184628.545000", "184630.045000", "184631.545000", "184633.045000", "184634.545000", "184636.045000", "184637.545000", "184639.045000", "184640.545000", "184642.045000", "184643.545000", "184645.045000", "184646.545000", "184648.045000", "184649.545000", "184651.045000", "184652.545000", "184654.045000", "184655.545000", "184657.045000", "184658.545000", "184700.045000", "184701.545000", "184703.045000", "184704.545000", "184706.045000", "184707.545000", "184709.045000", "184710.545000", "184712.045000", "184