{
  "AcquisitionMatrixPE": 106,
  "AcquisitionNumber": 1,
  "AcquisitionTime": "19:35:52.122500",
  "BandwidthPerPixelPhaseEncode": 16.846,
  "BaseResolution": 106,
  "BodyPartExamined": "BRAIN",
  "CoilCombinationMethod": "Sum of Squares",
  "ConsistencyInfo": "N4_VE11C_LATEST_20160120",
  "ConversionSoftware": "dcm2niix",
  "ConversionSoftwareVersion": "v1.0.20220720",
  "DerivedVendorReportedEchoSpacing": 0.000560012,
  "DeviceSerialNumber": "166108",
  "DwellTime": 1.8e-06,
  "EchoTime": 0.0352,
  "EchoTrainLength": 106,
  "EffectiveEchoSpacing": 0.000560012,
  "FlipAngle": 60,
  "HeudiconvVersion": "1.3.0",
  "ImageComments": "Unaliased MB4/PE3/LB",
  "ImageOrientationPatientDICOM": [1, 0, 0, 0, 0.949425, -0.313992],
  "ImageOrientationText": "Tra>Cor(-18.3)",
  "ImageType": [
    "ORIGINAL",
    "PRIMARY",
    "M",
    "MB",
    "ND",
    "MOSAIC"
],
  "ImagingFrequency": 123.244,
  "InPlanePhaseEncodingDirectionDICOM": "COL",
  "InstitutionAddress": "Bedford Way 26,London,London,GB,WC1H 0AP",
  "InstitutionName": "University College",
  "InstitutionalDepartmentName": "Department",
  "MRAcquisitionType": "2D",
  "MagneticFieldStrength": 3,
  "Manufacturer": "Siemens",
  "ManufacturersModelName": "Prisma",
  "MatrixCoilMode": "SENSE",
  "Modality": "MR",
  "MultibandAccelerationFactor": 4,
  "NonlinearGradientCorrection": false,
  "PartialFourier": 1,
  "PatientPosition": "HFS",
  "PercentPhaseFOV": 100,
  "PercentSampling": 100,
  "PhaseEncodingDirection": "j-",
  "PhaseEncodingSteps": 106,
  "PhaseResolution": 1,
  "PixelBandwidth": 2620,
  "ProcedureStepDescription": "Egor^MovieProject2",
  "ProtocolName": "func-bold_task-pRF_run-02",
  "PulseSequenceDetails": "%CustomerSeq%\\cmrr_mbep2d_bold",
  "ReceiveCoilActiveElements": "HEA;HEP",
  "ReceiveCoilName": "Head_32",
  "ReconMatrixPE": 106,
  "RepetitionTime": 1,
  "SAR": 0.103679,
  "ScanOptions": "FS\\EXT",
  "ScanningSequence": "EP",
  "SequenceName": "epfid2d1_106",
  "SequenceVariant": "SK\\SS",
  "SeriesDescription": "func-bold_task-pRF_run-02",
  "SeriesNumber": 12,
  "ShimSetting": [-1529, 598, 7426, 321, -140, 270, 205, -36],
  "SliceThickness": 2,
  "SliceTiming": [0, 0.4075, 0.8175, 0.245, 0.6525, 0.0825, 0.49, 0.8975, 0.3275, 0.735, 0.1625, 0.5725, 0, 0.4075, 0.8175, 0.245, 0.6525, 0.0825, 0.49, 0.8975, 0.3275, 0.735, 0.1625, 0.5725, 0, 0.4075, 0.8175, 0.245, 0.6525, 0.0825, 0.49, 0.8975, 0.3275, 0.735, 0.1625, 0.5725, 0, 0.4075, 0.8175, 0.245, 0.6525, 0.0825, 0.49, 0.8975, 0.3275, 0.735, 0.1625, 0.5725],
  "SoftwareVersions": "syngo MR E11",
  "SpacingBetweenSlices": 2,
  "StationName": "AWP166108",
  "TaskName": "retinotopy",
  "TotalReadoutTime": 0.0588013,
  "TxRefAmp": 306.869,
  "WipMemBlock": "d01ed661-1959-4ca8-8029-ef68b24a6944||Sequence: R016 ve11c/master r/e634e98; Dec 19 2017 11:00:25 by eja",
  "dcmmeta_affine": [
    [-2.0, 0.0, 0.0, 106.0],
    [0.0, 1.898850917816162, -0.627984881401062, -72.87899017333984],
    [0.0, 0.6279849410057068, 1.898850917816162, -59.38905715942383],
    [0.0, 0.0, 0.0, 1.0]
],
  "dcmmeta_reorient_transform": [
    [0.0, -1.0, 0.0, 105.0],
    [1.0, 0.0, 0.0, 0.0],
    [0.0, 0.0, 1.0, 0.0],
    [0.0, 0.0, 0.0, 1.0]
],
  "dcmmeta_shape": [106, 106, 48, 356],
  "dcmmeta_slice_dim": 2,
  "dcmmeta_version": 0.6,
  "global": {
    "const": {
      "AcquisitionMatrix": [106, 0, 0, 106],
      "AngioFlag": "N",
      "BitsAllocated": 16,
      "BitsStored": 16,
      "BodyPartExamined": "BRAIN",
      "CardiacNumberOfImages": 1,
      "Columns": 742,
      "EchoNumbers": 1,
      "EchoTime": 35.2,
      "EchoTrainLength": 106,
      "FlipAngle": 60.0,
      "HighBit": 15,
      "ImageOrientationPatient": [1.0, 0.0, 0.0, 0.0, 0.94942547761458, -0.31399245605],
      "ImagePositionPatient": [-742.0, -730.33496385047, 206.24856144673],
      "ImageType": [
        "ORIGINAL",
        "PRIMARY",
        "M",
        "MB",
        "ND",
        "MOSAIC"
],
      "ImagedNucleus": "1H",
      "ImagingFrequency": 123.243583,
      "InPlanePhaseEncodingDirection": "COL",
      "MRAcquisitionType": "2D",
      "MagneticFieldStrength": 3.0,
      "Manufacturer": "SIEMENS",
      "ManufacturerModelName": "Prisma",
      "Modality": "MR",
      "NominalInterval": 0,
      "NumberOfAverages": 1.0,
      "NumberOfPhaseEncodingSteps": 106,
      "PercentPhaseFieldOfView": 100.0,
      "PercentSampling": 100.0,
      "PerformedProcedureStepStartTime": "184454.599000",
      "PhotometricInterpretation": "MONOCHROME2",
      "PixelBandwidth": 2620.0,
      "PixelRepresentation": 0,
      "PixelSpacing": [2.0, 2.0],
      "ProtocolName": "func-bold_task-pRF_run-02",
      "RepetitionTime": 1000.0,
      "Rows": 742,
      "SAR": 0.10367878177114,
      "SamplesPerPixel": 1,
      "ScanOptions": [
        "FS",
        "EXT"
],
      "ScanningSequence": "EP",
      "SequenceName": "epfid2d1_106",
      "SequenceVariant": [
        "SK",
        "SS"
],
      "SeriesDescription": "func-bold_task-pRF_run-02",
      "SeriesNumber": 12,
      "SeriesTime": "193630.391000",
      "SliceLocation": -33.502030079727,
      "SliceThickness": 2.0,
      "SmallestImagePixelValue": 0,
      "SoftwareVersions": "syngo MR E11",
      "SpacingBetweenSlices": 1.9999999909046,
      "SpecificCharacterSet": "ISO_IR 100",
      "StudyID": "1",
      "StudyTime": "184454.539000",
      "TransmitCoilName": "Body",
      "VariableFlipAngleFlag": "N",
      "WindowCenterWidthExplanation": "Algo1",
      "dBdt": 0.0},
    "slices": {}
  },
  "time": {
    "samples": {
      "AcquisitionNumber": [1, 2, 3, 4, 5, 6, 7, 8, 9, 10, 11, 12, 13, 14, 15, 16, 17, 18, 19, 20, 21, 22, 23, 24, 25, 26, 27, 28, 29, 30, 31, 32, 33, 34, 35, 36, 37, 38, 39, 40, 41, 42, 43, 44, 45, 46, 47, 48, 49, 50, 51, 52, 53, 54, 55, 56, 57, 58, 59, 60, 61, 62, 63, 64, 65, 66, 67, 68, 69, 70, 71, 72, 73, 74, 75, 76, 77, 78, 79, 80, 81, 82, 83, 84, 85, 86, 87, 88, 89, 90, 91, 92, 93, 94, 95, 96, 97, 98, 99, 100, 101, 102, 103, 104, 105, 106, 107, 108, 109, 110, 111, 112, 113, 114, 115, 116, 117, 118, 119, 120, 121, 122, 123, 124, 125, 126, 127, 128, 129, 130, 131, 132, 133, 134, 135, 136, 137, 138, 139, 140, 141, 142, 143, 144, 145, 146, 147, 148, 149, 150, 151, 152, 153, 154, 155, 156, 157, 158, 159, 160, 161, 162, 163, 164, 165, 166, 167, 168, 169, 170, 171, 172, 173, 174, 175, 176, 177, 178, 179, 180, 181, 182, 183, 184, 185, 186, 187, 188, 189, 190, 191, 192, 193, 194, 195, 196, 197, 198, 199, 200, 201, 202, 203, 204, 205, 206, 207, 208, 209, 210, 211, 212, 213, 214, 215, 216, 217, 218, 219, 220, 221, 222, 223, 224, 225, 226, 227, 228, 229, 230, 231, 232, 233, 234, 235, 236, 237, 238, 239, 240, 241, 242, 243, 244, 245, 246, 247, 248, 249, 250, 251, 252, 253, 254, 255, 256, 257, 258, 259, 260, 261, 262, 263, 264, 265, 266, 267, 268, 269, 270, 271, 272, 273, 274, 275, 276, 277, 278, 279, 280, 281, 282, 283, 284, 285, 286, 287, 288, 289, 290, 291, 292, 293, 294, 295, 296, 297, 298, 299, 300, 301, 302, 303, 304, 305, 306, 307, 308, 309, 310, 311, 312, 313, 314, 315, 316, 317, 318, 319, 320, 321, 322, 323, 324, 325, 326, 327, 328, 329, 330, 331, 332, 333, 334, 335, 336, 337, 338, 339, 340, 341, 342, 343, 344, 345, 346, 347, 348, 349, 350, 351, 352, 353, 354, 355, 356],
      "AcquisitionTime": ["193552.122500", "193553.122500", "193554.122500", "193555.122500", "193556.122500", "193557.122500", "193558.122500", "193559.122500", "193600.122500", "193601.122500", "193602.122500", "193603.122500", "193604.122500", "193605.122500", "193606.122500", "193607.122500", "193608.122500", "193609.122500", "193610.122500", "193611.122500", "193612.122500", "193613.122500", "193614.122500", "193615.122500", "193616.122500", "193617.122500", "193618.122500", "193619.122500", "193620.122500", "193621.122500", "193622.122500", "193623.122500", "193624.122500", "193625.122500", "193626.122500", "193627.122500", "193628.122500", "193629.122500", "193630.122500", "193631.122500", "193632.122500", "193633.122500", "193634.122500", "193635.122500", "193636.122500", "193637.122500", "193638.122500", "193639.122500", "193640.122500", "193641.122500", "193642.122500", "193643.122500", "193644.122500", "193645.122500", "193646.122500", "193647.122500", "193648.122500", "193649.122500", "193650.122500", "193651.122500", "193652.122500", "193653.122500", "193654.122500", "193655.122500", "193656.122500", "193657.122500", "193658.122500", "193659.122500", "193700.122500", "193701.122500", "193702.122500", "193703.122500", "193704.122500", "193705.122500", "193706.122500", "193707.122500", "193708.122500", "193709.122500", "193710.122500", "193711.122500", "193712.122500", "193713.122500", "193714.122500", "193715.122500", "193716.122500", "193717.122500", "193718.122500", "193719.122500", "193720.122500", "193721.122500", "193722.122500", "193723.122500", "193724.122500", "193725.122500", "193726.122500", "193727.122500", "193728.122500", "193729.122500", "193730.122500", "193731.122500", "193732.122500", "193733.122500", "193734.122500", "193735.122500", "193736.122500", "193737.122500", "193738.122500", "193739.122500", "193740.122500", "193741.122500", "193742.122500", "193743.122500", "193744.122500", "193745.122500", "193746.122500", "193747.122500", "193748.122500", "193749.122500", "193750.122500", "193751.122500", "193752.122500", "193753.122500", "193754.122500", "193755.122500", "193756.122500", "193757.122500", "193758.122500", "193759.122500", "193800.122500", "193801.122500", "193802.122500", "193803.122500", "193804.122500", "193805.122500", "193806.122500", "193807.122500", "193808.122500", "193809.122500", "193810.122500", "193811.122500", "193812.122500", "193813.122500", "193814.122500", "193815.122500", "193816.122500", "193817.122500", "193818.122500", "193819.122500", "193820.122500", "193821.122500", "193822.122500", "193823.122500", "193824.122500", "193825.122500", "193826.122500", "193827.122500", "193828.122500", "193829.122500", "193830.122500", "193831.122500", "193832.122500", "193833.122500", "193834.122500", "193835.122500", "193836.122500", "193837.122500", "193838.122500", "193839.122500", "193840.122500", "193841.122500", "193842.122500", "193843.122500", "193844.122500", "193845.122500", "193846.122500", "193847.122500", "193848.122500", "193849.122500", "193850.122500", "193851.122500", "193852.122500", "193853.122500", "193854.122500", "193855.122500", "193856.122500", "193857.122500", "193858.122500", "193859.122500", "193900.122500", "193901.122500", "193902.122500", "193903.122500", "193904.122500", "193905.122500", "193906.122500", "193907.122500", "193908.122500", "193909.122500", "193910.122500", "193911.122500", "193912.122500", "193913.122500", "193914.122500", "193915.122500", "193916.122500", "193917.122500", "193918.122500", "193919.122500", "193920.122500", "193921.122500", "193922.122500", "193923.122500", "193924.122500", "193925.122500", "193926.122500", "193927.122500", "193928.122500", "193929.122500", "193930.122500", "193931.122500", "193932.122500", "193933.122500", "193934.122500", "193935.122500", "193936.122500", "193937.122500", "193938.122500", "193939.122500", "193940.122500", "193941.122500", "193942.122500", "193943.122500", "193944.122500", "193945.122500", "193946.122500", "193947.122500", "193948.122500", "193949.122500", "193950.122500", "193951.122500", "193952.122500", "193953.122500", "193954.122500", "193955.122500", "193956.122500", "193957.122500", "193958.122500", "193959.122500", "194000.122500", "194001.122500", "194002.122500", "194003.122500", "194004.122500", "194005.122500", "194006.122500", "194007.122500", "194008.122500", "194009.122500", "194010.122500", "194011.122500", "194012.122500", "194013.122500", "194014.122500", "194015.122500", "194016.122500", "194017.122500", "194018.122500", "194019.122500", "194020.122500", "194021.122500", "194022.122500", "194023.122500", "194024.122500", "194025.122500", "194026.122500", "194027.122500", "194028.122500", "194029.122500", "194030.122500", "194031.122500", "194032.122500", "194033.122500", "194034.122500", "194035.122500", "194036.122500", "194037.122500", "194038.122500", "194039.122500", "194040.122500", "194041.122500", "194042.122500", "194043.122500", "194044.122500", "194045.122500", "194046.122500", "194047.122500", "194048.122500", "194049.122500", "194050.122500", "194051.122500", "194052.122500", "194053.122500", "194054.122500", "194055.122500", "194056.122500", "194057.122500", "194058.122500", "194059.122500", "194100.122500", "194101.122500", "194102.122500", "194103.122500", "194104.122500", "194105.122500", "194106.122500", "194107.122500", "194108.122500", "194109.122500", "194110.122500", "194111.122500", "194112.122500", "194113.122500", "194114.122500", "194115.122500", "194116.122500", "194117.122500", "194118.122500", "194119.122500", "194120.122500", "194121.122500", "194122.122500", "194123.122500", "194124.122500", "194125.122500", "194126.122500", "194127.122500", "194128.122500", "194129.122500", "194130.122500", "194131.122500", "194132.122500", "194133.122500", "194134.122500", "194135.122500", "194136.122500", "194137.122500", "194138.122500", "194139.122500", "194140.122500", "194141.122500", "194142.122500", "194143.122500", "194144.122500", "194145.122500", "194146.122500", "194147.122500"],
      "ContentTime": ["193630.393000", "193630.396000", "193630.399000", "193630.404000", "193630.406000", "193630.409000", "193630.411000", "193630.414000", "193630.416000", "193630.419000", "193630.421000", "193630.424000", "193630.426000", "193630.428000", "193630.431000", "193630.433000", "193630.436000", "193630.438000", "193630.441000", "193630.443000", "193630.446000", "193630.448000", "193630.451000", "193630.453000", "193630.456000", "193630.459000", "193630.461000", "193630.463000", "193630.466000", "193630.469000", "193630.471000", "193630.474000", "193630.476000", "193630.480000", "193630.483000", "193630.485000", "193630.488000", "193650.370000", "193650.372000", "193650.375000", "193650.377000", "193650.380000", "193650.382000", "193650.385000", "193650.387000", "193650.390000", "193650.392000", "193650.395000", "193650.397000", "193650.401000", "193650.404000", "193650.406000", "193650.409000", "193650.411000", "193650.414000", "193650.416000", "193650.419000", "193710.370000", "193710.372000", "193710.375000", "193710.377000", "193710.380000", "193710.382000", "193710.385000", "193710.387000", "193710.389000", "193710.392000", "193710.394000", "193710.397000", "193710.399000", "193710.402000", "193710.404000", "193710.407000", "193710.409000", "193710.412000", "193710.414000", "193710.417000", "193730.369000", "193730.372000", "193730.375000", "193730.377000", "193730.379000", "193730.382000", "193730.384000", "193730.387000", "193730.389000", "193730.392000", "193730.394000", "193730.397000", "193730.399000", "193730.402000", "193730.404000", "193730.407000", "193730.409000", "193730.412000", "193730.414000", "193730.417000", "193750.369000", "193750.372000", "193750.375000", "193750.377000", "193750.380000", "193750.382000", "193750.384000", "193750.387000", "193750.389000", "193750.392000", "193750.395000", "193750.397000", "193750.399000", "193750.402000", "193750.404000", "193750.407000", "193750.409000", "193750.412000", "193750.414000", "193750.417000", "193810.370000", "193810.372000", "193810.375000", "193810.377000", "193810.380000", "193810.382000", "193810.385000", "193810.387000", "193810.390000", "193810.392000", "193810.395000", "193810.397000", "193810.400000", "193810.405000", "193810.408000", "193810.410000", "193810.413000", "193810.415000", "193810.418000", "193810.420000", "193830.369000", "193830.371000", "193830.374000", "193830.376000", "193830.379000", "193830.381000", "193830.384000", "193830.386000", "193830.389000", "193830.391000", "193830.394000", "193830.396000", "193830.399000", "193830.401000", "193830.404000", "193830.406000", "193830.409000", "193830.411000", "193830.414000", "193830.416000", "193850.369000", "193850.371000", "193850.374000", "193850.376000", "193850.379000", "193850.381000", "193850.384000", "193850.386000", "193850.389000", "193850.391000", "193850.401000", "193850.404000", "193850.420000", "193850.422000", "193850.425000", "193850.427000", "193850.430000", "193850.432000", "193850.434000", "193850.437000", "193910.369000", "193910.372000", "193910.374000", "193910.377000", "193910.379000", "193910.382000", "193910.384000", "193910.387000", "193910.390000", "193910.392000", "193910.395000", "193910.397000", "193910.399000", "193910.402000", "193910.404000", "193910.407000", "193910.409000", "193910.412000", "193910.414000", "193910.417000", "193930.370000", "193930.372000", "193930.375000", "193930.377000", "193930.380000", "193930.382000", "193930.385000", "193930.387000", "193930.390000", "193930.392000", "193930.394000", "193930.397000", "193930.399000", "193930.402000", "193930.404000", "193930.407000", "193930.409000", "193930.412000", "193930.414000", "193930.417000", "193950.369000", "193950.372000", "193950.375000", "193950.377000", "193950.380000", "193950.382000", "193950.385000", "193950.387000", "193950.389000", "193950.392000", "193950.394000", "193950.397000", "193950.399000", "193950.402000", "193950.404000", "193950.407000", "193950.409000", "193950.412000", "193950.414000", "193950.417000", "194010.369000", "194010.372000", "194010.375000", "194010.377000", "194010.380000", "194010.382000", "194010.385000", "194010.387000", "194010.390000", "194010.392000", "194010.394000", "194010.397000", "194010.399000", "194010.402000", "194010.404000", "194010.407000", "194010.409000", "194010.412000", "194010.414000", "194010.417000", "194030.369000", "194030.372000", "194030.375000", "194030.377000", "194030.380000", "194030.382000", "194030.385000", "194030.387000", "194030.390000", "194030.392000", "194030.395000", "194030.397000", "194030.400000", "194030.402000", "194030.405000", "194030.407000", "194030.410000", "194030.412000", "194030.415000", "194030.417000", "194050.368000", "194050.371000", "194050.374000", "194050.376000", "194050.379000", "194050.381000", "194050.384000", "194050.386000", "194050.389000", "194050.391000", "194050.394000", "194050.396000", "194050.398000", "194050.401000", "194050.403000", "194050.406000", "194050.409000", "194050.411000", "194050.414000", "194050.416000", "194110.369000", "194110.371000", "194110.374000", "194110.376000", "194110.379000", "194110.381000", "194110.384000", "194110.386000", "194110.389000", "194110.391000", "194110.394000", "194110.396000", "194110.399000", "194110.402000", "194110.404000", "194110.406000", "194110.409000", "194110.411000", "194110.414000", "194110.416000", "194130.370000", "194130.372000", "194130.375000", "194130.377000", "194130.380000", "194130.382000", "194130.385000", "194130.387000", "194130.390000", "194130.392000", "194130.395000", "194130.397000", "194130.400000", "194130.402000", "194130.405000", "194130.407000", "194130.410000", "194130.412000", "194130.415000", "194130.417000", "194148.982000", "194148.985000", "194148.987000", "194148.990000", "194148.992000", "194148.995000", "194148.997000", "194149.001000", "194149.004000", "194149.006000", "194149.009000", "194149.011000", "194149.014000", "194149.016000", "194149.019000", "194149.021000", "194149.024000", "194149.026000", "194149.029000"],
      "InstanceCreationTime": ["193630.393000", "193630.396000", "193630.399000", "193630.404000", "193630.406000", "193630.409000", "193630.411000", "193630.414000", "193630.416000", "193630.419000", "193630.421000", "193630.424000", "193630.426000", "193630.428000", "193630.431000", "193630.433000", "193630.436000", "193630.438000", "193630.441000", "193630.443000", "193630.446000", "193630.448000", "193630.451000", "193630.453000", "193630.456000", "193630.459000", "193630.461000", "193630.463000", "193630.466000", "193630.469000", "193630.471000", "193630.474000", "193630.476000", "193630.480000", "193630.483000", "193630.485000", "193630.488000", "193650.370000", "193650.372000", "193650.375000", "193650.377000", "193650.380000", "193650.382000", "193650.385000", "193650.387000", "193650.390000", "193650.392000", "193650.395000", "193650.397000", "193650.401000", "193650.404000", "193650.406000", "193650.409000", "193650.411000", "193650.414000", "193650.416000", "193650.419000", "193710.370000", "193710.372000", "193710.375000", "193710.377000", "193710.380000", "193710.382000", "193710.385000", "193710.387000", "193710.389000", "193710.392000", "193710.394000", "193710.397000", "193710.399000", "193710.402000", "193710.404000", "193710.407000", "193710.409000", "193710.412000", "193710.414000", "193710.417000", "193730.369000", "193730.372000", "193730.375000", "193730.377000", "193730.379000", "193730.382000", "193730.384000", "193730.387000", "193730.389000", "193730.392000", "193730.394000", "193730.397000", "193730.399000", "193730.402000", "193730.404000", "193730.407000", "193730.409000", "193730.412000", "193730.414000", "193730.417000", "193750.369000", "193750.372000", "193750.375000", "193750.377000", "193750.380000", "193750.382000", "193750.384000", "193750.387000", "193750.389000", "193750.392000", "193750.395000", "193750.397000", "193750.399000", "193750.402000", "193750.404000", "193750.407000", "193750.409000", "193750.412000", "193750.414000", "193750.417000", "193810.370000", "193810.372000", "193810.375000", "193810.377000", "193810.380000", "193810.382000", "193810.385000", "193810.387000", "193810.390000", "193810.392000", "193810.395000", "193810.397000", "193810.400000", "193810.405000", "193810.408000", "193810.410000", "193810.413000", "193810.415000", "193810.418000", "193810.420000", "193830.369000", "193830.371000", "193830.374000", "193830.376000", "193830.379000", "193830.381000", "193830.384000", "193830.386000", "193830.389000", "193830.391000", "193830.394000", "193830.396000", "193830.399000", "193830.401000", "193830.404000", "193830.406000", "193830.409000", "193830.411000", "193830.414000", "193830.416000", "193850.369000", "193850.371000", "193850.374000", "193850.376000", "193850.379000", "193850.381000", "193850.384000", "193850.386000", "193850.389000", "193850.391000", "193850.401000", "193850.404000", "193850.420000", "193850.422000", "193850.425000", "193850.427000", "193850.430000", "193850.432000", "193850.434000", "193850.437000", "193910.369000", "193910.372000", "193910.374000", "193910.377000", "193910.379000", "193910.382000", "193910.384000", "193910.387000", "193910.390000", "193910.392000", "193910.395000", "193910.397000", "193910.399000", "193910.402000", "193910.404000", "193910.407000", "193910.409000", "193910.412000", "193910.414000", "193910.417000", "193930.370000", "193930.372000", "193930.375000", "193930.377000", "193930.380000", "193930.382000", "193930.385000", "193930.387000", "193930.390000", "193930.392000", "193930.394000", "193930.397000", "193930.399000", "193930.402000", "193930.404000", "193930.407000", "193930.409000", "193930.412000", "193930.414000", "193930.417000", "193950.369000", "193950.372000", "193950.375000", "193950.377000", "193950.380000", "193950.382000", "193950.385000", "193950.387000", "193950.389000", "193950.392000", "193950.394000", "193950.397000", "193950.399000", "193950.402000", "193950.404000", "193950.407000", "193950.409000", "193950.412000", "193950.414000", "193950.417000", "194010.369000", "194010.372000", "194010.375000", "194010.377000", "194010.380000", "194010.382000", "194010.385000", "194010.387000", "194010.390000", "194010.392000", "194010.394000", "194010.397000", "194010.399000", "194010.402000", "194010.404000", "194010.407000", "194010.409000", "194010.412000", "194010.414000", "194010.417000", "194030.369000", "194030.372000", "194030.375000", "194030.377000", "194030.380000", "194030.382000", "194030.385000", "194030.387000", "194030.390000", "194030.392000", "194030.395000", "194030.397000", "194030.400000", "194030.402000", "194030.405000", "194030.407000", "194030.410000", "194030.412000", "194030.415000", "194030.417000", "194050.368000", "194050.371000", "194050.374000", "194050.376000", "194050.379000", "194050.381000", "194050.384000", "194050.386000", "194050.389000", "194050.391000", "194050.394000", "194050.396000", "194050.398000", "194050.401000", "194050.403000", "194050.406000", "194050.409000", "194050.411000", "194050.414000", "194050.416000", "194110.369000", "194110.371000", "194110.374000", "194110.376000", "194110.379000", "194110.381000", "194110.384000", "194110.386000", "194110.389000", "194110.391000", "194110.394000", "194110.396000", "194110.399000", "194110.402000", "194110.404000", "194110.406000", "194110.409000", "194110.411000", "194110.414000", "194110.416000", "194130.370000", "194130.372000", "194130.375000", "194130.377000", "194130.380000", "194130.382000", "194130.385000", "194130.387000", "194130.390000", "194130.392000", "194130.395000", "194130.397000", "194130.400000", "194130.402000", "194130.405000", "194130.407000", "194130.410000", "194130.412000", "194130.415000", "194130.417000", "194148.982000", "194148.985000", "194148.987000", "194148.990000", "194148.992000", "194148.995000", "194148.997000", "194149.001000", "194149.004000", "194149.006000", "194149.009000", "194149.011000", "194149.014000", "194149.016000", "194149.019000", "194149.021000", "194149.024000", "194149.026000", "194149.029000"],
      "InstanceNumber": [1, 2, 3, 4, 5, 6, 7, 8, 9, 10, 11, 12, 13, 14, 15, 16, 17, 18, 19, 20, 21, 22, 23, 24, 25, 26, 27, 28, 29, 30, 31, 32, 33, 34, 35, 36, 37, 38, 39, 40, 41, 42, 43, 44, 45, 46, 47, 48, 49, 50, 51, 52, 53, 54, 55, 56, 57, 58, 59, 60, 61, 62, 63, 64, 65, 66, 67, 68, 69, 70, 71, 72, 73, 74, 75, 76, 77, 78, 79, 80, 81, 82, 83, 84, 85, 86, 87, 88, 89, 90, 91, 92, 93, 94, 95, 96, 97, 98, 99, 100, 101, 102, 103, 104, 105, 106, 107, 108, 109, 110, 111, 112, 113, 114, 115, 116, 117, 118, 119, 120, 121, 122, 123, 124, 125, 126, 127, 128, 129, 130, 131, 132, 133, 134, 135, 136, 137, 138, 139, 140, 141, 142, 143, 144, 145, 146, 147, 148, 149, 150, 151, 152, 153, 154, 155, 156, 157, 158, 159, 160, 161, 162, 163, 164, 165, 166, 167, 168, 169, 170, 171, 172, 173, 174, 175, 176, 177, 178, 179, 180, 181, 182, 183, 184, 185, 186, 187, 188, 189, 190, 191, 192, 193, 194, 195, 196, 197, 198, 199, 200, 201, 202, 203, 204, 205, 206, 207, 208, 209, 210, 211, 212, 213, 214, 215, 216, 217, 218, 219, 220, 221, 222, 223, 224, 225, 226, 227, 228, 229, 230, 231, 232, 233, 234, 235, 236, 237, 238, 239, 240, 241, 242, 243, 244, 245, 246, 247, 248, 249, 250, 251, 252, 253, 254, 255, 256, 257, 258, 259, 260, 261, 262, 263, 264, 265, 266, 267, 268, 269, 270, 271, 272, 273, 274, 275, 276, 277, 278, 279, 280, 281, 282, 283, 284, 285, 286, 287, 288, 289, 290, 291, 292, 293, 294, 295, 296, 297, 298, 299, 300, 301, 302, 303, 304, 305, 306, 307, 308, 309, 310, 311, 312, 313, 314, 315, 316, 317, 318, 319, 320, 321, 322, 323, 324, 325, 326, 327, 328, 329, 330, 331, 332, 333, 334, 335, 336, 337, 338, 339, 340, 341, 342, 343, 344, 345, 346, 347, 348, 349, 350, 351, 352, 353, 354, 355, 356],
      "LargestImagePixelValue": [9014, 8871, 8686, 8666, 8533, 8534, 8471, 8422, 8520, 8575, 8327, 8577, 8519, 8446, 8645, 8535, 8588, 8612, 8673, 8491, 8495, 8347, 8428, 8664, 8406, 8423, 8343, 8451, 8204, 8360, 8258, 8400, 8214, 8242, 8164, 8488, 8137, 8470, 8323, 8416, 8363, 8505, 8701, 8534, 8575, 8467, 8587, 8483, 8443, 8430, 8537, 8530, 8428, 8431, 8490, 8464, 8410, 8551, 8534, 8533, 8621, 8507, 8531, 8511, 8510, 8561, 8514, 8374, 8506, 8498, 8380, 8400, 8606, 8462, 8615, 8460, 8519, 8637, 8764, 8521, 8537, 8178, 8246, 8170, 8433, 8321, 8370, 8350, 8522, 8718, 8442, 8527, 8430, 8515, 8696, 8524, 8527, 8386, 8132, 8266, 8441, 8398, 8385, 8276, 8277, 8295, 8520, 8368, 8492, 8422, 8282, 8326, 8534, 8390, 8459, 8378, 8318, 8460, 8322, 8414, 8495, 8332, 8279, 8252, 8324, 8345, 8503, 8355, 8230, 8251, 8170, 8319, 8336, 8505, 8296, 8565, 8447, 8461, 8361, 8510, 8139, 8254, 8287, 8489, 8221, 8235, 8358, 8310, 8390, 8421, 8329, 8401, 8235, 8344, 8342, 8362, 8142, 8212, 8062, 8228, 8566, 8332, 8298, 8403, 8442, 8421, 8606, 8318, 8417, 8180, 8163, 8177, 8158, 8136, 8285, 8174, 8488, 8245, 8502, 8339, 8382, 8527, 8244, 8199, 8193, 8177, 8296, 8288, 8246, 8324, 8484, 8391, 8588, 8471, 8308, 8386, 8291, 8397, 8200, 8280, 8274, 8281, 8490, 8370, 8376, 8496, 8274, 8452, 8445, 8384, 8313, 8320, 8499, 8267, 8442, 8316, 8451, 8353, 8359, 8357, 8185, 8495, 8184, 8241, 8428, 8549, 8563, 8384, 8327, 8486, 8336, 8405, 8446, 8357, 8457, 8743, 8539, 8670, 8468, 8595, 8516, 8556, 8344, 8247, 8450, 8161, 8368, 8222, 8118, 8207, 8295, 8194, 8227, 8114, 8406, 8515, 8635, 8243, 8388, 8387, 8334, 8308, 8456, 8557, 8610, 8470, 8336, 8577, 8599, 8534, 8336, 8189, 8280, 8403, 8220, 8261, 8220, 8168, 8200, 8249, 8516, 8399, 8290, 8334, 8230, 8522, 8525, 8450, 8327, 8201, 8257, 8299, 8283, 8314, 8302, 8260, 8229, 8237, 8217, 8466, 8526, 8291, 8362, 8258, 8280, 8417, 8663, 8664, 8481, 8404, 8316, 8358, 8296, 8413, 8419, 8313, 8550, 8220, 8465, 8488, 8305, 8323, 8380, 8310, 8234, 8293, 8233, 8461, 8442, 8274, 8250, 8302, 8245, 8061, 8559, 8342, 8390, 8433, 8294, 8441, 8219, 8276, 8071, 8111, 8071, 8040, 8079, 8459, 8348, 8145, 8379, 8230, 8554, 8313, 8383, 8429],
