{
  "AcquisitionMatrixPE": 106,
  "AcquisitionNumber": 1,
  "AcquisitionTime": "20:06:4.830000",
  "BandwidthPerPixelPhaseEncode": 13.477,
  "BaseResolution": 106,
  "BodyPartExamined": "BRAIN",
  "CoilCombinationMethod": "Sum of Squares",
  "ConsistencyInfo": "N4_VE11C_LATEST_20160120",
  "ConversionSoftware": "dcm2niix",
  "ConversionSoftwareVersion": "v1.0.20220720",
  "DerivedVendorReportedEchoSpacing": 0.000700005,
  "DeviceSerialNumber": "166108",
  "DwellTime": 2.6e-06,
  "EchoTime": 0.03,
  "EchoTrainLength": 80,
  "EffectiveEchoSpacing": 0.000700005,
  "FlipAngle": 62,
  "HeudiconvVersion": "1.3.0",
  "ImageComments": "Unaliased MB4/PE3/LB",
  "ImageOrientationPatientDICOM": [1, 0, 0, 0, 0.931691, -0.363251],
  "ImageOrientationText": "Tra>Cor(-21.3)",
  "ImageType": [
    "ORIGINAL",
    "PRIMARY",
    "M",
    "MB",
    "ND",
    "MOSAIC"
],
  "ImagingFrequency": 123.244,
  "InPlanePhaseEncodingDirectionDICOM": "COL",
  "InstitutionAddress": "Bedford Way 26,London,London,GB,WC1H 0AP",
  "InstitutionName": "University College",
  "InstitutionalDepartmentName": "Department",
  "MRAcquisitionType": "2D",
  "MagneticFieldStrength": 3,
  "Manufacturer": "Siemens",
  "ManufacturersModelName": "Prisma",
  "MatrixCoilMode": "SENSE",
  "Modality": "MR",
  "MultibandAccelerationFactor": 4,
  "NonlinearGradientCorrection": false,
  "PartialFourier": 0.75,
  "PatientPosition": "HFS",
  "PercentPhaseFOV": 100,
  "PercentSampling": 100,
  "PhaseEncodingDirection": "j-",
  "PhaseEncodingSteps": 80,
  "PhaseResolution": 1,
  "PixelBandwidth": 1815,
  "ProcedureStepDescription": "Egor^MovieProject2",
  "ProtocolName": "func-bold_task-tono_run-02",
  "PulseSequenceDetails": "%CustomerSeq%\\cmrr_mbep2d_bold",
  "ReceiveCoilActiveElements": "HEA;HEP",
  "ReceiveCoilName": "Head_32",
  "ReconMatrixPE": 106,
  "RepetitionTime": 1,
  "SAR": 0.0576859,
  "ScanOptions": "PFP\\FS\\EXT",
  "ScanningSequence": "EP",
  "SequenceName": "epfid2d1_106",
  "SequenceVariant": "SK\\SS",
  "SeriesDescription": "func-bold_task-tono_run-02",
  "SeriesNumber": 20,
  "ShimSetting": [-1523, 612, 7433, 185, -207, 75, 315, -27],
  "SliceThickness": 2,
  "SliceTiming": [0, 0.5325, 0.0875, 0.6225, 0.1775, 0.7125, 0.265, 0.8, 0.355, 0.89, 0.445, 0, 0.5325, 0.0875, 0.6225, 0.1775, 0.7125, 0.265, 0.8, 0.355, 0.89, 0.445, 0, 0.5325, 0.0875, 0.6225, 0.1775, 0.7125, 0.265, 0.8, 0.355, 0.89, 0.445, 0, 0.5325, 0.0875, 0.6225, 0.1775, 0.7125, 0.265, 0.8, 0.355, 0.89, 0.445],
  "SoftwareVersions": "syngo MR E11",
  "SpacingBetweenSlices": 2,
  "StationName": "AWP166108",
  "TaskName": "tonotopy",
  "TotalReadoutTime": 0.0735005,
  "TxRefAmp": 306.869,
  "WipMemBlock": "51f067c9-dad7-4296-a00c-4989fbd915b4||Sequence: R016 ve11c/master r/e634e98; Dec 19 2017 11:00:25 by eja",
  "dcmmeta_affine": [
    [-2.0, 0.0, 0.0, 106.0],
    [0.0, 1.8633824586868286, -0.7265024781227112, -57.2811164855957],
    [0.0, 0.7265024781227112, 1.8633824586868286, -69.49444580078125],
    [0.0, 0.0, 0.0, 1.0]
],
  "dcmmeta_reorient_transform": [
    [0.0, -1.0, 0.0, 105.0],
    [1.0, 0.0, 0.0, 0.0],
    [0.0, 0.0, 1.0, 0.0],
    [0.0, 0.0, 0.0, 1.0]
],
  "dcmmeta_shape": [106, 106, 44, 264],
  "dcmmeta_slice_dim": 2,
  "dcmmeta_version": 0.6,
  "global": {
    "const": {
      "AcquisitionMatrix": [106, 0, 0, 106],
      "AngioFlag": "N",
      "BitsAllocated": 16,
      "BitsStored": 16,
      "BodyPartExamined": "BRAIN",
      "CardiacNumberOfImages": 1,
      "Columns": 742,
      "EchoNumbers": 1,
      "EchoTime": 30.0,
      "EchoTrainLength": 80,
      "FlipAngle": 62.0,
      "HighBit": 15,
      "ImageOrientationPatient": [1.0, 0.0, 0.0, 0.0, 0.9316912255195, -0.3632512357721],
      "ImagePositionPatient": [-742.0, -730.9296621321, 237.81609881243],
      "ImageType": [
        "ORIGINAL",
        "PRIMARY",
        "M",
        "MB",
        "ND",
        "MOSAIC"
],
      "ImagedNucleus": "1H",
      "ImagingFrequency": 123.243596,
      "InPlanePhaseEncodingDirection": "COL",
      "MRAcquisitionType": "2D",
      "MagneticFieldStrength": 3.0,
      "Manufacturer": "SIEMENS",
      "ManufacturerModelName": "Prisma",
      "Modality": "MR",
      "NominalInterval": 0,
      "NumberOfAverages": 1.0,
      "NumberOfPhaseEncodingSteps": 80,
      "PercentPhaseFieldOfView": 100.0,
      "PercentSampling": 100.0,
      "PerformedProcedureStepStartTime": "184454.599000",
      "PhotometricInterpretation": "MONOCHROME2",
      "PixelBandwidth": 1815.0,
      "PixelRepresentation": 0,
      "PixelSpacing": [2.0, 2.0],
      "ProtocolName": "func-bold_task-tono_run-02",
      "RepetitionTime": 1000.0,
      "Rows": 742,
      "SAR": 0.05768593935178,
      "SamplesPerPixel": 1,
      "ScanOptions": [
        "PFP",
        "FS",
        "EXT"
],
      "ScanningSequence": "EP",
      "SequenceName": "epfid2d1_106",
      "SequenceVariant": [
        "SK",
        "SS"
],
      "SeriesDescription": "func-bold_task-tono_run-02",
      "SeriesNumber": 20,
      "SeriesTime": "200629.609000",
      "SliceLocation": -43.939930481174,
      "SliceThickness": 2.0,
      "SmallestImagePixelValue": 0,
      "SoftwareVersions": "syngo MR E11",
      "SpacingBetweenSlices": 1.9999999675077,
      "SpecificCharacterSet": "ISO_IR 100",
      "StudyID": "1",
      "StudyTime": "184454.539000",
      "TransmitCoilName": "Body",
      "VariableFlipAngleFlag": "N",
      "WindowCenterWidthExplanation": "Algo1",
      "dBdt": 0.0},
    "slices": {}
  },
  "time": {
    "samples": {
      "AcquisitionNumber": [1, 2, 3, 4, 5, 6, 7, 8, 9, 10, 11, 12, 13, 14, 15, 16, 17, 18, 19, 20, 21, 22, 23, 24, 25, 26, 27, 28, 29, 30, 31, 32, 33, 34, 35, 36, 37, 38, 39, 40, 41, 42, 43, 44, 45, 46, 47, 48, 49, 50, 51, 52, 53, 54, 55, 56, 57, 58, 59, 60, 61, 62, 63, 64, 65, 66, 67, 68, 69, 70, 71, 72, 73, 74, 75, 76, 77, 78, 79, 80, 81, 82, 83, 84, 85, 86, 87, 88, 89, 90, 91, 92, 93, 94, 95, 96, 97, 98, 99, 100, 101, 102, 103, 104, 105, 106, 107, 108, 109, 110, 111, 112, 113, 114, 115, 116, 117, 118, 119, 120, 121, 122, 123, 124, 125, 126, 127, 128, 129, 130, 131, 132, 133, 134, 135, 136, 137, 138, 139, 140, 141, 142, 143, 144, 145, 146, 147, 148, 149, 150, 151, 152, 153, 154, 155, 156, 157, 158, 159, 160, 161, 162, 163, 164, 165, 166, 167, 168, 169, 170, 171, 172, 173, 174, 175, 176, 177, 178, 179, 180, 181, 182, 183, 184, 185, 186, 187, 188, 189, 190, 191, 192, 193, 194, 195, 196, 197, 198, 199, 200, 201, 202, 203, 204, 205, 206, 207, 208, 209, 210, 211, 212, 213, 214, 215, 216, 217, 218, 219, 220, 221, 222, 223, 224, 225, 226, 227, 228, 229, 230, 231, 232, 233, 234, 235, 236, 237, 238, 239, 240, 241, 242, 243, 244, 245, 246, 247, 248, 249, 250, 251, 252, 253, 254, 255, 256, 257, 258, 259, 260, 261, 262, 263, 264],
      "AcquisitionTime": ["200604.830000", "200605.830000", "200606.830000", "200607.830000", "200608.830000", "200609.830000", "200610.830000", "200611.830000", "200612.830000", "200613.830000", "200614.830000", "200615.830000", "200616.830000", "200617.830000", "200618.830000", "200619.830000", "200620.830000", "200621.830000", "200622.830000", "200623.830000", "200624.830000", "200625.830000", "200626.830000", "200627.830000", "200628.830000", "200629.830000", "200630.830000", "200631.830000", "200632.830000", "200633.830000", "200634.830000", "200635.830000", "200636.830000", "200637.830000", "200638.830000", "200639.830000", "200640.830000", "200641.830000", "200642.830000", "200643.830000", "200644.830000", "200645.830000", "200646.830000", "200647.830000", "200648.830000", "200649.830000", "200650.830000", "200651.830000", "200652.830000", "200653.830000", "200654.830000", "200655.830000", "200656.830000", "200657.830000", "200658.830000", "200659.830000", "200700.830000", "200701.830000", "200702.830000", "200703.830000", "200704.830000", "200705.830000", "200706.830000", "200707.830000", "200708.830000", "200709.830000", "200710.830000", "200711.830000", "200712.830000", "200713.830000", "200714.830000", "200715.830000", "200716.830000", "200717.830000", "200718.830000", "200719.830000", "200720.830000", "200721.830000", "200722.830000", "200723.830000", "200724.830000", "200725.830000", "200726.830000", "200727.830000", "200728.830000", "200729.830000", "200730.830000", "200731.830000", "200732.830000", "200733.830000", "200734.830000", "200735.830000", "200736.830000", "200737.830000", "200738.830000", "200739.830000", "200740.830000", "200741.830000", "200742.830000", "200743.830000", "200744.830000", "200745.830000", "200746.830000", "200747.830000", "200748.830000", "200749.830000", "200750.830000", "200751.830000", "200752.830000", "200753.830000", "200754.830000", "200755.830000", "200756.830000", "200757.830000", "200758.830000", "200759.830000", "200800.830000", "200801.830000", "200802.830000", "200803.830000", "200804.830000", "200805.830000", "200806.830000", "200807.830000", "200808.830000", "200809.830000", "200810.830000", "200811.830000", "200812.830000", "200813.830000", "200814.830000", "200815.830000", "200816.830000", "200817.830000", "200818.830000", "200819.830000", "200820.830000", "200821.830000", "200822.830000", "200823.830000", "200824.830000", "200825.830000", "200826.830000", "200827.830000", "200828.830000", "200829.830000", "200830.830000", "200831.830000", "200832.830000", "200833.830000", "200834.830000", "200835.830000", "200836.830000", "200837.830000", "200838.830000", "200839.830000", "200840.830000", "200841.830000", "200842.830000", "200843.830000", "200844.830000", "200845.830000", "200846.830000", "200847.830000", "200848.830000", "200849.830000", "200850.830000", "200851.830000", "200852.830000", "200853.830000", "200854.830000", "200855.830000", "200856.830000", "200857.830000", "200858.830000", "200859.830000", "200900.830000", "200901.830000", "200902.830000", "200903.830000", "200904.830000", "200905.830000", "200906.830000", "200907.830000", "200908.830000", "200909.830000", "200910.830000", "200911.830000", "200912.830000", "200913.830000", "200914.830000", "200915.830000", "200916.830000", "200917.830000", "200918.830000", "200919.830000", "200920.830000", "200921.830000", "200922.830000", "200923.830000", "200924.830000", "200925.830000", "200926.830000", "200927.830000", "200928.830000", "200929.830000", "200930.830000", "200931.830000", "200932.830000", "200933.830000", "200934.830000", "200935.830000", "200936.830000", "200937.830000", "200938.830000", "200939.830000", "200940.830000", "200941.830000", "200942.830000", "200943.830000", "200944.830000", "200945.830000", "200946.830000", "200947.830000", "200948.830000", "200949.830000", "200950.830000", "200951.830000", "200952.830000", "200953.830000", "200954.830000", "200955.830000", "200956.830000", "200957.830000", "200958.830000", "200959.830000", "201000.830000", "201001.830000", "201002.830000", "201003.830000", "201004.830000", "201005.830000", "201006.830000", "201007.830000", "201008.830000", "201009.830000", "201010.830000", "201011.830000", "201012.830000", "201013.830000", "201014.830000", "201015.830000", "201016.830000", "201017.830000", "201018.830000", "201019.830000", "201020.830000", "201021.830000", "201022.830000", "201023.830000", "201024.830000", "201025.830000", "201026.830000", "201027.830000"],
      "ContentTime": ["200629.612000", "200629.615000", "200629.617000", "200629.620000", "200629.622000", "200629.625000", "200629.627000", "200629.630000", "200629.632000", "200629.634000", "200629.637000", "200629.639000", "200629.668000", "200629.670000", "200629.673000", "200629.675000", "200629.678000", "200629.680000", "200629.682000", "200629.685000", "200629.687000", "200629.690000", "200629.692000", "200629.695000", "200649.576000", "200649.579000", "200649.581000", "200649.584000", "200649.586000", "200649.589000", "200649.591000", "200649.594000", "200649.596000", "200649.599000", "200649.601000", "200649.603000", "200649.613000", "200649.616000", "200649.618000", "200649.621000", "200649.623000", "200649.625000", "200649.628000", "200649.630000", "200709.576000", "200709.579000", "200709.581000", "200709.584000", "200709.586000", "200709.589000", "200709.591000", "200709.594000", "200709.596000", "200709.599000", "200709.601000", "200709.603000", "200709.606000", "200709.608000", "200709.610000", "200709.613000", "200709.616000", "200709.618000", "200709.620000", "200709.623000", "200729.577000", "200729.579000", "200729.582000", "200729.584000", "200729.586000", "200729.589000", "200729.591000", "200729.594000", "200729.596000", "200729.599000", "200729.601000", "200729.604000", "200729.606000", "200729.609000", "200729.611000", "200729.613000", "200729.616000", "200729.619000", "200729.621000", "200729.623000", "200749.576000", "200749.579000", "200749.581000", "200749.584000", "200749.586000", "200749.589000", "200749.591000", "200749.594000", "200749.596000", "200749.599000", "200749.601000", "200749.603000", "200749.606000", "200749.608000", "200749.611000", "200749.613000", "200749.616000", "200749.618000", "200749.621000", "200749.623000", "200809.576000", "200809.579000", "200809.582000", "200809.584000", "200809.587000", "200809.590000", "200809.592000", "200809.595000", "200809.597000", "200809.600000", "200809.602000", "200809.604000", "200809.607000", "200809.609000", "200809.612000", "200809.614000", "200809.617000", "200809.619000", "200809.622000", "200809.624000", "200829.576000", "200829.579000", "200829.582000", "200829.584000", "200829.587000", "200829.589000", "200829.592000", "200829.594000", "200829.597000", "200829.599000", "200829.601000", "200829.604000", "200829.606000", "200829.609000", "200829.611000", "200829.614000", "200829.616000", "200829.619000", "200829.621000", "200829.624000", "200849.576000", "200849.579000", "200849.581000", "200849.584000", "200849.586000", "200849.589000", "200849.591000", "200849.594000", "200849.596000", "200849.599000", "200849.601000", "200849.603000", "200849.606000", "200849.608000", "200849.611000", "200849.613000", "200849.616000", "200849.618000", "200849.621000", "200849.623000", "200909.576000", "200909.579000", "200909.582000", "200909.584000", "200909.587000", "200909.589000", "200909.591000", "200909.594000", "200909.596000", "200909.599000", "200909.601000", "200909.604000", "200909.606000", "200909.609000", "200909.611000", "200909.624000", "200909.627000", "200909.629000", "200909.632000", "200909.634000", "200929.576000", "200929.579000", "200929.582000", "200929.584000", "200929.586000", "200929.589000", "200929.591000", "200929.594000", "200929.596000", "200929.599000", "200929.601000", "200929.604000", "200929.606000", "200929.609000", "200929.619000", "200929.621000", "200929.624000", "200929.626000", "200929.628000", "200929.631000", "200949.576000", "200949.579000", "200949.582000", "200949.584000", "200949.586000", "200949.589000", "200949.591000", "200949.594000", "200949.596000", "200949.599000", "200949.601000", "200949.604000", "200949.606000", "200949.609000", "200949.611000", "200949.614000", "200949.616000", "200949.619000", "200949.621000", "200949.624000", "201009.576000", "201009.579000", "201009.581000", "201009.584000", "201009.586000", "201009.589000", "201009.591000", "201009.594000", "201009.596000", "201009.599000", "201009.601000", "201009.603000", "201009.606000", "201009.608000", "201009.611000", "201009.613000", "201009.616000", "201009.618000", "201009.621000", "201009.623000", "201029.106000", "201029.109000", "201029.113000", "201029.116000", "201029.119000", "201029.122000", "201029.124000", "201029.127000", "201029.129000", "201029.132000", "201029.135000", "201029.137000", "201029.140000", "201029.142000", "201029.145000", "201029.147000", "201029.150000", "201029.152000", "201029.155000", "201029.157000"],
      "InstanceCreationTime": ["200629.612000", "200629.615000", "200629.617000", "200629.620000", "200629.622000", "200629.625000", "200629.627000", "200629.630000", "200629.632000", "200629.634000", "200629.637000", "200629.639000", "200629.668000", "200629.670000", "200629.673000", "200629.675000", "200629.678000", "200629.680000", "200629.682000", "200629.685000", "200629.687000", "200629.690000", "200629.692000", "200629.695000", "200649.576000", "200649.579000", "200649.581000", "200649.584000", "200649.586000", "200649.589000", "200649.591000", "200649.594000", "200649.596000", "200649.599000", "200649.601000", "200649.603000", "200649.613000", "200649.616000", "200649.618000", "200649.621000", "200649.623000", "200649.625000", "200649.628000", "200649.630000", "200709.576000", "200709.579000", "200709.581000", "200709.584000", "200709.586000", "200709.589000", "200709.591000", "200709.594000", "200709.596000", "200709.599000", "200709.601000", "200709.603000", "200709.606000", "200709.608000", "200709.610000", "200709.613000", "200709.616000", "200709.618000", "200709.620000", "200709.623000", "200729.577000", "200729.579000", "200729.582000", "200729.584000", "200729.586000", "200729.589000", "200729.591000", "200729.594000", "200729.596000", "200729.599000", "200729.601000", "200729.604000", "200729.606000", "200729.609000", "200729.611000", "200729.613000", "200729.616000", "200729.619000", "200729.621000", "200729.623000", "200749.576000", "200749.579000", "200749.581000", "200749.584000", "200749.586000", "200749.589000", "200749.591000", "200749.594000", "200749.596000", "200749.599000", "200749.601000", "200749.603000", "200749.606000", "200749.608000", "200749.611000", "200749.613000", "200749.616000", "200749.618000", "200749.621000", "200749.623000", "200809.576000", "200809.579000", "200809.582000", "200809.584000", "200809.587000", "200809.590000", "200809.592000", "200809.595000", "200809.597000", "200809.600000", "200809.602000", "200809.604000", "200809.607000", "200809.609000", "200809.612000", "200809.614000", "200809.617000", "200809.619000", "200809.622000", "200809.624000", "200829.576000", "200829.579000", "200829.582000", "200829.584000", "200829.587000", "200829.589000", "200829.592000", "200829.594000", "200829.597000", "200829.599000", "200829.601000", "200829.604000", "200829.606000", "200829.609000", "200829.611000", "200829.614000", "200829.616000", "200829.619000", "200829.621000", "200829.624000", "200849.576000", "200849.579000", "200849.581000", "200849.584000", "200849.586000", "200849.589000", "200849.591000", "200849.594000", "200849.596000", "200849.599000", "200849.601000", "200849.603000", "200849.606000", "200849.608000", "200849.611000", "200849.613000", "200849.616000", "200849.618000", "200849.621000", "200849.623000", "200909.576000", "200909.579000", "200909.582000", "200909.584000", "200909.587000", "200909.589000", "200909.591000", "200909.594000", "200909.596000", "200909.599000", "200909.601000", "200909.604000", "200909.606000", "200909.609000", "200909.611000", "200909.624000", "200909.627000", "200909.629000", "200909.632000", "200909.634000", "200929.576000", "200929.579000", "200929.582000", "200929.584000", "200929.586000", "200929.589000", "200929.591000", "200929.594000", "200929.596000", "200929.599000", "200929.601000", "200929.604000", "200929.606000", "200929.609000", "200929.619000", "200929.621000", "200929.624000", "200929.626000", "200929.628000", "200929.631000", "200949.576000", "200949.579000", "200949.582000", "200949.584000", "200949.586000", "200949.589000", "200949.591000", "200949.594000", "200949.596000", "200949.599000", "200949.601000", "200949.604000", "200949.606000", "200949.609000", "200949.611000", "200949.614000", "200949.616000", "200949.619000", "200949.621000", "200949.624000", "201009.576000", "201009.579000", "201009.581000", "201009.584000", "201009.586000", "201009.589000", "201009.591000", "201009.594000", "201009.596000", "201009.599000", "201009.601000", "201009.603000", "201009.606000", "201009.608000", "201009.611000", "201009.613000", "201009.616000", "201009.618000", "201009.621000", "201009.623000", "201029.106000", "201029.109000", "201029.113000", "201029.116000", "201029.119000", "201029.122000", "201029.124000", "201029.127000", "201029.129000", "201029.132000", "201029.135000", "201029.137000", "201029.140000", "201029.142000", "201029.145000", "201029.147000", "201029.150000", "201029.152000", "201029.155000", "201029.157000"],
      "InstanceNumber": [1, 2, 3, 4, 5, 6, 7, 8, 9, 10, 11, 12, 13, 14, 15, 16, 17, 18, 19, 20, 21, 22, 23, 24, 25, 26, 27, 28, 29, 30, 31, 32, 33, 34, 35, 36, 37, 38, 39, 40, 41, 42, 43, 44, 45, 46, 47, 48, 49, 50, 51, 52, 53, 54, 55, 56, 57, 58, 59, 60, 61, 62, 63, 64, 65, 66, 67, 68, 69, 70, 71, 72, 73, 74, 75, 76, 77, 78, 79, 80, 81, 82, 83, 84, 85, 86, 87, 88, 89, 90, 91, 92, 93, 94, 95, 96, 97, 98, 99, 100, 101, 102, 103, 104, 105, 106, 107, 108, 109, 110, 111, 112, 113, 114, 115, 116, 117, 118, 119, 120, 121, 122, 123, 124, 125, 126, 127, 128, 129, 130, 131, 132, 133, 134, 135, 136, 137, 138, 139, 140, 141, 142, 143, 144, 145, 146, 147, 148, 149, 150, 151, 152, 153, 154, 155, 156, 157, 158, 159, 160, 161, 162, 163, 164, 165, 166, 167, 168, 169, 170, 171, 172, 173, 174, 175, 176, 177, 178, 179, 180, 181, 182, 183, 184, 185, 186, 187, 188, 189, 190, 191, 192, 193, 194, 195, 196, 197, 198, 199, 200, 201, 202, 203, 204, 205, 206, 207, 208, 209, 210, 211, 212, 213, 214, 215, 216, 217, 218, 219, 220, 221, 222, 223, 224, 225, 226, 227, 228, 229, 230, 231, 232, 233, 234, 235, 236, 237, 238, 239, 240, 241, 242, 243, 244, 245, 246, 247, 248, 249, 250, 251, 252, 253, 254, 255, 256, 257, 258, 259, 260, 261, 262, 263, 264],
      "LargestImagePixelValue": [9526, 9658, 9314, 9286, 9220, 9329, 9422, 9184, 9277, 9272, 9222, 9317, 9448, 9286, 9148, 9141, 9019, 8985, 9001, 9221, 9021, 9089, 8972, 9174, 8969, 9015, 8726, 9163, 9029, 9108, 8972, 9030, 8994, 9041, 9264, 9002, 9159, 8955, 8942, 8974, 8977, 8873, 8854, 9136, 9146, 9280, 9097, 9175, 9034, 8998, 8904, 8920, 9201, 9357, 9169, 9192, 9328, 9151, 9203, 8887, 9327, 9355, 9109, 9396, 9082, 9203, 8890, 9277, 8919, 9061, 8871, 8921, 8725, 8959, 8989, 8960, 8740, 8767, 8687, 8727, 8742, 8661, 9027, 8875, 8917, 8886, 9005, 8743, 8694, 8732, 9016, 8781, 8998, 8780, 8866, 8913, 8974, 8716, 8897, 8815, 8857, 8939, 8976, 8882, 8968, 8943, 8957, 8911, 8833, 8865, 8986, 8882, 8911, 9002, 8762, 8820, 8697, 8832, 9046, 9107, 9090, 9082, 8969, 8886, 8871, 8957, 9062, 8620, 8825, 8733, 8767, 8759, 8597, 8949, 8827, 8879, 8646, 8784, 8585, 8852, 8824, 8748, 8728, 8812, 8788, 8854, 8766, 8812, 8713, 8904, 8853, 8852, 8784, 8868, 8867, 8813, 8678, 9006, 8836, 8770, 8743, 8864, 8763, 8740, 8703, 8857, 8874, 9040, 8934, 8815, 8691, 8915, 8842, 8857, 8939, 8963, 8913, 8968, 9037, 8719, 9047, 8904, 8841, 8902, 8760, 8843, 8694, 8799, 8837, 8896, 8852, 8986, 9033, 8894, 8879, 8960, 8802, 8757, 8610, 8927, 8944, 9024, 8941, 8851, 8949, 8728, 8806, 9040, 8916, 8928, 9203, 9013, 9083, 8955, 9042, 9058, 8918, 8957, 9020, 8943, 8849, 8830, 8695, 8721, 8965, 8926, 8896, 9012, 8876, 8951, 8863, 9176, 8975, 9045, 8926, 9166, 8939, 8960, 8893, 9071, 9014, 8997, 9069, 8965, 8971, 8913, 9092, 8869, 8984, 8929, 8970, 9226, 8999, 8969, 8717, 9018, 8978, 8996, 8645, 8808, 8924, 9110, 8683, 8971],
      "TriggerTime": [8102.5, 9102.5, 10102.5, 11102.5, 12102.5, 13102.5, 14102.5, 15102.5, 16102.5, 17102.5, 18102.5, 19102.5, 20102.5, 21102.5, 22102.5, 23102.5, 24102.5, 25102.5, 26102.5, 27102.5, 28102.5, 29102.5, 30102.5, 31102.5, 32102.5, 33102.5, 34102.5, 35102.5, 36102.5, 37102.5, 38102.5, 39102.5, 40102.5, 41102.5, 42102.5, 43102.5, 44102.5, 45102.5, 46102.5, 47102.5, 48102.5, 49102.5, 50102.5, 51102.5, 52102.5, 53102.5, 54102.5, 55102.5, 56102.5, 57102.5, 58102.5, 59102.5, 60102.5, 61102.5, 62102.5, 63102.5, 64102.5, 65102.5, 66102.5, 67102.5, 68102.5, 69102.5, 70102.5, 71102.5, 72102.5, 73102.5, 74102.5, 75102.5, 76102.5, 77102.5, 78102.5, 79102.5, 80102.5, 81102.5, 82102.5, 83102.5, 84102.5, 85102.5, 86102.5, 87102.5, 88102.5, 89102.5, 90102.5, 91102.5, 92102.5, 93102.5, 94102.5, 95102.5, 96102.5, 97102.5, 98102.5, 99102.5, 100102.5, 101102.5, 102102.5, 103102.5, 104102.5, 105102.5, 106102.5, 107102.5, 108102.5, 109102.5, 110102.5, 111102.5, 112102.5, 113102.5, 114102.5, 115102.5, 116102.5, 117102.5, 118102.5, 119102.5, 120102.5, 121102.5, 122102.5, 123102.5, 124102.5, 125102.5, 126102.5, 127102.5, 128102.5, 129102.5, 130102.5, 131102.5, 132102.5, 133102.5, 134102.5, 135102.5, 136102.5, 137102.5, 138102.5, 139102.5, 140102.5, 141102.5, 142102.5, 143102.5, 144102.5, 145102.5, 146102.5, 147102.5, 148102.5, 149102.5, 150102.5, 151102.5, 152102.5, 153102.5, 154102.5, 155102.5, 156102.5, 157102.5, 158102.5, 159102.5, 160102.5, 161102.5, 162102.5, 163102.5, 164102.5, 165102.5, 166102.5, 167102.5, 168102.5, 169102.5, 170102.5, 171102.5, 172102.5, 173102.5, 174102.5, 175102.5, 176102.5, 177102.5, 178102.5, 179102.5, 180102.5, 181102.5, 182102.5, 183102.5, 184102.5, 185102.5, 186102.5, 187102.5, 188102.5, 189102.5, 190102.5, 191102.5, 192102.5, 193102.5, 194102.5, 195102.5, 196102.5, 197102.5, 198102.5, 199102.5, 200102.5, 201102.5, 202102.5, 203102.5, 204102.5, 205102.5, 206102.5, 207102.5, 208102.5, 209102.5, 210102.5, 211102.5, 212102.5, 213102.5, 214102.5, 215102.5, 216102.5, 217102.5, 218102.5, 219102.5, 220102.5, 221102.5, 222102.5, 223102.5, 224102.5, 225102.5, 226102.5, 227102.5, 228102.5, 229102.5, 230102.5, 231102.5, 232102.5, 233102.5, 234102.5, 235102.5, 236102.5, 237102.5, 238102.5, 239102.5, 240102.5, 241102.5, 242102.5, 243102.5, 244102.5, 245102.5, 246102.5, 247102.5, 248102.5, 249102.5, 250102.5, 251102.5, 252102.5, 253102.5, 254102.5, 255102.5, 256102.5, 257102.5, 258102.5, 259102.5, 260102.5, 261102.5, 262102.5, 263102.5, 264102.5, 265102.5, 266102.5, 267102.5, 268102.5, 269102.5, 270102.5, 271102.5],
      "WindowCenter": [3882.0, 3868.0, 3867.0, 3856.0, 3856.0, 3855.0, 3855.0, 3855.0, 3855.0, 3854.0, 3853.0, 3856.0, 3866.0, 3868.0, 3867.0, 3867.0, 3858.0, 3854.0, 3856.0, 3852.0, 3843.0, 3853.0, 3856.0, 3857.0, 3858.0, 3845.0, 3845.0, 3854.0, 3845.0, 3844.0, 3853.0, 3853.0, 3844.0, 3845.0, 3854.0, 3841.0, 3853.0, 3843.0, 3845.0, 3843.0, 3842.0, 3842.0, 3842.0, 3852.0, 3856.0, 3853.0, 3846.0, 3856.0, 3845.0, 3841.0, 3842.0, 3843.0, 3858.0, 3855.0, 3856.0, 3857.0, 3856.0, 3868.0, 3856.0, 3856.0, 3869.0, 3860.0, 3856.0, 3856.0, 3858.0, 3856.0, 3858.0, 3869.0, 3859.0, 3856.0, 3860.0, 3844.0, 3831.0, 3843.0, 3839.0, 3841.0, 3831.0, 3834.0, 3832.0, 3830.0, 3828.0, 3830.0, 3841.0, 3844.0, 3848.0, 3845.0, 3845.0, 3833.0, 3832.0, 3834.0, 3842.0, 3833.0, 3843.0, 3843.0, 3842.0, 3846.0, 3841.0, 3833.0, 3846.0, 3843.0, 3842.0, 3841.0, 3842.0, 3842.0, 3845.0, 3843.0, 3844.0, 3858.0, 3857.0, 3856.0, 3843.0, 3843.0, 3845.0, 3844.0, 3833.0, 3844.0, 3834.0, 3842.0, 3844.0, 3844.0, 3843.0, 3856.0, 3857.0, 3856.0, 3855.0, 3844.0, 3840.0, 3832.0, 3846.0, 3832.0, 3833.0, 3830.0, 3835.0, 3842.0, 3844.0, 3843.0, 3834.0, 3830.0, 3833.0, 3841.0, 3842.0, 3832.0, 3832.0, 3843.0, 3831.0, 3843.0, 3844.0, 3856.0, 3845.0, 3854.0, 3857.0, 3846.0, 3846.0, 3844.0, 3845.0, 3845.0, 3834.0, 3844.0, 3845.0, 3845.0, 3835.0, 3842.0, 3831.0, 3833.0, 3834.0, 3841.0, 3843.0, 3855.0, 3857.0, 3858.0, 3846.0, 3855.0, 3846.0, 3857.0, 3857.0, 3859.0, 3857.0, 3855.0, 3845.0, 3832.0, 3843.0, 3847.0, 3842.0, 3844.0, 3832.0, 3843.0, 3830.0, 3832.0, 3845.0, 3843.0, 3842.0, 3843.0, 3845.0, 3841.0, 3845.0, 3847.0, 3856.0, 3845.0, 3845.0, 3843.0, 3856.0, 3842.0, 3846.0, 3848.0, 3846.0, 3834.0, 3845.0, 3844.0, 3844.0, 3841.0, 3855.0, 3855.0, 3845.0, 3844.0, 3844.0, 3857.0, 3857.0, 3858.0, 3858.0, 3858.0, 3846.0, 3843.0, 3832.0, 3831.0, 3843.0, 3842.0, 3844.0, 3841.0, 3840.0, 3842.0, 3846.0, 3850.0, 3843.0, 3830.0, 3842.0, 3841.0, 3844.0, 3842.0, 3843.0, 3841.0, 3842.0, 3843.0, 3843.0, 3843.0, 3843.0, 3842.0, 3841.0, 3842.0, 3843.0, 3847.0, 3845.0, 3854.0, 3854.0, 3846.0, 3846.0, 3858.0, 3846.0, 3843.0, 3834.0, 3843.0, 3845.0, 3845.0, 3835.0, 3844.0],
      "WindowWidth": [8822.0, 8798.0, 8796.0, 8780.0, 8779.0, 8775.0, 8773.0, 8776.0, 8774.0, 8773.0, 8771.0, 8776.0, 8791.0, 8793.0, 8791.0, 8790.0, 8781.0, 8771.0, 8775.0, 8766.0, 8755.0, 8769.0, 8778.0, 8778.0, 8780.0, 8758.0, 8757.0, 8768.0, 8757.0, 8755.0, 8768.0, 8768.0, 8755.0, 8756.0, 8768.0, 8749.0, 8766.0, 8752.0, 8756.0, 8750.0, 8750.0, 8748.0, 8753.0, 8765.0, 8775.0, 8766.0, 8759.0, 8772.0, 8755.0, 8747.0, 8750.0, 8753.0, 8777.0, 8774.0, 8777.0, 8780.0, 8776.0, 8796.0, 8777.0, 8777.0, 8796.0, 8784.0, 8778.0, 8776.0, 8782.0, 8780.0, 8784.0, 8798.0, 8785.0, 8776.0, 8781.0, 8754.0, 8731.0, 8749.0, 8741.0, 8745.0, 8732.0, 8737.0, 8732.0, 8729.0, 8724.0, 8730.0, 8747.0, 8754.0, 8764.0, 8760.0, 8757.0, 8739.0, 8735.0, 8740.0, 8748.0, 8738.0, 8751.0, 8753.0, 8750.0, 8758.0, 8747.0, 8738.0, 8756.0, 8751.0, 8748.0, 8747.0, 8748.0, 8751.0, 8758.0, 8753.0, 8756.0, 8779.0, 8779.0, 8775.0, 8754.0, 8753.0, 8759.0, 8755.0, 8743.0, 8753.0, 8742.0, 8753.0, 8757.0, 8757.0, 8755.0, 8775.0, 8778.0, 8778.0, 8775.0, 8757.0, 8745.0, 8735.0, 8757.0, 8736.0, 8737.0, 8729.0, 8741.0, 8749.0, 8752.0, 8750.0, 8741.0, 8730.0, 8735.0, 8745.0, 8750.0, 8735.0, 8735.0, 8749.0, 8733.0, 8750.0, 8754.0, 8774.0, 8757.0, 8771.0, 8777.0, 8759.0, 8759.0, 8754.0, 8757.0, 8755.0, 8742.0, 8757.0, 8760.0, 8757.0, 8741.0, 8748.0, 8733.0, 8737.0, 8741.0, 8748.0, 8755.0, 8773.0, 8780.0, 8780.0, 8764.0, 8771.0, 8762.0, 8779.0, 8779.0, 8784.0, 8777.0, 8773.0, 8754.0, 8735.0, 8749.0, 8756.0, 8749.0, 8751.0, 8733.0, 8749.0, 8730.0, 8734.0, 8753.0, 8751.0, 8749.0, 8752.0, 8755.0, 8746.0, 8758.0, 8762.0, 8773.0, 8756.0, 8756.0, 8751.0, 8774.0, 8749.0, 8759.0, 8764.0, 8761.0, 8741.0, 8757.0, 8751.0, 8753.0, 8746.0, 8770.0, 8775.0, 8757.0, 8755.0, 8756.0, 8782.0, 8780.0, 8783.0, 8784.0, 8781.0, 8760.0, 8750.0, 8731.0, 8729.0, 8746.0, 8744.0, 8748.0, 8741.0, 8742.0, 8743.0, 8753.0, 8754.0, 8747.0, 8729.0, 8745.0, 8743.0, 8752.0, 8746.0, 8750.0, 8743.0, 8749.0, 8753.0, 8752.0, 8751.0, 8749.0, 8748.0, 8747.0, 8750.0, 8752.0, 8763.0, 8757.0, 8772.0, 8770.0, 8761.0, 8763.0, 8780.0, 8760.0, 8752.0, 8740.0, 8749.0, 8754.0, 8753.0, 8743.0, 8753.0]
    },
