{
  "AcquisitionMatrixPE": 106,
  "AcquisitionNumber": 1,
  "AcquisitionTime": "19:06:34.732500",
  "BandwidthPerPixelPhaseEncode": 13.477,
  "BaseResolution": 106,
  "BodyPartExamined": "BRAIN",
  "CoilCombinationMethod": "Sum of Squares",
  "ConsistencyInfo": "N4_VE11C_LATEST_20160120",
  "ConversionSoftware": "dcm2niix",
  "ConversionSoftwareVersion": "v1.0.20220720",
  "DerivedVendorReportedEchoSpacing": 0.000700005,
  "DeviceSerialNumber": "166108",
  "DwellTime": 2.6e-06,
  "EchoTime": 0.03,
  "EchoTrainLength": 80,
  "EffectiveEchoSpacing": 0.000700005,
  "FlipAngle": 62,
  "HeudiconvVersion": "1.3.0",
  "ImageComments": "Unaliased MB4/PE3/LB",
  "ImageOrientationPatientDICOM": [1, 0, 0, 0, 0.996195, -0.0871557],
  "ImageOrientationText": "Tra>Cor(-5.0)",
  "ImageType": [
    "ORIGINAL",
    "PRIMARY",
    "M",
    "MB",
    "ND",
    "MOSAIC"
],
  "ImagingFrequency": 123.244,
  "InPlanePhaseEncodingDirectionDICOM": "COL",
  "InstitutionAddress": "Bedford Way 26,London,London,GB,WC1H 0AP",
  "InstitutionName": "University College",
  "InstitutionalDepartmentName": "Department",
  "MRAcquisitionType": "2D",
  "MagneticFieldStrength": 3,
  "Manufacturer": "Siemens",
  "ManufacturersModelName": "Prisma",
  "MatrixCoilMode": "SENSE",
  "Modality": "MR",
  "MultibandAccelerationFactor": 4,
  "NonlinearGradientCorrection": false,
  "PartialFourier": 0.75,
  "PatientPosition": "HFS",
  "PercentPhaseFOV": 100,
  "PercentSampling": 100,
  "PhaseEncodingDirection": "j-",
  "PhaseEncodingSteps": 80,
  "PhaseResolution": 1,
  "PixelBandwidth": 1815,
  "ProcedureStepDescription": "Egor^MovieProject2",
  "ProtocolName": "func-bold_task-motor_run-01",
  "PulseSequenceDetails": "%CustomerSeq%\\cmrr_mbep2d_bold",
  "ReceiveCoilActiveElements": "HEA;HEP",
  "ReceiveCoilName": "Head_32",
  "ReconMatrixPE": 106,
  "RepetitionTime": 1,
  "SAR": 0.0578793,
  "ScanOptions": "PFP\\FS\\EXT",
  "ScanningSequence": "EP",
  "SequenceName": "epfid2d1_106",
  "SequenceVariant": "SK\\SS",
  "SeriesDescription": "func-bold_task-motor_run-01",
  "SeriesNumber": 4,
  "ShimSetting": [-1523, 600, 7397, 200, -124, 172, 249, -28],
  "SliceThickness": 2,
  "SliceTiming": [0, 0.535, 0.09, 0.6225, 0.1775, 0.7125, 0.2675, 0.8025, 0.355, 0.89, 0.445, 0, 0.535, 0.09, 0.6225, 0.1775, 0.7125, 0.2675, 0.8025, 0.355, 0.89, 0.445, 0, 0.535, 0.09, 0.6225, 0.1775, 0.7125, 0.2675, 0.8025, 0.355, 0.89, 0.445, 0, 0.535, 0.09, 0.6225, 0.1775, 0.7125, 0.2675, 0.8025, 0.355, 0.89, 0.445],
  "SoftwareVersions": "syngo MR E11",
  "SpacingBetweenSlices": 2,
  "StationName": "AWP166108",
  "TaskName": "somatotopy",
  "TotalReadoutTime": 0.0735005,
  "TxRefAmp": 306.869,
  "WipMemBlock": "151e6854-fbaa-461b-b4fc-7d03f393dd3d||Sequence: R016 ve11c/master r/e634e98; Dec 19 2017 11:00:25 by eja",
  "dcmmeta_affine": [
    [-2.0, 0.0, 0.0, 106.0],
    [0.0, 1.992389440536499, -0.17431148886680603, -90.65655517578125],
    [0.0, 0.17431148886680603, 1.992389440536499, -25.70418357849121],
    [0.0, 0.0, 0.0, 1.0]
],
  "dcmmeta_reorient_transform": [
    [0.0, -1.0, 0.0, 105.0],
    [1.0, 0.0, 0.0, 0.0],
    [0.0, 0.0, 1.0, 0.0],
    [0.0, 0.0, 0.0, 1.0]
],
  "dcmmeta_shape": [106, 106, 44, 467],
  "dcmmeta_slice_dim": 2,
  "dcmmeta_version": 0.6,
  "global": {
    "const": {
      "AcquisitionMatrix": [106, 0, 0, 106],
      "AngioFlag": "N",
      "BitsAllocated": 16,
      "BitsStored": 16,
      "BodyPartExamined": "BRAIN",
      "CardiacNumberOfImages": 1,
      "Columns": 742,
      "EchoNumbers": 1,
      "EchoTime": 30.0,
      "EchoTrainLength": 80,
      "FlipAngle": 62.0,
      "HighBit": 15,
      "ImageOrientationPatient": [1.0, 0.0, 0.0, 0.0, 0.99619469794222, -0.0871557444567],
      "ImagePositionPatient": [-742.0, -752.12416255892, 48.029576348666],
      "ImageType": [
        "ORIGINAL",
        "PRIMARY",
        "M",
        "MB",
        "ND",
        "MOSAIC"
],
      "ImagedNucleus": "1H",
      "ImagingFrequency": 123.243579,
      "InPlanePhaseEncodingDirection": "COL",
      "MRAcquisitionType": "2D",
      "MagneticFieldStrength": 3.0,
      "Manufacturer": "SIEMENS",
      "ManufacturerModelName": "Prisma",
      "Modality": "MR",
      "NominalInterval": 0,
      "NumberOfAverages": 1.0,
      "NumberOfPhaseEncodingSteps": 80,
      "PercentPhaseFieldOfView": 100.0,
      "PercentSampling": 100.0,
      "PerformedProcedureStepStartTime": "184454.599000",
      "PhotometricInterpretation": "MONOCHROME2",
      "PixelBandwidth": 1815.0,
      "PixelRepresentation": 0,
      "PixelSpacing": [2.0, 2.0],
      "ProtocolName": "func-bold_task-motor_run-01",
      "RepetitionTime": 1000.0,
      "Rows": 742,
      "SAR": 0.05787925825366,
      "SamplesPerPixel": 1,
      "ScanOptions": [
        "PFP",
        "FS",
        "EXT"
],
      "ScanningSequence": "EP",
      "SequenceName": "epfid2d1_106",
      "SequenceVariant": [
        "SK",
        "SS"
],
      "SeriesDescription": "func-bold_task-motor_run-01",
      "SeriesNumber": 4,
      "SeriesTime": "190709.486000",
      "SliceLocation": -17.705132008745,
      "SliceThickness": 2.0,
      "SmallestImagePixelValue": 0,
      "SoftwareVersions": "syngo MR E11",
      "SpacingBetweenSlices": 2.000000060505,
      "SpecificCharacterSet": "ISO_IR 100",
      "StudyID": "1",
      "StudyTime": "184454.539000",
      "TransmitCoilName": "Body",
      "VariableFlipAngleFlag": "N",
      "WindowCenterWidthExplanation": "Algo1",
      "dBdt": 0.0},
    "slices": {}
  },
  "time": {
    "samples": {
      "AcquisitionNumber": [1, 2, 3, 4, 5, 6, 7, 8, 9, 10, 11, 12, 13, 14, 15, 16, 17, 18, 19, 20, 21, 22, 23, 24, 25, 26, 27, 28, 29, 30, 31, 32, 33, 34, 35, 36, 37, 38, 39, 40, 41, 42, 43, 44, 45, 46, 47, 48, 49, 50, 51, 52, 53, 54, 55, 56, 57, 58, 59, 60, 61, 62, 63, 64, 65, 66, 67, 68, 69, 70, 71, 72, 73, 74, 75, 76, 77, 78, 79, 80, 81, 82, 83, 84, 85, 86, 87, 88, 89, 90, 91, 92, 93, 94, 95, 96, 97, 98, 99, 100, 101, 102, 103, 104, 105, 106, 107, 108, 109, 110, 111, 112, 113, 114, 115, 116, 117, 118, 119, 120, 121, 122, 123, 124, 125, 126, 127, 128, 129, 130, 131, 132, 133, 134, 135, 136, 137, 138, 139, 140, 141, 142, 143, 144, 145, 146, 147, 148, 149, 150, 151, 152, 153, 154, 155, 156, 157, 158, 159, 160, 161, 162, 163, 164, 165, 166, 167, 168, 169, 170, 171, 172, 173, 174, 175, 176, 177, 178, 179, 180, 181, 182, 183, 184, 185, 186, 187, 188, 189, 190, 191, 192, 193, 194, 195, 196, 197, 198, 199, 200, 201, 202, 203, 204, 205, 206, 207, 208, 209, 210, 211, 212, 213, 214, 215, 216, 217, 218, 219, 220, 221, 222, 223, 224, 225, 226, 227, 228, 229, 230, 231, 232, 233, 234, 235, 236, 237, 238, 239, 240, 241, 242, 243, 244, 245, 246, 247, 248, 249, 250, 251, 252, 253, 254, 255, 256, 257, 258, 259, 260, 261, 262, 263, 264, 265, 266, 267, 268, 269, 270, 271, 272, 273, 274, 275, 276, 277, 278, 279, 280, 281, 282, 283, 284, 285, 286, 287, 288, 289, 290, 291, 292, 293, 294, 295, 296, 297, 298, 299, 300, 301, 302, 303, 304, 305, 306, 307, 308, 309, 310, 311, 312, 313, 314, 315, 316, 317, 318, 319, 320, 321, 322, 323, 324, 325, 326, 327, 328, 329, 330, 331, 332, 333, 334, 335, 336, 337, 338, 339, 340, 341, 342, 343, 344, 345, 346, 347, 348, 349, 350, 351, 352, 353, 354, 355, 356, 357, 358, 359, 360, 361, 362, 363, 364, 365, 366, 367, 368, 369, 370, 371, 372, 373, 374, 375, 376, 377, 378, 379, 380, 381, 382, 383, 384, 385, 386, 387, 388, 389, 390, 391, 392, 393, 394, 395, 396, 397, 398, 399, 400, 401, 402, 403, 404, 405, 406, 407, 408, 409, 410, 411, 412, 413, 414, 415, 416, 417, 418, 419, 420, 421, 422, 423, 424, 425, 426, 427, 428, 429, 430, 431, 432, 433, 434, 435, 436, 437, 438, 439, 440, 441, 442, 443, 444, 445, 446, 447, 448, 449, 450, 451, 452, 453, 454, 455, 456, 457, 458, 459, 460, 461, 462, 463, 464, 465, 466, 467],
      "AcquisitionTime": ["190634.732500", "190635.732500", "190636.732500", "190637.732500", "190638.732500", "190639.732500", "190640.732500", "190641.732500", "190642.732500", "190643.732500", "190644.732500", "190645.732500", "190646.732500", "190647.732500", "190648.732500", "190649.732500", "190650.732500", "190651.732500", "190652.732500", "190653.732500", "190654.732500", "190655.732500", "190656.732500", "190657.732500", "190658.732500", "190659.732500", "190700.732500", "190701.732500", "190702.732500", "190703.732500", "190704.732500", "190705.732500", "190706.732500", "190707.732500", "190708.732500", "190709.732500", "190710.732500", "190711.732500", "190712.732500", "190713.732500", "190714.732500", "190715.732500", "190716.732500", "190717.732500", "190718.732500", "190719.732500", "190720.732500", "190721.732500", "190722.732500", "190723.732500", "190724.732500", "190725.732500", "190726.732500", "190727.732500", "190728.732500", "190729.732500", "190730.732500", "190731.732500", "190732.732500", "190733.732500", "190734.732500", "190735.732500", "190736.732500", "190737.732500", "190738.732500", "190739.732500", "190740.732500", "190741.732500", "190742.732500", "190743.732500", "190744.732500", "190745.732500", "190746.732500", "190747.732500", "190748.732500", "190749.732500", "190750.732500", "190751.732500", "190752.732500", "190753.732500", "190754.732500", "190755.732500", "190756.732500", "190757.732500", "190758.732500", "190759.732500", "190800.732500", "190801.732500", "190802.732500", "190803.732500", "190804.732500", "190805.732500", "190806.732500", "190807.732500", "190808.732500", "190809.732500", "190810.732500", "190811.732500", "190812.732500", "190813.732500", "190814.732500", "190815.732500", "190816.732500", "190817.732500", "190818.732500", "190819.732500", "190820.732500", "190821.732500", "190822.732500", "190823.732500", "190824.732500", "190825.732500", "190826.732500", "190827.732500", "190828.732500", "190829.732500", "190830.732500", "190831.732500", "190832.732500", "190833.732500", "190834.732500", "190835.732500", "190836.732500", "190837.732500", "190838.732500", "190839.732500", "190840.732500", "190841.732500", "190842.732500", "190843.732500", "190844.732500", "190845.732500", "190846.732500", "190847.732500", "190848.732500", "190849.732500", "190850.732500", "190851.732500", "190852.732500", "190853.732500", "190854.732500", "190855.732500", "190856.732500", "190857.732500", "190858.732500", "190859.732500", "190900.732500", "190901.732500", "190902.732500", "190903.732500", "190904.732500", "190905.732500", "190906.732500", "190907.732500", "190908.732500", "190909.732500", "190910.732500", "190911.732500", "190912.732500", "190913.732500", "190914.732500", "190915.732500", "190916.732500", "190917.732500", "190918.732500", "190919.732500", "190920.732500", "190921.732500", "190922.732500", "190923.732500", "190924.732500", "190925.732500", "190926.732500", "190927.732500", "190928.732500", "190929.732500", "190930.732500", "190931.732500", "190932.732500", "190933.732500", "190934.732500", "190935.732500", "190936.732500", "190937.732500", "190938.732500", "190939.732500", "190940.732500", "190941.732500", "190942.732500", "190943.732500", "190944.732500", "190945.732500", "190946.732500", "190947.732500", "190948.732500", "190949.732500", "190950.732500", "190951.732500", "190952.732500", "190953.732500", "190954.732500", "190955.732500", "190956.732500", "190957.732500", "190958.732500", "190959.732500", "191000.732500", "191001.732500", "191002.732500", "191003.732500", "191004.732500", "191005.732500", "191006.732500", "191007.732500", "191008.732500", "191009.732500", "191010.732500", "191011.732500", "191012.732500", "191013.732500", "191014.732500", "191015.732500", "191016.732500", "191017.732500", "191018.732500", "191019.732500", "191020.732500", "191021.732500", "191022.732500", "191023.732500", "191024.732500", "191025.732500", "191026.732500", "191027.732500", "191028.732500", "191029.732500", "191030.732500", "191031.732500", "191032.732500", "191033.732500", "191034.732500", "191035.732500", "191036.732500", "191037.732500", "191038.732500", "191039.732500", "191040.732500", "191041.732500", "191042.732500", "191043.732500", "191044.732500", "191045.732500", "191046.732500", "191047.732500", "191048.732500", "191049.732500", "191050.732500", "191051.732500", "191052.732500", "191053.732500", "191054.732500", "191055.732500", "191056.732500", "191057.732500", "191058.732500", "191059.732500", "191100.732500", "191101.732500", "191102.732500", "191103.732500", "191104.732500", "191105.732500", "191106.732500", "191107.732500", "191108.732500", "191109.732500", "191110.732500", "191111.732500", "191112.732500", "191113.732500", "191114.732500", "191115.732500", "191116.732500", "191117.732500", "191118.732500", "191119.732500", "191120.732500", "191121.732500", "191122.732500", "191123.732500", "191124.732500", "191125.732500", "191126.732500", "191127.732500", "191128.732500", "191129.732500", "191130.732500", "191131.732500", "191132.732500", "191133.732500", "191134.732500", "191135.732500", "191136.732500", "191137.732500", "191138.732500", "191139.732500", "191140.732500", "191141.732500", "191142.732500", "191143.732500", "191144.732500", "191145.732500", "191146.732500", "191147.732500", "191148.732500", "191149.732500", "191150.732500", "191151.732500", "191152.732500", "191153.732500", "191154.732500", "191155.732500", "191156.732500", "191157.732500", "191158.732500", "191159.732500", "191200.732500", "191201.732500", "191202.732500", "191203.732500", "191204.732500", "191205.732500", "191206.732500", "191207.732500", "191208.732500", "191209.732500", "191210.732500", "191211.732500", "191212.732500", "191213.732500", "191214.732500", "191215.732500", "191216.732500", "191217.732500", "191218.732500", "191219.732500", "191220.732500", "191221.732500", "191222.732500", "191223.732500", "191224.732500", "191225.732500", "191226.732500", "191227.732500", "191228.732500", "191229.732500", "191230.732500", "191231.732500", "191232.732500", "191233.732500", "191234.732500", "191235.732500", "191236.732500", "191237.732500", "191238.732500", "191239.732500", "191240.732500", "191241.732500", "191242.732500", "191243.732500", "191244.732500", "191245.732500", "191246.732500", "191247.732500", "191248.732500", "191249.732500", "191250.732500", "191251.732500", "191252.732500", "191253.732500", "191254.732500", "191255.732500", "191256.732500", "191257.732500", "191258.732500", "191259.732500", "191300.732500", "191301.732500", "191302.732500", "191303.732500", "191304.732500", "191305.732500", "191306.732500", "191307.732500", "191308.732500", "191309.732500", "191310.732500", "191311.732500", "191312.732500", "191313.732500", "191314.732500", "191315.732500", "191316.732500", "191317.732500", "191318.732500", "191319.732500", "191320.732500", "191321.732500", "191322.732500", "191323.732500", "191324.732500", "191325.732500", "191326.732500", "191327.732500", "191328.732500", "191329.732500", "191330.732500", "191331.732500", "191332.732500", "191333.732500", "191334.732500", "191335.732500", "191336.732500", "191337.732500", "191338.732500", "191339.732500", "191340.732500", "191341.732500", "191342.732500", "191343.732500", "191344.732500", "191345.732500", "191346.732500", "191347.732500", "191348.732500", "191349.732500", "191350.732500", "191351.732500", "191352.732500", "191353.732500", "191354.732500", "191355.732500", "191356.732500", "191357.732500", "191358.732500", "191359.732500", "191400.732500", "191401.732500", "191402.732500", "191403.732500", "191404.732500", "191405.732500", "191406.732500", "191407.732500", "191408.732500", "191409.732500", "191410.732500", "191411.732500", "191412.732500", "191413.732500", "191414.732500", "191415.732500", "191416.732500", "191417.732500", "191418.732500", "191419.732500", "191420.732500"],
      "ContentTime": ["190709.488000", "190709.491000", "190709.494000", "190709.496000", "190709.499000", "190709.501000", "190709.504000", "190709.506000", "190709.509000", "190709.511000", "190709.514000", "190709.516000", "190709.518000", "190709.521000", "190709.523000", "190709.526000", "190709.528000", "190709.531000", "190709.533000", "190709.536000", "190709.538000", "190709.541000", "190709.543000", "190709.545000", "190709.548000", "190709.560000", "190709.563000", "190709.565000", "190709.568000", "190709.570000", "190709.573000", "190709.585000", "190709.588000", "190729.457000", "190729.460000", "190729.462000", "190729.465000", "190729.467000", "190729.470000", "190729.472000", "190729.475000", "190729.477000", "190729.479000", "190729.482000", "190729.484000", "190729.487000", "190729.489000", "190729.492000", "190729.494000", "190729.497000", "190729.499000", "190729.501000", "190729.504000", "190749.457000", "190749.460000", "190749.463000", "190749.465000", "190749.467000", "190749.470000", "190749.472000", "190749.475000", "190749.477000", "190749.480000", "190749.482000", "190749.485000", "190749.487000", "190749.489000", "190749.492000", "190749.494000", "190749.497000", "190749.499000", "190749.502000", "190749.504000", "190809.457000", "190809.465000", "190809.468000", "190809.470000", "190809.473000", "190809.475000", "190809.478000", "190809.480000", "190809.483000", "190809.485000", "190809.488000", "190809.490000", "190809.492000", "190809.495000", "190809.497000", "190809.500000", "190809.502000", "190809.505000", "190809.507000", "190809.509000", "190829.458000", "190829.460000", "190829.463000", "190829.465000", "190829.468000", "190829.470000", "190829.473000", "190829.475000", "190829.477000", "190829.480000", "190829.482000", "190829.485000", "190829.487000", "190829.490000", "190829.492000", "190829.494000", "190829.497000", "190829.499000", "190829.502000", "190829.504000", "190849.456000", "190849.459000", "190849.461000", "190849.464000", "190849.466000", "190849.469000", "190849.471000", "190849.474000", "190849.476000", "190849.479000", "190849.481000", "190849.483000", "190849.486000", "190849.488000", "190849.491000", "190849.493000", "190849.496000", "190849.498000", "190849.501000", "190849.503000", "190909.457000", "190909.460000", "190909.463000", "190909.465000", "190909.468000", "190909.470000", "190909.472000", "190909.475000", "190909.477000", "190909.480000", "190909.482000", "190909.485000", "190909.487000", "190909.489000", "190909.492000", "190909.494000", "190909.497000", "190909.499000", "190909.502000", "190909.504000", "190929.457000", "190929.460000", "190929.463000", "190929.465000", "190929.468000", "190929.470000", "190929.472000", "190929.475000", "190929.477000", "190929.480000", "190929.482000", "190929.485000", "190929.487000", "190929.490000", "190929.492000", "190929.495000", "190929.497000", "190929.499000", "190929.502000", "190929.504000", "190949.457000", "190949.460000", "190949.463000", "190949.465000", "190949.468000", "190949.470000", "190949.473000", "190949.475000", "190949.477000", "190949.480000", "190949.482000", "190949.485000", "190949.487000", "190949.490000", "190949.492000", "190949.494000", "190949.497000", "190949.499000", "190949.502000", "190949.504000", "191009.457000", "191009.460000", "191009.462000", "191009.465000", "191009.467000", "191009.470000", "191009.472000", "191009.475000", "191009.477000", "191009.480000", "191009.482000", "191009.485000", "191009.487000", "191009.490000", "191009.492000", "191009.494000", "191009.497000", "191009.499000", "191009.502000", "191009.504000", "191029.457000", "191029.460000", "191029.463000", "191029.465000", "191029.467000", "191029.470000", "191029.472000", "191029.475000", "191029.477000", "191029.480000", "191029.482000", "191029.485000", "191029.487000", "191029.490000", "191029.492000", "191029.495000", "191029.497000", "191029.500000", "191029.502000", "191029.505000", "191049.457000", "191049.460000", "191049.462000", "191049.465000", "191049.467000", "191049.470000", "191049.472000", "191049.475000", "191049.477000", "191049.480000", "191049.482000", "191049.484000", "191049.487000", "191049.489000", "191049.492000", "191049.494000", "191049.497000", "191049.499000", "191049.502000", "191049.504000", "191109.456000", "191109.459000", "191109.462000", "191109.464000", "191109.467000", "191109.469000", "191109.471000", "191109.474000", "191109.476000", "191109.492000", "191109.494000", "191109.497000", "191109.499000", "191109.501000", "191109.504000", "191109.506000", "191109.509000", "191109.511000", "191109.514000", "191109.516000", "191129.457000", "191129.460000", "191129.462000", "191129.465000", "191129.467000", "191129.470000", "191129.472000", "191129.475000", "191129.477000", "191129.480000", "191129.482000", "191129.485000", "191129.487000", "191129.490000", "191129.492000", "191129.494000", "191129.497000", "191129.499000", "191129.502000", "191129.504000", "191149.457000", "191149.460000", "191149.463000", "191149.465000", "191149.467000", "191149.470000", "191149.472000", "191149.475000", "191149.477000", "191149.480000", "191149.482000", "191149.485000", "191149.487000", "191149.489000", "191149.492000", "191149.494000", "191149.497000", "191149.499000", "191149.502000", "191149.504000", "191209.457000", "191209.460000", "191209.462000", "191209.465000", "191209.467000", "191209.470000", "191209.472000", "191209.475000", "191209.477000", "191209.480000", "191209.482000", "191209.485000", "191209.487000", "191209.489000", "191209.492000", "191209.494000", "191209.497000", "191209.499000", "191209.502000", "191209.504000", "191229.457000", "191229.460000", "191229.463000", "191229.465000", "191229.468000", "191229.470000", "191229.473000", "191229.475000", "191229.477000", "191229.480000", "191229.482000", "191229.485000", "191229.487000", "191229.490000", "191229.492000", "191229.495000", "191229.497000", "191229.500000", "191229.502000", "191229.505000", "191249.457000", "191249.460000", "191249.462000", "191249.465000", "191249.467000", "191249.470000", "191249.472000", "191249.475000", "191249.477000", "191249.480000", "191249.482000", "191249.485000", "191249.487000", "191249.490000", "191249.492000", "191249.494000", "191249.500000", "191249.503000", "191249.505000", "191249.508000", "191309.458000", "191309.460000", "191309.463000", "191309.465000", "191309.468000", "191309.470000", "191309.473000", "191309.475000", "191309.478000", "191309.480000", "191309.482000", "191309.485000", "191309.487000", "191309.490000", "191309.492000", "191309.495000", "191309.497000", "191309.500000", "191309.502000", "191309.505000", "191329.456000", "191329.459000", "191329.461000", "191329.464000", "191329.466000", "191329.469000", "191329.471000", "191329.474000", "191329.476000", "191329.479000", "191329.481000", "191329.483000", "191329.486000", "191329.488000", "191329.491000", "191329.493000", "191329.496000", "191329.498000", "191329.501000", "191329.503000", "191349.457000", "191349.460000", "191349.463000", "191349.465000", "191349.467000", "191349.470000", "191349.472000", "191349.475000", "191349.477000", "191349.480000", "191349.482000", "191349.484000", "191349.487000", "191349.489000", "191349.492000", "191349.494000", "191349.497000", "191349.499000", "191349.502000", "191349.504000", "191409.457000", "191409.460000", "191409.462000", "191409.465000", "191409.467000", "191409.470000", "191409.472000", "191409.475000", "191409.477000", "191409.480000", "191409.482000", "191409.485000", "191409.487000", "191409.489000", "191409.492000", "191409.494000", "191409.497000", "191409.499000", "191409.502000", "191409.504000", "191422.814000", "191422.817000", "191422.820000", "191422.822000", "191422.825000", "191422.827000", "191422.830000", "191422.833000", "191422.835000", "191422.838000", "191422.840000", "191422.842000", "191422.845000", "191422.847000"],
