{
  "AcquisitionMatrixPE": 106,
  "AcquisitionNumber": 1,
  "AcquisitionTime": "19:31:29.925000",
  "BandwidthPerPixelPhaseEncode": 13.477,
  "BaseResolution": 106,
  "BodyPartExamined": "BRAIN",
  "CoilCombinationMethod": "Sum of Squares",
  "ConsistencyInfo": "N4_VE11C_LATEST_20160120",
  "ConversionSoftware": "dcm2niix",
  "ConversionSoftwareVersion": "v1.0.20220720",
  "DerivedVendorReportedEchoSpacing": 0.000700005,
  "DeviceSerialNumber": "166108",
  "DwellTime": 2.6e-06,
  "EchoTime": 0.03,
  "EchoTrainLength": 80,
  "EffectiveEchoSpacing": 0.000700005,
  "FlipAngle": 62,
  "HeudiconvVersion": "1.3.0",
  "ImageComments": "Unaliased MB4/PE3/LB",
  "ImageOrientationPatientDICOM": [1, 0, 0, 0, 0.971961, -0.235142],
  "ImageOrientationText": "Tra>Cor(-13.6)",
  "ImageType": [
    "ORIGINAL",
    "PRIMARY",
    "M",
    "MB",
    "ND",
    "MOSAIC"
],
  "ImagingFrequency": 123.244,
  "InPlanePhaseEncodingDirectionDICOM": "COL",
  "InstitutionAddress": "Bedford Way 26,London,London,GB,WC1H 0AP",
  "InstitutionName": "University College",
  "InstitutionalDepartmentName": "Department",
  "MRAcquisitionType": "2D",
  "MagneticFieldStrength": 3,
  "Manufacturer": "Siemens",
  "ManufacturersModelName": "Prisma",
  "MatrixCoilMode": "SENSE",
  "Modality": "MR",
  "MultibandAccelerationFactor": 4,
  "NonlinearGradientCorrection": false,
  "PartialFourier": 0.75,
  "PatientPosition": "HFS",
  "PercentPhaseFOV": 100,
  "PercentSampling": 100,
  "PhaseEncodingDirection": "j-",
  "PhaseEncodingSteps": 80,
  "PhaseResolution": 1,
  "PixelBandwidth": 1815,
  "ProcedureStepDescription": "Egor^MovieProject2",
  "ProtocolName": "func-bold_task-motor_run-01",
  "PulseSequenceDetails": "%CustomerSeq%\\cmrr_mbep2d_bold",
  "ReceiveCoilActiveElements": "HEA;HEP",
  "ReceiveCoilName": "Head_32",
  "ReconMatrixPE": 106,
  "RepetitionTime": 1,
  "SAR": 0.0513011,
  "ScanOptions": "PFP\\FS\\EXT",
  "ScanningSequence": "EP",
  "SequenceName": "epfid2d1_106",
  "SequenceVariant": "SK\\SS",
  "SeriesDescription": "func-bold_task-motor_run-01",
  "SeriesNumber": 6,
  "ShimSetting": [-1516, 663, 7350, -33, -43, 130, 95, -84],
  "SliceThickness": 2,
  "SliceTiming": [0, 0.5325, 0.0875, 0.6225, 0.1775, 0.7125, 0.265, 0.8, 0.355, 0.89, 0.445, 0, 0.5325, 0.0875, 0.6225, 0.1775, 0.7125, 0.265, 0.8, 0.355, 0.89, 0.445, 0, 0.5325, 0.0875, 0.6225, 0.1775, 0.7125, 0.265, 0.8, 0.355, 0.89, 0.445, 0, 0.5325, 0.0875, 0.6225, 0.1775, 0.7125, 0.265, 0.8, 0.355, 0.89, 0.445],
  "SoftwareVersions": "syngo MR E11",
  "SpacingBetweenSlices": 2,
  "StationName": "AWP166108",
  "TaskName": "somatotopy",
  "TotalReadoutTime": 0.0735005,
  "TxRefAmp": 239.94,
  "WipMemBlock": "93483909-8def-4d7b-bf4b-bf2472ea2fcb||Sequence: R016 ve11c/master r/e634e98; Dec 19 2017 11:00:25 by eja",
  "dcmmeta_affine": [
    [-2.0, 0.0, 0.0, 106.0],
    [0.0, 1.9439220428466797, -0.47028422355651855, -94.73690032958984],
    [0.0, 0.47028419375419617, 1.9439220428466797, -19.04004669189453],
    [0.0, 0.0, 0.0, 1.0]
],
  "dcmmeta_reorient_transform": [
    [0.0, -1.0, 0.0, 105.0],
    [1.0, 0.0, 0.0, 0.0],
    [0.0, 0.0, 1.0, 0.0],
    [0.0, 0.0, 0.0, 1.0]
],
  "dcmmeta_shape": [106, 106, 44, 467],
  "dcmmeta_slice_dim": 2,
  "dcmmeta_version": 0.6,
  "global": {
    "const": {
      "AcquisitionMatrix": [106, 0, 0, 106],
      "AngioFlag": "N",
      "BitsAllocated": 16,
      "BitsStored": 16,
      "BodyPartExamined": "BRAIN",
      "CardiacNumberOfImages": 1,
      "Columns": 742,
      "EchoNumbers": 1,
      "EchoTime": 30.0,
      "EchoTrainLength": 80,
      "FlipAngle": 62.0,
      "HighBit": 15,
      "ImageOrientationPatient": [1.0, 0.0, 0.0, 0.0, 0.97196100271939, -0.2351421042534],
      "ImagePositionPatient": [-742.0, -727.54210943939, 179.8901733354],
      "ImageType": [
        "ORIGINAL",
        "PRIMARY",
        "M",
        "MB",
        "ND",
        "MOSAIC"
],
      "ImagedNucleus": "1H",
      "ImagingFrequency": 123.243654,
      "InPlanePhaseEncodingDirection": "COL",
      "MRAcquisitionType": "2D",
      "MagneticFieldStrength": 3.0,
      "Manufacturer": "SIEMENS",
      "ManufacturerModelName": "Prisma",
      "Modality": "MR",
      "NominalInterval": 0,
      "NumberOfAverages": 1.0,
      "NumberOfPhaseEncodingSteps": 80,
      "PercentPhaseFieldOfView": 100.0,
      "PercentSampling": 100.0,
      "PerformedProcedureStepStartTime": "185526.528000",
      "PhotometricInterpretation": "MONOCHROME2",
      "PixelBandwidth": 1815.0,
      "PixelRepresentation": 0,
      "PixelSpacing": [2.0, 2.0],
      "ProtocolName": "func-bold_task-motor_run-01",
      "RepetitionTime": 1000.0,
      "Rows": 742,
      "SAR": 0.05130108492877,
      "SamplesPerPixel": 1,
      "ScanOptions": [
        "PFP",
        "FS",
        "EXT"
],
      "ScanningSequence": "EP",
      "SequenceName": "epfid2d1_106",
      "SequenceVariant": [
        "SK",
        "SS"
],
      "SeriesDescription": "func-bold_task-motor_run-01",
      "SeriesNumber": 6,
      "SeriesTime": "193203.818000",
      "SliceLocation": 3.7704507078982,
      "SliceThickness": 2.0,
      "SmallestImagePixelValue": 0,
      "SoftwareVersions": "syngo MR E11",
      "SpacingBetweenSlices": 2.0000000412016,
      "SpecificCharacterSet": "ISO_IR 100",
      "StudyID": "1",
      "StudyTime": "185526.408000",
      "TransmitCoilName": "Body",
      "VariableFlipAngleFlag": "N",
      "WindowCenterWidthExplanation": "Algo1",
      "dBdt": 0.0},
    "slices": {}
  },
  "time": {
    "samples": {
      "AcquisitionNumber": [1, 2, 3, 4, 5, 6, 7, 8, 9, 10, 11, 12, 13, 14, 15, 16, 17, 18, 19, 20, 21, 22, 23, 24, 25, 26, 27, 28, 29, 30, 31, 32, 33, 34, 35, 36, 37, 38, 39, 40, 41, 42, 43, 44, 45, 46, 47, 48, 49, 50, 51, 52, 53, 54, 55, 56, 57, 58, 59, 60, 61, 62, 63, 64, 65, 66, 67, 68, 69, 70, 71, 72, 73, 74, 75, 76, 77, 78, 79, 80, 81, 82, 83, 84, 85, 86, 87, 88, 89, 90, 91, 92, 93, 94, 95, 96, 97, 98, 99, 100, 101, 102, 103, 104, 105, 106, 107, 108, 109, 110, 111, 112, 113, 114, 115, 116, 117, 118, 119, 120, 121, 122, 123, 124, 125, 126, 127, 128, 129, 130, 131, 132, 133, 134, 135, 136, 137, 138, 139, 140, 141, 142, 143, 144, 145, 146, 147, 148, 149, 150, 151, 152, 153, 154, 155, 156, 157, 158, 159, 160, 161, 162, 163, 164, 165, 166, 167, 168, 169, 170, 171, 172, 173, 174, 175, 176, 177, 178, 179, 180, 181, 182, 183, 184, 185, 186, 187, 188, 189, 190, 191, 192, 193, 194, 195, 196, 197, 198, 199, 200, 201, 202, 203, 204, 205, 206, 207, 208, 209, 210, 211, 212, 213, 214, 215, 216, 217, 218, 219, 220, 221, 222, 223, 224, 225, 226, 227, 228, 229, 230, 231, 232, 233, 234, 235, 236, 237, 238, 239, 240, 241, 242, 243, 244, 245, 246, 247, 248, 249, 250, 251, 252, 253, 254, 255, 256, 257, 258, 259, 260, 261, 262, 263, 264, 265, 266, 267, 268, 269, 270, 271, 272, 273, 274, 275, 276, 277, 278, 279, 280, 281, 282, 283, 284, 285, 286, 287, 288, 289, 290, 291, 292, 293, 294, 295, 296, 297, 298, 299, 300, 301, 302, 303, 304, 305, 306, 307, 308, 309, 310, 311, 312, 313, 314, 315, 316, 317, 318, 319, 320, 321, 322, 323, 324, 325, 326, 327, 328, 329, 330, 331, 332, 333, 334, 335, 336, 337, 338, 339, 340, 341, 342, 343, 344, 345, 346, 347, 348, 349, 350, 351, 352, 353, 354, 355, 356, 357, 358, 359, 360, 361, 362, 363, 364, 365, 366, 367, 368, 369, 370, 371, 372, 373, 374, 375, 376, 377, 378, 379, 380, 381, 382, 383, 384, 385, 386, 387, 388, 389, 390, 391, 392, 393, 394, 395, 396, 397, 398, 399, 400, 401, 402, 403, 404, 405, 406, 407, 408, 409, 410, 411, 412, 413, 414, 415, 416, 417, 418, 419, 420, 421, 422, 423, 424, 425, 426, 427, 428, 429, 430, 431, 432, 433, 434, 435, 436, 437, 438, 439, 440, 441, 442, 443, 444, 445, 446, 447, 448, 449, 450, 451, 452, 453, 454, 455, 456, 457, 458, 459, 460, 461, 462, 463, 464, 465, 466, 467],
      "AcquisitionTime": ["193129.925000", "193130.925000", "193131.925000", "193132.925000", "193133.925000", "193134.925000", "193135.925000", "193136.925000", "193137.925000", "193138.925000", "193139.925000", "193140.925000", "193141.925000", "193142.925000", "193143.925000", "193144.925000", "193145.925000", "193146.925000", "193147.925000", "193148.925000", "193149.925000", "193150.925000", "193151.925000", "193152.925000", "193153.925000", "193154.925000", "193155.925000", "193156.925000", "193157.925000", "193158.925000", "193159.925000", "193200.925000", "193201.925000", "193202.925000", "193203.925000", "193204.925000", "193205.925000", "193206.925000", "193207.925000", "193208.925000", "193209.925000", "193210.925000", "193211.925000", "193212.925000", "193213.925000", "193214.925000", "193215.925000", "193216.925000", "193217.925000", "193218.925000", "193219.925000", "193220.925000", "193221.925000", "193222.925000", "193223.925000", "193224.925000", "193225.925000", "193226.925000", "193227.925000", "193228.925000", "193229.925000", "193230.925000", "193231.925000", "193232.925000", "193233.925000", "193234.925000", "193235.925000", "193236.925000", "193237.925000", "193238.925000", "193239.925000", "193240.925000", "193241.925000", "193242.925000", "193243.925000", "193244.925000", "193245.925000", "193246.925000", "193247.925000", "193248.925000", "193249.925000", "193250.925000", "193251.925000", "193252.925000", "193253.925000", "193254.925000", "193255.925000", "193256.925000", "193257.925000", "193258.925000", "193259.925000", "193300.925000", "193301.925000", "193302.925000", "193303.925000", "193304.925000", "193305.925000", "193306.925000", "193307.925000", "193308.925000", "193309.925000", "193310.925000", "193311.925000", "193312.925000", "193313.925000", "193314.925000", "193315.925000", "193316.925000", "193317.925000", "193318.925000", "193319.925000", "193320.925000", "193321.925000", "193322.925000", "193323.925000", "193324.925000", "193325.925000", "193326.925000", "193327.925000", "193328.925000", "193329.925000", "193330.925000", "193331.925000", "193332.925000", "193333.925000", "193334.925000", "193335.925000", "193336.925000", "193337.925000", "193338.925000", "193339.925000", "193340.925000", "193341.925000", "193342.925000", "193343.925000", "193344.925000", "193345.925000", "193346.925000", "193347.925000", "193348.925000", "193349.925000", "193350.925000", "193351.925000", "193352.925000", "193353.925000", "193354.925000", "193355.925000", "193356.925000", "193357.925000", "193358.925000", "193359.925000", "193400.925000", "193401.925000", "193402.925000", "193403.925000", "193404.925000", "193405.925000", "193406.925000", "193407.925000", "193408.925000", "193409.925000", "193410.925000", "193411.925000", "193412.925000", "193413.925000", "193414.925000", "193415.925000", "193416.925000", "193417.925000", "193418.925000", "193419.925000", "193420.925000", "193421.925000", "193422.925000", "193423.925000", "193424.925000", "193425.925000", "193426.925000", "193427.925000", "193428.925000", "193429.925000", "193430.925000", "193431.925000", "193432.925000", "193433.925000", "193434.925000", "193435.925000", "193436.925000", "193437.925000", "193438.925000", "193439.925000", "193440.925000", "193441.925000", "193442.925000", "193443.925000", "193444.925000", "193445.925000", "193446.925000", "193447.925000", "193448.925000", "193449.925000", "193450.925000", "193451.925000", "193452.925000", "193453.925000", "193454.925000", "193455.925000", "193456.925000", "193457.925000", "193458.925000", "193459.925000", "193500.925000", "193501.925000", "193502.925000", "193503.925000", "193504.925000", "193505.925000", "193506.925000", "193507.925000", "193508.925000", "193509.925000", "193510.925000", "193511.925000", "193512.925000", "193513.925000", "193514.925000", "193515.925000", "193516.925000", "193517.925000", "193518.925000", "193519.925000", "193520.925000", "193521.925000", "193522.925000", "193523.925000", "193524.925000", "193525.925000", "193526.925000", "193527.925000", "193528.925000", "193529.925000", "193530.925000", "193531.925000", "193532.925000", "193533.925000", "193534.925000", "193535.925000", "193536.925000", "193537.925000", "193538.925000", "193539.925000", "193540.925000", "193541.925000", "193542.925000", "193543.925000", "193544.925000", "193545.925000", "193546.925000", "193547.925000", "193548.925000", "193549.925000", "193550.925000", "193551.925000", "193552.925000", "193553.925000", "193554.925000", "193555.925000", "193556.925000", "193557.925000", "193558.925000", "193559.925000", "193600.925000", "193601.925000", "193602.925000", "193603.925000", "193604.925000", "193605.925000", "193606.925000", "193607.925000", "193608.925000", "193609.925000", "193610.925000", "193611.925000", "193612.925000", "193613.925000", "193614.925000", "193615.925000", "193616.925000", "193617.925000", "193618.925000", "193619.925000", "193620.925000", "193621.925000", "193622.925000", "193623.925000", "193624.925000", "193625.925000", "193626.925000", "193627.925000", "193628.925000", "193629.925000", "193630.925000", "193631.925000", "193632.925000", "193633.925000", "193634.925000", "193635.925000", "193636.925000", "193637.925000", "193638.925000", "193639.925000", "193640.925000", "193641.925000", "193642.925000", "193643.925000", "193644.925000", "193645.925000", "193646.925000", "193647.925000", "193648.925000", "193649.925000", "193650.925000", "193651.925000", "193652.925000", "193653.925000", "193654.925000", "193655.925000", "193656.925000", "193657.925000", "193658.925000", "193659.925000", "193700.925000", "193701.925000", "193702.925000", "193703.925000", "193704.925000", "193705.925000", "193706.925000", "193707.925000", "193708.925000", "193709.925000", "193710.925000", "193711.925000", "193712.925000", "193713.925000", "193714.925000", "193715.925000", "193716.925000", "193717.925000", "193718.925000", "193719.925000", "193720.925000", "193721.925000", "193722.925000", "193723.925000", "193724.925000", "193725.925000", "193726.925000", "193727.925000", "193728.925000", "193729.925000", "193730.925000", "193731.925000", "193732.925000", "193733.925000", "193734.925000", "193735.925000", "193736.925000", "193737.925000", "193738.925000", "193739.925000", "193740.925000", "193741.925000", "193742.925000", "193743.925000", "193744.925000", "193745.925000", "193746.925000", "193747.925000", "193748.925000", "193749.925000", "193750.925000", "193751.925000", "193752.925000", "193753.925000", "193754.925000", "193755.925000", "193756.925000", "193757.925000", "193758.925000", "193759.925000", "193800.925000", "193801.925000", "193802.925000", "193803.925000", "193804.925000", "193805.925000", "193806.925000", "193807.925000", "193808.925000", "193809.925000", "193810.925000", "193811.925000", "193812.925000", "193813.925000", "193814.925000", "193815.925000", "193816.925000", "193817.925000", "193818.925000", "193819.925000", "193820.925000", "193821.925000", "193822.925000", "193823.925000", "193824.925000", "193825.925000", "193826.925000", "193827.925000", "193828.925000", "193829.925000", "193830.925000", "193831.925000", "193832.925000", "193833.925000", "193834.925000", "193835.925000", "193836.925000", "193837.925000", "193838.925000", "193839.925000", "193840.925000", "193841.925000", "193842.925000", "193843.925000", "193844.925000", "193845.925000", "193846.925000", "193847.925000", "193848.925000", "193849.925000", "193850.925000", "193851.925000", "193852.925000", "193853.925000", "193854.925000", "193855.925000", "193856.925000", "193857.925000", "193858.925000", "193859.925000", "193900.925000", "193901.925000", "193902.925000", "193903.925000", "193904.925000", "193905.925000", "193906.925000", "193907.925000", "193908.925000", "193909.925000", "193910.925000", "193911.925000", "193912.925000", "193913.925000", "193914.925000", "193915.925000"],
      "ContentTime": ["193203.820000", "193203.823000", "193203.826000", "193203.828000", "193203.831000", "193203.833000", "193203.840000", "193203.843000", "193203.846000", "193203.848000", "193203.850000", "193203.853000", "193203.855000", "193203.858000", "193203.860000", "193203.863000", "193203.870000", "193203.872000", "193203.875000", "193203.877000", "193203.880000", "193203.882000", "193203.885000", "193203.887000", "193203.890000", "193203.892000", "193203.894000", "193203.897000", "193203.899000", "193203.902000", "193203.904000", "193203.907000", "193223.788000", "193223.790000", "193223.793000", "193223.795000", "193223.798000", "193223.801000", "193223.803000", "193223.806000", "193223.808000", "193223.811000", "193223.813000", "193223.816000", "193223.818000", "193223.821000", "193223.823000", "193223.825000", "193223.828000", "193223.830000", "193223.833000", "193223.835000", "193243.787000", "193243.790000", "193243.793000", "193243.795000", "193243.798000", "193243.801000", "193243.803000", "193243.806000", "193243.808000", "193243.811000", "193243.813000", "193243.816000", "193243.821000", "193243.823000", "193243.826000", "193243.828000", "193243.831000", "193243.833000", "193243.835000", "193243.838000", "193303.787000", "193303.789000", "193303.792000", "193303.794000", "193303.798000", "193303.800000", "193303.812000", "193303.814000", "193303.817000", "193303.819000", "193303.822000", "193303.824000", "193303.827000", "193303.829000", "193303.832000", "193303.834000", "193303.836000", "193303.839000", "193303.841000", "193303.844000", "193323.786000", "193323.789000", "193323.792000", "193323.795000", "193323.798000", "193323.801000", "193323.803000", "193323.806000", "193323.808000", "193323.811000", "193323.813000", "193323.816000", "193323.818000", "193323.821000", "193323.823000", "193323.826000", "193323.828000", "193323.830000", "193323.833000", "193323.835000", "193343.787000", "193343.800000", "193343.802000", "193343.805000", "193343.807000", "193343.810000", "193343.812000", "193343.815000", "193343.817000", "193343.820000", "193343.822000", "193343.824000", "193343.827000", "193343.829000", "193343.832000", "193343.834000", "193343.837000", "193343.839000", "193343.841000", "193343.844000", "193403.787000", "193403.790000", "193403.792000", "193403.795000", "193403.797000", "193403.800000", "193403.802000", "193403.805000", "193403.807000", "193403.810000", "193403.812000", "193403.815000", "193403.818000", "193403.821000", "193403.823000", "193403.826000", "193403.828000", "193403.831000", "193403.833000", "193403.836000", "193423.788000", "193423.790000", "193423.793000", "193423.796000", "193423.799000", "193423.802000", "193423.804000", "193423.807000", "193423.809000", "193423.812000", "193423.814000", "193423.827000", "193423.830000", "193423.832000", "193423.835000", "193423.837000", "193423.839000", "193423.842000", "193423.844000", "193423.847000", "193443.787000", "193443.790000", "193443.793000", "193443.795000", "193443.798000", "193443.801000", "193443.804000", "193443.807000", "193443.809000", "193443.812000", "193443.814000", "193443.817000", "193443.819000", "193443.822000", "193443.824000", "193443.827000", "193443.829000", "193443.832000", "193443.834000", "193443.836000", "193503.787000", "193503.790000", "193503.792000", "193503.795000", "193503.798000", "193503.801000", "193503.803000", "193503.806000", "193503.808000", "193503.811000", "193503.813000", "193503.816000", "193503.818000", "193503.821000", "193503.823000", "193503.826000", "193503.828000", "193503.831000", "193503.833000", "193503.836000", "193523.786000", "193523.789000", "193523.791000", "193523.794000", "193523.797000", "193523.799000", "193523.802000", "193523.804000", "193523.807000", "193523.809000", "193523.812000", "193523.814000", "193523.817000", "193523.819000", "193523.822000", "193523.825000", "193523.828000", "193523.830000", "193523.833000", "193523.835000", "193543.786000", "193543.789000", "193543.791000", "193543.794000", "193543.797000", "193543.799000", "193543.802000", "193543.805000", "193543.807000", "193543.810000", "193543.812000", "193543.814000", "193543.817000", "193543.819000", "193543.822000", "193543.824000", "193543.827000", "193543.829000", "193543.832000", "193543.834000", "193603.787000", "193603.790000", "193603.793000", "193603.795000", "193603.798000", "193603.801000", "193603.803000", "193603.806000", "193603.809000", "193603.811000", "193603.813000", "193603.816000", "193603.818000", "193603.821000", "193603.823000", "193603.826000", "193603.828000", "193603.831000", "193603.833000", "193603.836000", "193623.787000", "193623.790000", "193623.792000", "193623.795000", "193623.798000", "193623.801000", "193623.804000", "193623.806000", "193623.808000", "193623.811000", "193623.813000", "193623.816000", "193623.818000", "193623.821000", "193623.823000", "193623.826000", "193623.828000", "193623.830000", "193623.833000", "193623.835000", "193643.787000", "193643.790000", "193643.793000", "193643.795000", "193643.800000", "193643.802000", "193643.805000", "193643.807000", "193643.810000", "193643.812000", "193643.815000", "193643.817000", "193643.820000", "193643.822000", "193643.825000", "193643.827000", "193643.830000", "193643.832000", "193643.834000", "193643.837000", "193703.787000", "193703.790000", "193703.793000", "193703.796000", "193703.799000", "193703.801000", "193703.804000", "193703.806000", "193703.809000", "193703.811000", "193703.814000", "193703.816000", "193703.819000", "193703.821000", "193703.824000", "193703.826000", "193703.829000", "193703.831000", "193703.833000", "193703.836000", "193723.788000", "193723.790000", "193723.793000", "193723.796000", "193723.799000", "193723.802000", "193723.804000", "193723.807000", "193723.809000", "193723.812000", "193723.814000", "193723.817000", "193723.819000", "193723.822000", "193723.824000", "193723.827000", "193723.829000", "193723.832000", "193723.834000", "193723.837000", "193743.786000", "193743.789000", "193743.791000", "193743.794000", "193743.797000", "193743.799000", "193743.802000", "193743.804000", "193743.807000", "193743.820000", "193743.823000", "193743.826000", "193743.828000", "193743.831000", "193743.833000", "193743.836000", "193743.838000", "193743.841000", "193743.843000", "193743.845000", "193803.787000", "193803.790000", "193803.794000", "193803.797000", "193803.799000", "193803.803000", "193803.806000", "193803.808000", "193803.811000", "193803.813000", "193803.816000", "193803.818000", "193803.821000", "193803.823000", "193803.827000", "193803.829000", "193803.832000", "193803.835000", "193803.839000", "193803.841000", "193823.788000", "193823.791000", "193823.794000", "193823.796000", "193823.799000", "193823.802000", "193823.804000", "193823.807000", "193823.809000", "193823.812000", "193823.814000", "193823.817000", "193823.819000", "193823.822000", "193823.824000", "193823.827000", "193823.829000", "193823.831000", "193823.834000", "193823.836000", "193843.787000", "193843.790000", "193843.792000", "193843.795000", "193843.797000", "193843.800000", "193843.803000", "193843.805000", "193843.807000", "193843.810000", "193843.813000", "193843.815000", "193843.818000", "193843.821000", "193843.824000", "193843.827000", "193843.829000", "193843.832000", "193843.835000", "193843.837000", "193903.788000", "193903.790000", "193903.793000", "193903.796000", "193903.799000", "193903.801000", "193903.804000", "193903.807000", "193903.809000", "193903.811000", "193903.814000", "193903.817000", "193903.819000", "193903.821000", "193903.824000", "193903.826000", "193903.829000", "193903.831000", "193903.834000", "193903.836000", "193917.862000", "193917.865000", "193917.868000", "193917.870000", "193917.873000", "193917.876000", "193917.879000", "193917.881000", "193917.884000", "193917.887000", "193917.890000", "193917.893000", "193917.895000", "193917.898000", "193917.901000"],
