{
  "AcquisitionMatrixPE": 106,
  "AcquisitionNumber": 1,
  "AcquisitionTime": "20:10:48.867500",
  "BandwidthPerPixelPhaseEncode": 13.477,
  "BaseResolution": 106,
  "BodyPartExamined": "BRAIN",
  "CoilCombinationMethod": "Sum of Squares",
  "ConsistencyInfo": "N4_VE11C_LATEST_20160120",
  "ConversionSoftware": "dcm2niix",
  "ConversionSoftwareVersion": "v1.0.20220720",
  "DerivedVendorReportedEchoSpacing": 0.000700005,
  "DeviceSerialNumber": "166108",
  "DwellTime": 2.6e-06,
  "EchoTime": 0.03,
  "EchoTrainLength": 80,
  "EffectiveEchoSpacing": 0.000700005,
  "FlipAngle": 62,
  "HeudiconvVersion": "1.3.0",
  "ImageComments": "Unaliased MB4/PE3/LB",
  "ImageOrientationPatientDICOM": [1, 0, 0, 0, 0.93606, -0.351842],
  "ImageOrientationText": "Tra>Cor(-20.6)",
  "ImageType": [
    "ORIGINAL",
    "PRIMARY",
    "M",
    "MB",
    "ND",
    "MOSAIC"
],
  "ImagingFrequency": 123.244,
  "InPlanePhaseEncodingDirectionDICOM": "COL",
  "InstitutionAddress": "Bedford Way 26,London,London,GB,WC1H 0AP",
  "InstitutionName": "University College",
  "InstitutionalDepartmentName": "Department",
  "MRAcquisitionType": "2D",
  "MagneticFieldStrength": 3,
  "Manufacturer": "Siemens",
  "ManufacturersModelName": "Prisma",
  "MatrixCoilMode": "SENSE",
  "Modality": "MR",
  "MultibandAccelerationFactor": 4,
  "NonlinearGradientCorrection": false,
  "PartialFourier": 0.75,
  "PatientPosition": "HFS",
  "PercentPhaseFOV": 100,
  "PercentSampling": 100,
  "PhaseEncodingDirection": "j-",
  "PhaseEncodingSteps": 80,
  "PhaseResolution": 1,
  "PixelBandwidth": 1815,
  "ProcedureStepDescription": "Egor^MovieProject2",
  "ProtocolName": "func-bold_task-tono_run-01",
  "PulseSequenceDetails": "%CustomerSeq%\\cmrr_mbep2d_bold",
  "ReceiveCoilActiveElements": "HEA;HEP",
  "ReceiveCoilName": "Head_32",
  "ReconMatrixPE": 106,
  "RepetitionTime": 1,
  "SAR": 0.0511297,
  "ScanOptions": "PFP\\FS\\EXT",
  "ScanningSequence": "EP",
  "SequenceName": "epfid2d1_106",
  "SequenceVariant": "SK\\SS",
  "SeriesDescription": "func-bold_task-tono_run-01",
  "SeriesNumber": 18,
  "ShimSetting": [-1518, 693, 7397, 157, -57, 249, 88, -79],
  "SliceThickness": 2,
  "SliceTiming": [0, 0.535, 0.09, 0.625, 0.18, 0.7125, 0.2675, 0.8025, 0.3575, 0.8925, 0.445, 0, 0.535, 0.09, 0.625, 0.18, 0.7125, 0.2675, 0.8025, 0.3575, 0.8925, 0.445, 0, 0.535, 0.09, 0.625, 0.18, 0.7125, 0.2675, 0.8025, 0.3575, 0.8925, 0.445, 0, 0.535, 0.09, 0.625, 0.18, 0.7125, 0.2675, 0.8025, 0.3575, 0.8925, 0.445],
  "SoftwareVersions": "syngo MR E11",
  "SpacingBetweenSlices": 2,
  "StationName": "AWP166108",
  "TaskName": "tonotopy",
  "TotalReadoutTime": 0.0735005,
  "TxRefAmp": 239.94,
  "WipMemBlock": "3229c64c-6916-4bdc-a0af-71be5374206d||Sequence: R016 ve11c/master r/e634e98; Dec 19 2017 11:00:25 by eja",
  "dcmmeta_affine": [
    [-2.0, 0.0, 0.0, 106.0],
    [0.0, 1.8721190690994263, -0.7036832571029663, -73.03085327148438],
    [0.0, 0.7036832571029663, 1.8721190690994263, -47.52219009399414],
    [0.0, 0.0, 0.0, 1.0]
],
  "dcmmeta_reorient_transform": [
    [0.0, -1.0, 0.0, 105.0],
    [1.0, 0.0, 0.0, 0.0],
    [0.0, 0.0, 1.0, 0.0],
    [0.0, 0.0, 0.0, 1.0]
],
  "dcmmeta_shape": [106, 106, 44, 264],
  "dcmmeta_slice_dim": 2,
  "dcmmeta_version": 0.6,
  "global": {
    "const": {
      "AcquisitionMatrix": [106, 0, 0, 106],
      "AngioFlag": "N",
      "BitsAllocated": 16,
      "BitsStored": 16,
      "BodyPartExamined": "BRAIN",
      "CardiacNumberOfImages": 1,
      "Columns": 742,
      "EchoNumbers": 1,
      "EchoTime": 30.0,
      "EchoTrainLength": 80,
      "FlipAngle": 62.0,
      "HighBit": 15,
      "ImageOrientationPatient": [1.0, 0.0, 0.0, 0.0, 0.93605954119931, -0.3518416338777],
      "ImagePositionPatient": [-742.0, -718.87552122943, 250.13583113579],
      "ImageType": [
        "ORIGINAL",
        "PRIMARY",
        "M",
        "MB",
        "ND",
        "MOSAIC"
],
      "ImagedNucleus": "1H",
      "ImagingFrequency": 123.243652,
      "InPlanePhaseEncodingDirection": "COL",
      "MRAcquisitionType": "2D",
      "MagneticFieldStrength": 3.0,
      "Manufacturer": "SIEMENS",
      "ManufacturerModelName": "Prisma",
      "Modality": "MR",
      "NominalInterval": 0,
      "NumberOfAverages": 1.0,
      "NumberOfPhaseEncodingSteps": 80,
      "PercentPhaseFieldOfView": 100.0,
      "PercentSampling": 100.0,
      "PerformedProcedureStepStartTime": "185526.528000",
      "PhotometricInterpretation": "MONOCHROME2",
      "PixelBandwidth": 1815.0,
      "PixelRepresentation": 0,
      "PixelSpacing": [2.0, 2.0],
      "ProtocolName": "func-bold_task-tono_run-01",
      "RepetitionTime": 1000.0,
      "Rows": 742,
      "SAR": 0.05112974153285,
      "SamplesPerPixel": 1,
      "ScanOptions": [
        "PFP",
        "FS",
        "EXT"
],
      "ScanningSequence": "EP",
      "SequenceName": "epfid2d1_106",
      "SequenceVariant": [
        "SK",
        "SS"
],
      "SeriesDescription": "func-bold_task-tono_run-01",
      "SeriesNumber": 18,
      "SeriesTime": "201123.821000",
      "SliceLocation": -18.788306613585,
      "SliceThickness": 2.0,
      "SmallestImagePixelValue": 0,
      "SoftwareVersions": "syngo MR E11",
      "SpacingBetweenSlices": 1.9999999659872,
      "SpecificCharacterSet": "ISO_IR 100",
      "StudyID": "1",
      "StudyTime": "185526.408000",
      "TransmitCoilName": "Body",
      "VariableFlipAngleFlag": "N",
      "WindowCenterWidthExplanation": "Algo1",
      "dBdt": 0.0},
    "slices": {}
  },
  "time": {
    "samples": {
      "AcquisitionNumber": [1, 2, 3, 4, 5, 6, 7, 8, 9, 10, 11, 12, 13, 14, 15, 16, 17, 18, 19, 20, 21, 22, 23, 24, 25, 26, 27, 28, 29, 30, 31, 32, 33, 34, 35, 36, 37, 38, 39, 40, 41, 42, 43, 44, 45, 46, 47, 48, 49, 50, 51, 52, 53, 54, 55, 56, 57, 58, 59, 60, 61, 62, 63, 64, 65, 66, 67, 68, 69, 70, 71, 72, 73, 74, 75, 76, 77, 78, 79, 80, 81, 82, 83, 84, 85, 86, 87, 88, 89, 90, 91, 92, 93, 94, 95, 96, 97, 98, 99, 100, 101, 102, 103, 104, 105, 106, 107, 108, 109, 110, 111, 112, 113, 114, 115, 116, 117, 118, 119, 120, 121, 122, 123, 124, 125, 126, 127, 128, 129, 130, 131, 132, 133, 134, 135, 136, 137, 138, 139, 140, 141, 142, 143, 144, 145, 146, 147, 148, 149, 150, 151, 152, 153, 154, 155, 156, 157, 158, 159, 160, 161, 162, 163, 164, 165, 166, 167, 168, 169, 170, 171, 172, 173, 174, 175, 176, 177, 178, 179, 180, 181, 182, 183, 184, 185, 186, 187, 188, 189, 190, 191, 192, 193, 194, 195, 196, 197, 198, 199, 200, 201, 202, 203, 204, 205, 206, 207, 208, 209, 210, 211, 212, 213, 214, 215, 216, 217, 218, 219, 220, 221, 222, 223, 224, 225, 226, 227, 228, 229, 230, 231, 232, 233, 234, 235, 236, 237, 238, 239, 240, 241, 242, 243, 244, 245, 246, 247, 248, 249, 250, 251, 252, 253, 254, 255, 256, 257, 258, 259, 260, 261, 262, 263, 264],
      "AcquisitionTime": ["201048.867500", "201049.867500", "201050.867500", "201051.867500", "201052.867500", "201053.867500", "201054.867500", "201055.867500", "201056.867500", "201057.867500", "201058.867500", "201059.867500", "201100.867500", "201101.867500", "201102.867500", "201103.867500", "201104.867500", "201105.867500", "201106.867500", "201107.867500", "201108.867500", "201109.867500", "201110.867500", "201111.867500", "201112.867500", "201113.867500", "201114.867500", "201115.867500", "201116.867500", "201117.867500", "201118.867500", "201119.867500", "201120.867500", "201121.867500", "201122.867500", "201123.867500", "201124.867500", "201125.867500", "201126.867500", "201127.867500", "201128.867500", "201129.867500", "201130.867500", "201131.867500", "201132.867500", "201133.867500", "201134.867500", "201135.867500", "201136.867500", "201137.867500", "201138.867500", "201139.867500", "201140.867500", "201141.867500", "201142.867500", "201143.867500", "201144.867500", "201145.867500", "201146.867500", "201147.867500", "201148.867500", "201149.867500", "201150.867500", "201151.867500", "201152.867500", "201153.867500", "201154.867500", "201155.867500", "201156.867500", "201157.867500", "201158.867500", "201159.867500", "201200.867500", "201201.867500", "201202.867500", "201203.867500", "201204.867500", "201205.867500", "201206.867500", "201207.867500", "201208.867500", "201209.867500", "201210.867500", "201211.867500", "201212.867500", "201213.867500", "201214.867500", "201215.867500", "201216.867500", "201217.867500", "201218.867500", "201219.867500", "201220.867500", "201221.867500", "201222.867500", "201223.867500", "201224.867500", "201225.867500", "201226.867500", "201227.867500", "201228.867500", "201229.867500", "201230.867500", "201231.867500", "201232.867500", "201233.867500", "201234.867500", "201235.867500", "201236.867500", "201237.867500", "201238.867500", "201239.867500", "201240.867500", "201241.867500", "201242.867500", "201243.867500", "201244.867500", "201245.867500", "201246.867500", "201247.867500", "201248.867500", "201249.867500", "201250.867500", "201251.867500", "201252.867500", "201253.867500", "201254.867500", "201255.867500", "201256.867500", "201257.867500", "201258.867500", "201259.867500", "201300.867500", "201301.867500", "201302.867500", "201303.867500", "201304.867500", "201305.867500", "201306.867500", "201307.867500", "201308.867500", "201309.867500", "201310.867500", "201311.867500", "201312.867500", "201313.867500", "201314.867500", "201315.867500", "201316.867500", "201317.867500", "201318.867500", "201319.867500", "201320.867500", "201321.867500", "201322.867500", "201323.867500", "201324.867500", "201325.867500", "201326.867500", "201327.867500", "201328.867500", "201329.867500", "201330.867500", "201331.867500", "201332.867500", "201333.867500", "201334.867500", "201335.867500", "201336.867500", "201337.867500", "201338.867500", "201339.867500", "201340.867500", "201341.867500", "201342.867500", "201343.867500", "201344.867500", "201345.867500", "201346.867500", "201347.867500", "201348.867500", "201349.867500", "201350.867500", "201351.867500", "201352.867500", "201353.867500", "201354.867500", "201355.867500", "201356.867500", "201357.867500", "201358.867500", "201359.867500", "201400.867500", "201401.867500", "201402.867500", "201403.867500", "201404.867500", "201405.867500", "201406.867500", "201407.867500", "201408.867500", "201409.867500", "201410.867500", "201411.867500", "201412.867500", "201413.867500", "201414.867500", "201415.867500", "201416.867500", "201417.867500", "201418.867500", "201419.867500", "201420.867500", "201421.867500", "201422.867500", "201423.867500", "201424.867500", "201425.867500", "201426.867500", "201427.867500", "201428.867500", "201429.867500", "201430.867500", "201431.867500", "201432.867500", "201433.867500", "201434.867500", "201435.867500", "201436.867500", "201437.867500", "201438.867500", "201439.867500", "201440.867500", "201441.867500", "201442.867500", "201443.867500", "201444.867500", "201445.867500", "201446.867500", "201447.867500", "201448.867500", "201449.867500", "201450.867500", "201451.867500", "201452.867500", "201453.867500", "201454.867500", "201455.867500", "201456.867500", "201457.867500", "201458.867500", "201459.867500", "201500.867500", "201501.867500", "201502.867500", "201503.867500", "201504.867500", "201505.867500", "201506.867500", "201507.867500", "201508.867500", "201509.867500", "201510.867500", "201511.867500"],
      "ContentTime": ["201123.823000", "201123.826000", "201123.829000", "201123.831000", "201123.834000", "201123.836000", "201123.838000", "201123.841000", "201123.844000", "201123.846000", "201123.849000", "201123.858000", "201123.860000", "201123.863000", "201123.865000", "201123.868000", "201123.870000", "201123.873000", "201123.875000", "201123.878000", "201123.880000", "201123.883000", "201123.885000", "201123.888000", "201123.890000", "201123.893000", "201123.895000", "201123.898000", "201123.900000", "201123.903000", "201123.905000", "201123.908000", "201123.910000", "201123.912000", "201143.787000", "201143.790000", "201143.792000", "201143.795000", "201143.797000", "201143.800000", "201143.802000", "201143.805000", "201143.807000", "201143.814000", "201143.817000", "201143.819000", "201143.821000", "201143.824000", "201143.826000", "201143.829000", "201143.831000", "201143.834000", "201143.836000", "201143.838000", "201203.787000", "201203.790000", "201203.792000", "201203.795000", "201203.797000", "201203.800000", "201203.802000", "201203.805000", "201203.807000", "201203.809000", "201203.812000", "201203.814000", "201203.817000", "201203.819000", "201203.822000", "201203.824000", "201203.826000", "201203.829000", "201203.831000", "201203.834000", "201223.786000", "201223.789000", "201223.792000", "201223.794000", "201223.796000", "201223.799000", "201223.801000", "201223.804000", "201223.806000", "201223.818000", "201223.820000", "201223.823000", "201223.825000", "201223.827000", "201223.830000", "201223.832000", "201223.835000", "201223.837000", "201223.840000", "201223.842000", "201243.786000", "201243.789000", "201243.791000", "201243.794000", "201243.796000", "201243.799000", "201243.801000", "201243.804000", "201243.806000", "201243.809000", "201243.811000", "201243.813000", "201243.816000", "201243.818000", "201243.821000", "201243.823000", "201243.826000", "201243.828000", "201243.831000", "201243.833000", "201303.787000", "201303.790000", "201303.793000", "201303.795000", "201303.797000", "201303.800000", "201303.802000", "201303.805000", "201303.807000", "201303.810000", "201303.812000", "201303.815000", "201303.817000", "201303.819000", "201303.822000", "201303.824000", "201303.827000", "201303.829000", "201303.832000", "201303.834000", "201323.787000", "201323.790000", "201323.792000", "201323.795000", "201323.797000", "201323.800000", "201323.802000", "201323.805000", "201323.807000", "201323.810000", "201323.812000", "201323.814000", "201323.817000", "201323.819000", "201323.822000", "201323.824000", "201323.827000", "201323.829000", "201323.831000", "201323.834000", "201343.787000", "201343.790000", "201343.792000", "201343.795000", "201343.797000", "201343.800000", "201343.802000", "201343.805000", "201343.807000", "201343.810000", "201343.812000", "201343.815000", "201343.817000", "201343.820000", "201343.822000", "201343.825000", "201343.827000", "201343.830000", "201343.832000", "201343.835000", "201403.787000", "201403.790000", "201403.792000", "201403.795000", "201403.797000", "201403.800000", "201403.802000", "201403.805000", "201403.807000", "201403.810000", "201403.812000", "201403.814000", "201403.817000", "201403.819000", "201403.822000", "201403.824000", "201403.827000", "201403.829000", "201403.832000", "201403.834000", "201423.788000", "201423.790000", "201423.793000", "201423.795000", "201423.798000", "201423.800000", "201423.803000", "201423.805000", "201423.808000", "201423.810000", "201423.813000", "201423.815000", "201423.818000", "201423.820000", "201423.823000", "201423.825000", "201423.828000", "201423.830000", "201423.850000", "201423.852000", "201443.786000", "201443.789000", "201443.792000", "201443.794000", "201443.796000", "201443.799000", "201443.801000", "201443.804000", "201443.806000", "201443.809000", "201443.811000", "201443.814000", "201443.816000", "201443.818000", "201443.821000", "201443.823000", "201443.826000", "201443.828000", "201443.831000", "201443.833000", "201503.786000", "201503.789000", "201503.792000", "201503.794000", "201503.797000", "201503.799000", "201503.801000", "201503.804000", "201503.806000", "201503.809000", "201503.811000", "201503.814000", "201503.816000", "201503.819000", "201503.821000", "201503.824000", "201503.826000", "201503.829000", "201503.831000", "201503.833000", "201513.189000", "201513.192000", "201513.194000", "201513.197000", "201513.200000", "201513.203000", "201513.205000", "201513.208000", "201513.210000", "201513.213000"],
      "InstanceCreationTime": ["201123.823000", "201123.826000", "201123.829000", "201123.831000", "201123.834000", "201123.836000", "201123.838000", "201123.841000", "201123.844000", "201123.846000", "201123.849000", "201123.858000", "201123.860000", "201123.863000", "201123.865000", "201123.868000", "201123.870000", "201123.873000", "201123.875000", "201123.878000", "201123.880000", "201123.883000", "201123.885000", "201123.888000", "201123.890000", "201123.893000", "201123.895000", "201123.898000", "201123.900000", "201123.903000", "201123.905000", "201123.908000", "201123.910000", "201123.912000", "201143.787000", "201143.790000", "201143.792000", "201143.795000", "201143.797000", "201143.800000", "201143.802000", "201143.805000", "201143.807000", "201143.814000", "201143.817000", "201143.819000", "201143.821000", "201143.824000", "201143.826000", "201143.829000", "201143.831000", "201143.834000", "201143.836000", "201143.838000", "201203.787000", "201203.790000", "201203.792000", "201203.795000", "201203.797000", "201203.800000", "201203.802000", "201203.805000", "201203.807000", "201203.809000", "201203.812000", "201203.814000", "201203.817000", "201203.819000", "201203.822000", "201203.824000", "201203.826000", "201203.829000", "201203.831000", "201203.834000", "201223.786000", "201223.789000", "201223.792000", "201223.794000", "201223.796000", "201223.799000", "201223.801000", "201223.804000", "201223.806000", "201223.818000", "201223.820000", "201223.823000", "201223.825000", "201223.827000", "201223.830000", "201223.832000", "201223.835000", "201223.837000", "201223.840000", "201223.842000", "201243.786000", "201243.789000", "201243.791000", "201243.794000", "201243.796000", "201243.799000", "201243.801000", "201243.804000", "201243.806000", "201243.809000", "201243.811000", "201243.813000", "201243.816000", "201243.818000", "201243.821000", "201243.823000", "201243.826000", "201243.828000", "201243.831000", "201243.833000", "201303.787000", "201303.790000", "201303.793000", "201303.795000", "201303.797000", "201303.800000", "201303.802000", "201303.805000", "201303.807000", "201303.810000", "201303.812000", "201303.815000", "201303.817000", "201303.819000", "201303.822000", "201303.824000", "201303.827000", "201303.829000", "201303.832000", "201303.834000", "201323.787000", "201323.790000", "201323.792000", "201323.795000", "201323.797000", "201323.800000", "201323.802000", "201323.805000", "201323.807000", "201323.810000", "201323.812000", "201323.814000", "201323.817000", "201323.819000", "201323.822000", "201323.824000", "201323.827000", "201323.829000", "201323.831000", "201323.834000", "201343.787000", "201343.790000", "201343.792000", "201343.795000", "201343.797000", "201343.800000", "201343.802000", "201343.805000", "201343.807000", "201343.810000", "201343.812000", "201343.815000", "201343.817000", "201343.820000", "201343.822000", "201343.825000", "201343.827000", "201343.830000", "201343.832000", "201343.835000", "201403.787000", "201403.790000", "201403.792000", "201403.795000", "201403.797000", "201403.800000", "201403.802000", "201403.805000", "201403.807000", "201403.810000", "201403.812000", "201403.814000", "201403.817000", "201403.819000", "201403.822000", "201403.824000", "201403.827000", "201403.829000", "201403.832000", "201403.834000", "201423.788000", "201423.790000", "201423.793000", "201423.795000", "201423.798000", "201423.800000", "201423.803000", "201423.805000", "201423.808000", "201423.810000", "201423.813000", "201423.815000", "201423.818000", "201423.820000", "201423.823000", "201423.825000", "201423.828000", "201423.830000", "201423.850000", "201423.852000", "201443.786000", "201443.789000", "201443.792000", "201443.794000", "201443.796000", "201443.799000", "201443.801000", "201443.804000", "201443.806000", "201443.809000", "201443.811000", "201443.814000", "201443.816000", "201443.818000", "201443.821000", "201443.823000", "201443.826000", "201443.828000", "201443.831000", "201443.833000", "201503.786000", "201503.789000", "201503.792000", "201503.794000", "201503.797000", "201503.799000", "201503.801000", "201503.804000", "201503.806000", "201503.809000", "201503.811000", "201503.814000", "201503.816000", "201503.819000", "201503.821000", "201503.824000", "201503.826000", "201503.829000", "201503.831000", "201503.833000", "201513.189000", "201513.192000", "201513.194000", "201513.197000", "201513.200000", "201513.203000", "201513.205000", "201513.208000", "201513.210000", "201513.213000"],
      "InstanceNumber": [1, 2, 3, 4, 5, 6, 7, 8, 9, 10, 11, 12, 13, 14, 15, 16, 17, 18, 19, 20, 21, 22, 23, 24, 25, 26, 27, 28, 29, 30, 31, 32, 33, 34, 35, 36, 37, 38, 39, 40, 41, 42, 43, 44, 45, 46, 47, 48, 49, 50, 51, 52, 53, 54, 55, 56, 57, 58, 59, 60, 61, 62, 63, 64, 65, 66, 67, 68, 69, 70, 71, 72, 73, 74, 75, 76, 77, 78, 79, 80, 81, 82, 83, 84, 85, 86, 87, 88, 89, 90, 91, 92, 93, 94, 95, 96, 97, 98, 99, 100, 101, 102, 103, 104, 105, 106, 107, 108, 109, 110, 111, 112, 113, 114, 115, 116, 117, 118, 119, 120, 121, 122, 123, 124, 125, 126, 127, 128, 129, 130, 131, 132, 133, 134, 135, 136, 137, 138, 139, 140, 141, 142, 143, 144, 145, 146, 147, 148, 149, 150, 151, 152, 153, 154, 155, 156, 157, 158, 159, 160, 161, 162, 163, 164, 165, 166, 167, 168, 169, 170, 171, 172, 173, 174, 175, 176, 177, 178, 179, 180, 181, 182, 183, 184, 185, 186, 187, 188, 189, 190, 191, 192, 193, 194, 195, 196, 197, 198, 199, 200, 201, 202, 203, 204, 205, 206, 207, 208, 209, 210, 211, 212, 213, 214, 215, 216, 217, 218, 219, 220, 221, 222, 223, 224, 225, 226, 227, 228, 229, 230, 231, 232, 233, 234, 235, 236, 237, 238, 239, 240, 241, 242, 243, 244, 245, 246, 247, 248, 249, 250, 251, 252, 253, 254, 255, 256, 257, 258, 259, 260, 261, 262, 263, 264],
      "LargestImagePixelValue": [17018, 16731, 16893, 16600, 16744, 16747, 16501, 16719, 16642, 16655, 16840, 16675, 16501, 16667, 16547, 16578, 16598, 16433, 16464, 16514, 16376, 16492, 16451, 16428, 16604, 16509, 16401, 16450, 16230, 16449, 16340, 16425, 16432, 16279, 16330, 16339, 16225, 16230, 16114, 16038, 16132, 16086, 16007, 16086, 15956, 15986, 16054, 15904, 16048, 15929, 15893, 15999, 16045, 16036, 15977, 15977, 16240, 16138, 16088, 16223, 16098, 16091, 16161, 15922, 16060, 16135, 15964, 16093, 16168, 15987, 16230, 16138, 16073, 16103, 16062, 16055, 15993, 15955, 16042, 16124, 15932, 16096, 16021, 16013, 16138, 16085, 16095, 16187, 16029, 16229, 16163, 16037, 16077, 16095, 16092, 16200, 16195, 16049, 16316, 16150, 16077, 16255, 16143, 15957, 16120, 16116, 16082, 16180, 16127, 16152, 16205, 16059, 16133, 15981, 15961, 16056, 16098, 16048, 15949, 15930, 15987, 16002, 15823, 15780, 15872, 15794, 15748, 15957, 16014, 16064, 15999, 16017, 16009, 16005, 16004, 15997, 16025, 16010, 16129, 16085, 16179, 15961, 15935, 15927, 15851, 15998, 16001, 16058, 16045, 16155, 15910, 16109, 16026, 15948, 15954, 15808, 15839, 15703, 15714, 15789, 15833, 15769, 15908, 15777, 15686, 15926, 15800, 15748, 15797, 15728, 15824, 15856, 15816, 15828, 15839, 15608, 15625, 15588, 15611, 15746, 15636, 15509, 15644, 15640, 15735, 15794, 15712, 15739, 15781, 15765, 15870, 15802, 15777, 15871, 15715, 15621, 15635, 15601, 15644, 15662, 15774, 15849, 15876, 15899, 15819, 15751, 15930, 15682, 15782, 15820, 15809, 15847, 15773, 15773, 15765, 15891, 15814, 15877, 15593, 15690, 15660, 15582, 15652, 15621, 15823, 15766, 15638, 15885, 15928, 15881, 15906, 15717, 15588, 15726, 15790, 15745, 15821, 15835, 15813, 15955, 15765, 15696, 15687, 15561, 15747, 15742, 15614, 15836, 15709, 15762, 15933, 15641, 15719, 15709, 15651, 15653, 15681, 15810, 15685, 15810, 15711, 15614, 15630, 15609],
      "TriggerTime": [8102.5, 9102.5, 10102.5, 11102.5, 12102.5, 13102.5, 14102.5, 15102.5, 16102.5, 17102.5, 18102.5, 19102.5, 20102.5, 21102.5, 22102.5, 23102.5, 24102.5, 25102.5, 26102.5, 27102.5, 28102.5, 29102.5, 30102.5, 31102.5, 32102.5, 33102.5, 34102.5, 35102.5, 36102.5, 37102.5, 38102.5, 39102.5, 40102.5, 41102.5, 42102.5, 43102.5, 44102.5, 45102.5, 46102.5, 47102.5, 48102.5, 49102.5, 50102.5, 51102.5, 52102.5, 53102.5, 54102.5, 55102.5, 56102.5, 57102.5, 58102.5, 59102.5, 60102.5, 61102.5, 62102.5, 63102.5, 64102.5, 65102.5, 66102.5, 67102.5, 68102.5, 69102.5, 70102.5, 71102.5, 72102.5, 73102.5, 74102.5, 75102.5, 76102.5, 77102.5, 78102.5, 79102.5, 80102.5, 81102.5, 82102.5, 83102.5, 84102.5, 85102.5, 86102.5, 87102.5, 88102.5, 89102.5, 90102.5, 91102.5, 92102.5, 93102.5, 94102.5, 95102.5, 96102.5, 97102.5, 98102.5, 99102.5, 100102.5, 101102.5, 102102.5, 103102.5, 104102.5, 105102.5, 106102.5, 107102.5, 108102.5, 109102.5, 110102.5, 111102.5, 112102.5, 113102.5, 114102.5, 115102.5, 116102.5, 117102.5, 118102.5, 119102.5, 120102.5, 121102.5, 122102.5, 123102.5, 124102.5, 125102.5, 126102.5, 127102.5, 128102.5, 129102.5, 130102.5, 131102.5, 132102.5, 133102.5, 134102.5, 135102.5, 136102.5, 137102.5, 138102.5, 139102.5, 140102.5, 141102.5, 142102.5, 143102.5, 144102.5, 145102.5, 146102.5, 147102.5, 148102.5, 149102.5, 150102.5, 151102.5, 152102.5, 153102.5, 154102.5, 155102.5, 156102.5, 157102.5, 158102.5, 159102.5, 160102.5, 161102.5, 162102.5, 163102.5, 164102.5, 165102.5, 166102.5, 167102.5, 168102.5, 169102.5, 170102.5, 171102.5, 172102.5, 173102.5, 174102.5, 175102.5, 176102.5, 177102.5, 178102.5, 179102.5, 180102.5, 181102.5, 182102.5, 183102.5, 184102.5, 185102.5, 186102.5, 187102.5, 188102.5, 189102.5, 190102.5, 191102.5, 192102.5, 193102.5, 194102.5, 195102.5, 196102.5, 197102.5, 198102.5, 199102.5, 200102.5, 201102.5, 202102.5, 203102.5, 204102.5, 205102.5, 206102.5, 207102.5, 208102.5, 209102.5, 210102.5, 211102.5, 212102.5, 213102.5, 214102.5, 215102.5, 216102.5, 217102.5, 218102.5, 219102.5, 220102.5, 221102.5, 222102.5, 223102.5, 224102.5, 225102.5, 226102.5, 227102.5, 228102.5, 229102.5, 230102.5, 231102.5, 232102.5, 233102.5, 234102.5, 235102.5, 236102.5, 237102.5, 238102.5, 239102.5, 240102.5, 241102.5, 242102.5, 243102.5, 244102.5, 245102.5, 246102.5, 247102.5, 248102.5, 249102.5, 250102.5, 251102.5, 252102.5, 253102.5, 254102.5, 255102.5, 256102.5, 257102.5, 258102.5, 259102.5, 260102.5, 261102.5, 262102.5, 263102.5, 264102.5, 265102.5, 266102.5, 267102.5, 268102.5, 269102.5, 270102.5, 271102.5],
      "WindowCenter": [5514.0, 5500.0, 5497.0, 5485.0, 5476.0, 5474.0, 5471.0, 5470.0, 5460.0, 5460.0, 5468.0, 5474.0, 5472.0, 5470.0, 5472.0, 5472.0, 5472.0, 5476.0, 5474.0, 5485.0, 5485.0, 5486.0, 5487.0, 5487.0, 5497.0, 5497.0, 5490.0, 5487.0, 5488.0, 5488.0, 5488.0, 5487.0, 5488.0, 5487.0, 5499.0, 5500.0, 5500.0, 5501.0, 5502.0, 5502.0, 5501.0, 5503.0, 5490.0, 5492.0, 5490.0, 5492.0, 5491.0, 5501.0, 5503.0, 5504.0, 5504.0, 5495.0, 5492.0, 5490.0, 5487.0, 5486.0, 5487.0, 5487.0, 5491.0, 5488.0, 5487.0, 5478.0, 5484.0, 5474.0, 5477.0, 5474.0, 5478.0, 5487.0, 5486.0, 5476.0, 5485.0, 5473.0, 5473.0, 5473.0, 5475.0, 5474.0, 5476.0, 5485.0, 5489.0, 5486.0, 5487.0, 5487.0, 5490.0, 5490.0, 5478.0, 5476.0, 5477.0, 5485.0, 5476.0, 5485.0, 5486.0, 5475.0, 5474.0, 5474.0, 5474.0, 5472.0, 5474.0, 5475.0, 5474.0, 5473.0, 5474.0, 5475.0, 5474.0, 5474.0, 5473.0, 5463.0, 5462.0, 5472.0, 5474.0, 5472.0, 5474.0, 5478.0, 5488.0, 5487.0, 5477.0, 5476.0, 5473.0, 5475.0, 5476.0, 5473.0, 5475.0, 5476.0, 5475.0, 5476.0, 5477.0, 5474.0, 5475.0, 5475.0, 5475.0, 5473.0, 5475.0, 5478.0, 5485.0, 5486.0, 5475.0, 5474.0, 5474.0, 5476.0, 5474.0, 5473.0, 5483.0, 5475.0, 5473.0, 5474.0, 5473.0, 5476.0, 5476.0, 5474.0, 5477.0, 5475.0, 5476.0, 5473.0, 5471.0, 5472.0, 5470.0, 5461.0, 5461.0, 5471.0, 5476.0, 5474.0, 5474.0, 5474.0, 5473.0, 5467.0, 5462.0, 5463.0, 5462.0, 5463.0, 5475.0, 5472.0, 5473.0, 5473.0, 5472.0, 5462.0, 5461.0, 5463.0, 5472.0, 5464.0, 5472.0, 5463.0, 5462.0, 5463.0, 5464.0, 5460.0, 5463.0, 5461.0, 5462.0, 5462.0, 5465.0, 5464.0, 5474.0, 5463.0, 5466.0, 5472.0, 5463.0, 5477.0, 5474.0, 5475.0, 5474.0, 5474.0, 5476.0, 5474.0, 5477.0, 5475.0, 5474.0, 5476.0, 5476.0, 5479.0, 5488.0, 5492.0, 5480.0, 5489.0, 5476.0, 5476.0, 5475.0, 5478.0, 5477.0, 5485.0, 5477.0, 5477.0, 5475.0, 5475.0, 5474.0, 5474.0, 5466.0, 5475.0, 5475.0, 5477.0, 5476.0, 5476.0, 5486.0, 5477.0, 5474.0, 5474.0, 5465.0, 5460.0, 5450.0, 5461.0, 5460.0, 5461.0, 5464.0, 5473.0, 5476.0, 5475.0, 5476.0, 5475.0, 5474.0, 5476.0, 5475.0, 5477.0, 5476.0, 5477.0, 5478.0, 5476.0, 5478.0, 5476.0, 5464.0, 5464.0, 5463.0, 5473.0, 5477.0, 5474.0, 5475.0, 5475.0],
