{
  "AcquisitionMatrixPE": 106,
  "AcquisitionNumber": 1,
  "AcquisitionTime": "19:45:23.417500",
  "BandwidthPerPixelPhaseEncode": 16.846,
  "BaseResolution": 106,
  "BodyPartExamined": "BRAIN",
  "CoilCombinationMethod": "Sum of Squares",
  "ConsistencyInfo": "N4_VE11C_LATEST_20160120",
  "ConversionSoftware": "dcm2niix",
  "ConversionSoftwareVersion": "v1.0.20220720",
  "DerivedVendorReportedEchoSpacing": 0.000560012,
  "DeviceSerialNumber": "166108",
  "DwellTime": 1.8e-06,
  "EchoTime": 0.0352,
  "EchoTrainLength": 106,
  "EffectiveEchoSpacing": 0.000560012,
  "FlipAngle": 60,
  "HeudiconvVersion": "1.3.0",
  "ImageComments": "Unaliased MB4/PE3/LB",
  "ImageOrientationPatientDICOM": [1, 0, 0, 0, 0.917755, -0.397148],
  "ImageOrientationText": "Tra>Cor(-23.4)",
  "ImageType": [
    "ORIGINAL",
    "PRIMARY",
    "M",
    "MB",
    "ND",
    "MOSAIC"
],
  "ImagingFrequency": 123.244,
  "InPlanePhaseEncodingDirectionDICOM": "COL",
  "InstitutionAddress": "Bedford Way 26,London,London,GB,WC1H 0AP",
  "InstitutionName": "University College",
  "InstitutionalDepartmentName": "Department",
  "MRAcquisitionType": "2D",
  "MagneticFieldStrength": 3,
  "Manufacturer": "Siemens",
  "ManufacturersModelName": "Prisma",
  "MatrixCoilMode": "SENSE",
  "Modality": "MR",
  "MultibandAccelerationFactor": 4,
  "NonlinearGradientCorrection": false,
  "PartialFourier": 1,
  "PatientPosition": "HFS",
  "PercentPhaseFOV": 100,
  "PercentSampling": 100,
  "PhaseEncodingDirection": "j-",
  "PhaseEncodingSteps": 106,
  "PhaseResolution": 1,
  "PixelBandwidth": 2620,
  "ProcedureStepDescription": "Egor^MovieProject2",
  "ProtocolName": "func-bold_task-pRF_run-01",
  "PulseSequenceDetails": "%CustomerSeq%\\cmrr_mbep2d_bold",
  "ReceiveCoilActiveElements": "HEA;HEP",
  "ReceiveCoilName": "Head_32",
  "ReconMatrixPE": 106,
  "RepetitionTime": 1,
  "SAR": 0.0918953,
  "ScanOptions": "FS\\EXT",
  "ScanningSequence": "EP",
  "SequenceName": "epfid2d1_106",
  "SequenceVariant": "SK\\SS",
  "SeriesDescription": "func-bold_task-pRF_run-01",
  "SeriesNumber": 10,
  "ShimSetting": [-1519, 670, 7388, 141, -41, 108, 86, -64],
  "SliceThickness": 2,
  "SliceTiming": [0, 0.4075, 0.815, 0.245, 0.6525, 0.08, 0.49, 0.8975, 0.325, 0.735, 0.1625, 0.57, 0, 0.4075, 0.815, 0.245, 0.6525, 0.08, 0.49, 0.8975, 0.325, 0.735, 0.1625, 0.57, 0, 0.4075, 0.815, 0.245, 0.6525, 0.08, 0.49, 0.8975, 0.325, 0.735, 0.1625, 0.57, 0, 0.4075, 0.815, 0.245, 0.6525, 0.08, 0.49, 0.8975, 0.325, 0.735, 0.1625, 0.57],
  "SoftwareVersions": "syngo MR E11",
  "SpacingBetweenSlices": 2,
  "StationName": "AWP166108",
  "TaskName": "retinotopy",
  "TotalReadoutTime": 0.0588013,
  "TxRefAmp": 239.94,
  "WipMemBlock": "b9314350-1b33-4720-af7c-e428f83e6f5d||Sequence: R016 ve11c/master r/e634e98; Dec 19 2017 11:00:25 by eja",
  "dcmmeta_affine": [
    [-2.0, 0.0, 0.0, 106.0],
    [0.0, 1.8355093002319336, -0.7942957282066345, -80.48173522949219],
    [0.0, 0.7942957282066345, 1.8355093002319336, -47.42579650878906],
    [0.0, 0.0, 0.0, 1.0]
],
  "dcmmeta_reorient_transform": [
    [0.0, -1.0, 0.0, 105.0],
    [1.0, 0.0, 0.0, 0.0],
    [0.0, 0.0, 1.0, 0.0],
    [0.0, 0.0, 0.0, 1.0]
],
  "dcmmeta_shape": [106, 106, 48, 356],
  "dcmmeta_slice_dim": 2,
  "dcmmeta_version": 0.6,
  "global": {
    "const": {
      "AcquisitionMatrix": [106, 0, 0, 106],
      "AngioFlag": "N",
      "BitsAllocated": 16,
      "BitsStored": 16,
      "BodyPartExamined": "BRAIN",
      "CardiacNumberOfImages": 1,
      "Columns": 742,
      "EchoNumbers": 1,
      "EchoTime": 35.2,
      "EchoTrainLength": 106,
      "FlipAngle": 60.0,
      "HighBit": 15,
      "ImageOrientationPatient": [1.0, 0.0, 0.0, 0.0, 0.9177546397099, -0.3971478582228],
      "ImagePositionPatient": [-742.0, -695.93868913997, 288.56129144401],
      "ImageType": [
        "ORIGINAL",
        "PRIMARY",
        "M",
        "MB",
        "ND",
        "MOSAIC"
],
      "ImagedNucleus": "1H",
      "ImagingFrequency": 123.243644,
      "InPlanePhaseEncodingDirection": "COL",
      "MRAcquisitionType": "2D",
      "MagneticFieldStrength": 3.0,
      "Manufacturer": "SIEMENS",
      "ManufacturerModelName": "Prisma",
      "Modality": "MR",
      "NominalInterval": 0,
      "NumberOfAverages": 1.0,
      "NumberOfPhaseEncodingSteps": 106,
      "PercentPhaseFieldOfView": 100.0,
      "PercentSampling": 100.0,
      "PerformedProcedureStepStartTime": "185526.528000",
      "PhotometricInterpretation": "MONOCHROME2",
      "PixelBandwidth": 2620.0,
      "PixelRepresentation": 0,
      "PixelSpacing": [2.0, 2.0],
      "ProtocolName": "func-bold_task-pRF_run-01",
      "RepetitionTime": 1000.0,
      "Rows": 742,
      "SAR": 0.09189533693235,
      "SamplesPerPixel": 1,
      "ScanOptions": [
        "FS",
        "EXT"
],
      "ScanningSequence": "EP",
      "SequenceName": "epfid2d1_106",
      "SequenceVariant": [
        "SK",
        "SS"
],
      "SeriesDescription": "func-bold_task-pRF_run-01",
      "SeriesNumber": 10,
      "SeriesTime": "194553.408000",
      "SliceLocation": -11.562095782892,
      "SliceThickness": 2.0,
      "SmallestImagePixelValue": 0,
      "SoftwareVersions": "syngo MR E11",
      "SpacingBetweenSlices": 1.9999999875476,
      "SpecificCharacterSet": "ISO_IR 100",
      "StudyID": "1",
      "StudyTime": "185526.408000",
      "TransmitCoilName": "Body",
      "VariableFlipAngleFlag": "N",
      "WindowCenterWidthExplanation": "Algo1",
      "dBdt": 0.0},
    "slices": {}
  },
  "time": {
    "samples": {
      "AcquisitionNumber": [1, 2, 3, 4, 5, 6, 7, 8, 9, 10, 11, 12, 13, 14, 15, 16, 17, 18, 19, 20, 21, 22, 23, 24, 25, 26, 27, 28, 29, 30, 31, 32, 33, 34, 35, 36, 37, 38, 39, 40, 41, 42, 43, 44, 45, 46, 47, 48, 49, 50, 51, 52, 53, 54, 55, 56, 57, 58, 59, 60, 61, 62, 63, 64, 65, 66, 67, 68, 69, 70, 71, 72, 73, 74, 75, 76, 77, 78, 79, 80, 81, 82, 83, 84, 85, 86, 87, 88, 89, 90, 91, 92, 93, 94, 95, 96, 97, 98, 99, 100, 101, 102, 103, 104, 105, 106, 107, 108, 109, 110, 111, 112, 113, 114, 115, 116, 117, 118, 119, 120, 121, 122, 123, 124, 125, 126, 127, 128, 129, 130, 131, 132, 133, 134, 135, 136, 137, 138, 139, 140, 141, 142, 143, 144, 145, 146, 147, 148, 149, 150, 151, 152, 153, 154, 155, 156, 157, 158, 159, 160, 161, 162, 163, 164, 165, 166, 167, 168, 169, 170, 171, 172, 173, 174, 175, 176, 177, 178, 179, 180, 181, 182, 183, 184, 185, 186, 187, 188, 189, 190, 191, 192, 193, 194, 195, 196, 197, 198, 199, 200, 201, 202, 203, 204, 205, 206, 207, 208, 209, 210, 211, 212, 213, 214, 215, 216, 217, 218, 219, 220, 221, 222, 223, 224, 225, 226, 227, 228, 229, 230, 231, 232, 233, 234, 235, 236, 237, 238, 239, 240, 241, 242, 243, 244, 245, 246, 247, 248, 249, 250, 251, 252, 253, 254, 255, 256, 257, 258, 259, 260, 261, 262, 263, 264, 265, 266, 267, 268, 269, 270, 271, 272, 273, 274, 275, 276, 277, 278, 279, 280, 281, 282, 283, 284, 285, 286, 287, 288, 289, 290, 291, 292, 293, 294, 295, 296, 297, 298, 299, 300, 301, 302, 303, 304, 305, 306, 307, 308, 309, 310, 311, 312, 313, 314, 315, 316, 317, 318, 319, 320, 321, 322, 323, 324, 325, 326, 327, 328, 329, 330, 331, 332, 333, 334, 335, 336, 337, 338, 339, 340, 341, 342, 343, 344, 345, 346, 347, 348, 349, 350, 351, 352, 353, 354, 355, 356],
      "AcquisitionTime": ["194523.417500", "194524.417500", "194525.417500", "194526.417500", "194527.417500", "194528.417500", "194529.417500", "194530.417500", "194531.417500", "194532.417500", "194533.417500", "194534.417500", "194535.417500", "194536.417500", "194537.417500", "194538.417500", "194539.417500", "194540.417500", "194541.417500", "194542.417500", "194543.417500", "194544.417500", "194545.417500", "194546.417500", "194547.417500", "194548.417500", "194549.417500", "194550.417500", "194551.417500", "194552.417500", "194553.417500", "194554.417500", "194555.417500", "194556.417500", "194557.417500", "194558.417500", "194559.417500", "194600.417500", "194601.417500", "194602.417500", "194603.417500", "194604.417500", "194605.417500", "194606.417500", "194607.417500", "194608.417500", "194609.417500", "194610.417500", "194611.417500", "194612.417500", "194613.417500", "194614.417500", "194615.417500", "194616.417500", "194617.417500", "194618.417500", "194619.417500", "194620.417500", "194621.417500", "194622.417500", "194623.417500", "194624.417500", "194625.417500", "194626.417500", "194627.417500", "194628.417500", "194629.417500", "194630.417500", "194631.417500", "194632.417500", "194633.417500", "194634.417500", "194635.417500", "194636.417500", "194637.417500", "194638.417500", "194639.417500", "194640.417500", "194641.417500", "194642.417500", "194643.417500", "194644.417500", "194645.417500", "194646.417500", "194647.417500", "194648.417500", "194649.417500", "194650.417500", "194651.417500", "194652.417500", "194653.417500", "194654.417500", "194655.417500", "194656.417500", "194657.417500", "194658.417500", "194659.417500", "194700.417500", "194701.417500", "194702.417500", "194703.417500", "194704.417500", "194705.417500", "194706.417500", "194707.417500", "194708.417500", "194709.417500", "194710.417500", "194711.417500", "194712.417500", "194713.417500", "194714.417500", "194715.417500", "194716.417500", "194717.417500", "194718.417500", "194719.417500", "194720.417500", "194721.417500", "194722.417500", "194723.417500", "194724.417500", "194725.417500", "194726.417500", "194727.417500", "194728.417500", "194729.417500", "194730.417500", "194731.417500", "194732.417500", "194733.417500", "194734.417500", "194735.417500", "194736.417500", "194737.417500", "194738.417500", "194739.417500", "194740.417500", "194741.417500", "194742.417500", "194743.417500", "194744.417500", "194745.417500", "194746.417500", "194747.417500", "194748.417500", "194749.417500", "194750.417500", "194751.417500", "194752.417500", "194753.417500", "194754.417500", "194755.417500", "194756.417500", "194757.417500", "194758.417500", "194759.417500", "194800.417500", "194801.417500", "194802.417500", "194803.417500", "194804.417500", "194805.417500", "194806.417500", "194807.417500", "194808.417500", "194809.417500", "194810.417500", "194811.417500", "194812.417500", "194813.417500", "194814.417500", "194815.417500", "194816.417500", "194817.417500", "194818.417500", "194819.417500", "194820.417500", "194821.417500", "194822.417500", "194823.417500", "194824.417500", "194825.417500", "194826.417500", "194827.417500", "194828.417500", "194829.417500", "194830.417500", "194831.417500", "194832.417500", "194833.417500", "194834.417500", "194835.417500", "194836.417500", "194837.417500", "194838.417500", "194839.417500", "194840.417500", "194841.417500", "194842.417500", "194843.417500", "194844.417500", "194845.417500", "194846.417500", "194847.417500", "194848.417500", "194849.417500", "194850.417500", "194851.417500", "194852.417500", "194853.417500", "194854.417500", "194855.417500", "194856.417500", "194857.417500", "194858.417500", "194859.417500", "194900.417500", "194901.417500", "194902.417500", "194903.417500", "194904.417500", "194905.417500", "194906.417500", "194907.417500", "194908.417500", "194909.417500", "194910.417500", "194911.417500", "194912.417500", "194913.417500", "194914.417500", "194915.417500", "194916.417500", "194917.417500", "194918.417500", "194919.417500", "194920.417500", "194921.417500", "194922.417500", "194923.417500", "194924.417500", "194925.417500", "194926.417500", "194927.417500", "194928.417500", "194929.417500", "194930.417500", "194931.417500", "194932.417500", "194933.417500", "194934.417500", "194935.417500", "194936.417500", "194937.417500", "194938.417500", "194939.417500", "194940.417500", "194941.417500", "194942.417500", "194943.417500", "194944.417500", "194945.417500", "194946.417500", "194947.417500", "194948.417500", "194949.417500", "194950.417500", "194951.417500", "194952.417500", "194953.417500", "194954.417500", "194955.417500", "194956.417500", "194957.417500", "194958.417500", "194959.417500", "195000.417500", "195001.417500", "195002.417500", "195003.417500", "195004.417500", "195005.417500", "195006.417500", "195007.417500", "195008.417500", "195009.417500", "195010.417500", "195011.417500", "195012.417500", "195013.417500", "195014.417500", "195015.417500", "195016.417500", "195017.417500", "195018.417500", "195019.417500", "195020.417500", "195021.417500", "195022.417500", "195023.417500", "195024.417500", "195025.417500", "195026.417500", "195027.417500", "195028.417500", "195029.417500", "195030.417500", "195031.417500", "195032.417500", "195033.417500", "195034.417500", "195035.417500", "195036.417500", "195037.417500", "195038.417500", "195039.417500", "195040.417500", "195041.417500", "195042.417500", "195043.417500", "195044.417500", "195045.417500", "195046.417500", "195047.417500", "195048.417500", "195049.417500", "195050.417500", "195051.417500", "195052.417500", "195053.417500", "195054.417500", "195055.417500", "195056.417500", "195057.417500", "195058.417500", "195059.417500", "195100.417500", "195101.417500", "195102.417500", "195103.417500", "195104.417500", "195105.417500", "195106.417500", "195107.417500", "195108.417500", "195109.417500", "195110.417500", "195111.417500", "195112.417500", "195113.417500", "195114.417500", "195115.417500", "195116.417500", "195117.417500", "195118.417500"],
      "ContentTime": ["194553.411000", "194553.414000", "194553.416000", "194553.419000", "194553.421000", "194553.424000", "194553.428000", "194553.431000", "194553.433000", "194553.436000", "194553.439000", "194553.441000", "194553.444000", "194553.446000", "194553.449000", "194553.452000", "194553.454000", "194553.457000", "194553.459000", "194553.462000", "194553.464000", "194553.467000", "194553.470000", "194553.473000", "194553.475000", "194553.478000", "194553.480000", "194553.483000", "194553.485000", "194613.377000", "194613.380000", "194613.383000", "194613.385000", "194613.388000", "194613.390000", "194613.393000", "194613.395000", "194613.397000", "194613.400000", "194613.402000", "194613.405000", "194613.407000", "194613.410000", "194613.412000", "194613.415000", "194613.427000", "194613.430000", "194613.433000", "194613.435000", "194633.378000", "194633.381000", "194633.384000", "194633.386000", "194633.389000", "194633.391000", "194633.394000", "194633.396000", "194633.399000", "194633.401000", "194633.404000", "194633.406000", "194633.409000", "194633.411000", "194633.414000", "194633.416000", "194633.419000", "194633.421000", "194633.424000", "194633.426000", "194653.378000", "194653.381000", "194653.384000", "194653.386000", "194653.388000", "194653.391000", "194653.394000", "194653.396000", "194653.399000", "194653.401000", "194653.404000", "194653.406000", "194653.408000", "194653.418000", "194653.421000", "194653.423000", "194653.426000", "194653.428000", "194653.430000", "194653.433000", "194713.377000", "194713.380000", "194713.383000", "194713.385000", "194713.388000", "194713.390000", "194713.393000", "194713.395000", "194713.398000", "194713.400000", "194713.403000", "194713.405000", "194713.408000", "194713.410000", "194713.413000", "194713.415000", "194713.418000", "194713.420000", "194713.422000", "194713.425000", "194733.377000", "194733.380000", "194733.383000", "194733.385000", "194733.387000", "194733.390000", "194733.392000", "194733.395000", "194733.397000", "194733.400000", "194733.402000", "194733.405000", "194733.407000", "194733.410000", "194733.412000", "194733.415000", "194733.417000", "194733.420000", "194733.422000", "194733.425000", "194753.378000", "194753.380000", "194753.383000", "194753.385000", "194753.388000", "194753.390000", "194753.393000", "194753.395000", "194753.398000", "194753.400000", "194753.403000", "194753.405000", "194753.408000", "194753.410000", "194753.413000", "194753.415000", "194753.418000", "194753.420000", "194753.423000", "194753.425000", "194813.378000", "194813.380000", "194813.383000", "194813.385000", "194813.388000", "194813.390000", "194813.393000", "194813.395000", "194813.398000", "194813.400000", "194813.403000", "194813.405000", "194813.408000", "194813.410000", "194813.413000", "194813.415000", "194813.418000", "194813.420000", "194813.423000", "194813.425000", "194833.378000", "194833.380000", "194833.383000", "194833.385000", "194833.388000", "194833.390000", "194833.393000", "194833.395000", "194833.398000", "194833.400000", "194833.403000", "194833.405000", "194833.408000", "194833.410000", "194833.413000", "194833.415000", "194833.418000", "194833.420000", "194833.423000", "194833.425000", "194853.378000", "194853.381000", "194853.383000", "194853.386000", "194853.388000", "194853.391000", "194853.393000", "194853.396000", "194853.398000", "194853.401000", "194853.403000", "194853.406000", "194853.408000", "194853.411000", "194853.413000", "194853.416000", "194853.418000", "194853.421000", "194853.423000", "194853.426000", "194913.378000", "194913.381000", "194913.384000", "194913.386000", "194913.389000", "194913.391000", "194913.394000", "194913.396000", "194913.399000", "194913.401000", "194913.404000", "194913.406000", "194913.409000", "194913.411000", "194913.414000", "194913.416000", "194913.425000", "194913.427000", "194913.430000", "194913.432000", "194933.378000", "194933.380000", "194933.383000", "194933.385000", "194933.388000", "194933.390000", "194933.393000", "194933.395000", "194933.398000", "194933.400000", "194933.403000", "194933.405000", "194933.408000", "194933.410000", "194933.413000", "194933.415000", "194933.418000", "194933.420000", "194933.423000", "194933.425000", "194953.377000", "194953.380000", "194953.383000", "194953.385000", "194953.388000", "194953.390000", "194953.393000", "194953.395000", "194953.397000", "194953.400000", "194953.403000", "194953.405000", "194953.408000", "194953.410000", "194953.413000", "194953.415000", "194953.432000", "194953.435000", "194953.437000", "194953.440000", "195013.378000", "195013.380000", "195013.383000", "195013.385000", "195013.388000", "195013.391000", "195013.393000", "195013.396000", "195013.398000", "195013.401000", "195013.403000", "195013.406000", "195013.408000", "195013.411000", "195013.413000", "195013.416000", "195013.418000", "195013.421000", "195013.423000", "195013.425000", "195033.377000", "195033.380000", "195033.382000", "195033.385000", "195033.387000", "195033.390000", "195033.392000", "195033.395000", "195033.398000", "195033.400000", "195033.403000", "195033.405000", "195033.408000", "195033.410000", "195033.412000", "195033.415000", "195033.417000", "195033.420000", "195033.422000", "195033.425000", "195053.377000", "195053.380000", "195053.383000", "195053.385000", "195053.388000", "195053.390000", "195053.393000", "195053.395000", "195053.398000", "195053.400000", "195053.403000", "195053.405000", "195053.408000", "195053.410000", "195053.413000", "195053.415000", "195053.418000", "195053.420000", "195053.423000", "195053.425000", "195113.380000", "195113.383000", "195113.385000", "195113.388000", "195113.390000", "195113.393000", "195113.395000", "195113.398000", "195113.400000", "195113.403000", "195113.405000", "195113.408000", "195113.411000", "195113.413000", "195113.415000", "195113.418000", "195113.420000", "195113.423000", "195113.425000", "195113.428000", "195120.090000", "195120.092000", "195120.095000", "195120.098000", "195120.100000", "195120.103000", "195120.105000"],
      "InstanceCreationTime": ["194553.411000", "194553.414000", "194553.416000", "194553.419000", "194553.421000", "194553.424000", "194553.428000", "194553.431000", "194553.433000", "194553.436000", "194553.439000", "194553.441000", "194553.444000", "194553.446000", "194553.449000", "194553.452000", "194553.454000", "194553.457000", "194553.459000", "194553.462000", "194553.464000", "194553.467000", "194553.470000", "194553.473000", "194553.475000", "194553.478000", "194553.480000", "194553.483000", "194553.485000", "194613.377000", "194613.380000", "194613.383000", "194613.385000", "194613.388000", "194613.390000", "194613.393000", "194613.395000", "194613.397000", "194613.400000", "194613.402000", "194613.405000", "194613.407000", "194613.410000", "194613.412000", "194613.415000", "194613.427000", "194613.430000", "194613.433000", "194613.435000", "194633.378000", "194633.381000", "194633.384000", "194633.386000", "194633.389000", "194633.391000", "194633.394000", "194633.396000", "194633.399000", "194633.401000", "194633.404000", "194633.406000", "194633.409000", "194633.411000", "194633.414000", "194633.416000", "194633.419000", "194633.421000", "194633.424000", "194633.426000", "194653.378000", "194653.381000", "194653.384000", "194653.386000", "194653.388000", "194653.391000", "194653.394000", "194653.396000", "194653.399000", "194653.401000", "194653.404000", "194653.406000", "194653.408000", "194653.418000", "194653.421000", "194653.423000", "194653.426000", "194653.428000", "194653.430000", "194653.433000", "194713.377000", "194713.380000", "194713.383000", "194713.385000", "194713.388000", "194713.390000", "194713.393000", "194713.395000", "194713.398000", "194713.400000", "194713.403000", "194713.405000", "194713.408000", "194713.410000", "194713.413000", "194713.415000", "194713.418000", "194713.420000", "194713.422000", "194713.425000", "194733.377000", "194733.380000", "194733.383000", "194733.385000", "194733.387000", "194733.390000", "194733.392000", "194733.395000", "194733.397000", "194733.400000", "194733.402000", "194733.405000", "194733.407000", "194733.410000", "194733.412000", "194733.415000", "194733.417000", "194733.420000", "194733.422000", "194733.425000", "194753.378000", "194753.380000", "194753.383000", "194753.385000", "194753.388000", "194753.390000", "194753.393000", "194753.395000", "194753.398000", "194753.400000", "194753.403000", "194753.405000", "194753.408000", "194753.410000", "194753.413000", "194753.415000", "194753.418000", "194753.420000", "194753.423000", "194753.425000", "194813.378000", "194813.380000", "194813.383000", "194813.385000", "194813.388000", "194813.390000", "194813.393000", "194813.395000", "194813.398000", "194813.400000", "194813.403000", "194813.405000", "194813.408000", "194813.410000", "194813.413000", "194813.415000", "194813.418000", "194813.420000", "194813.423000", "194813.425000", "194833.378000", "194833.380000", "194833.383000", "194833.385000", "194833.388000", "194833.390000", "194833.393000", "194833.395000", "194833.398000", "194833.400000", "194833.403000", "194833.405000", "194833.408000", "194833.410000", "194833.413000", "194833.415000", "194833.418000", "194833.420000", "194833.423000", "194833.425000", "194853.378000", "194853.381000", "194853.383000", "194853.386000", "194853.388000", "194853.391000", "194853.393000", "194853.396000", "194853.398000", "194853.401000", "194853.403000", "194853.406000", "194853.408000", "194853.411000", "194853.413000", "194853.416000", "194853.418000", "194853.421000", "194853.423000", "194853.426000", "194913.378000", "194913.381000", "194913.384000", "194913.386000", "194913.389000", "194913.391000", "194913.394000", "194913.396000", "194913.399000", "194913.401000", "194913.404000", "194913.406000", "194913.409000", "194913.411000", "194913.414000", "194913.416000", "194913.425000", "194913.427000", "194913.430000", "194913.432000", "194933.378000", "194933.380000", "194933.383000", "194933.385000", "194933.388000", "194933.390000", "194933.393000", "194933.395000", "194933.398000", "194933.400000", "194933.403000", "194933.405000", "194933.408000", "194933.410000", "194933.413000", "194933.415000", "194933.418000", "194933.420000", "194933.423000", "194933.425000", "194953.377000", "194953.380000", "194953.383000", "194953.385000", "194953.388000", "194953.390000", "194953.393000", "194953.395000", "194953.397000", "194953.400000", "194953.403000", "194953.405000", "194953.408000", "194953.410000", "194953.413000", "194953.415000", "194953.432000", "194953.435000", "194953.437000", "194953.440000", "195013.378000", "195013.380000", "195013.383000", "195013.385000", "195013.388000", "195013.391000", "195013.393000", "195013.396000", "195013.398000", "195013.401000", "195013.403000", "195013.406000", "195013.408000", "195013.411000", "195013.413000", "195013.416000", "195013.418000", "195013.421000", "195013.423000", "195013.425000", "195033.377000", "195033.380000", "195033.382000", "195033.385000", "195033.387000", "195033.390000", "195033.392000", "195033.395000", "195033.398000", "195033.400000", "195033.403000", "195033.405000", "195033.408000", "195033.410000", "195033.412000", "195033.415000", "195033.417000", "195033.420000", "195033.422000", "195033.425000", "195053.377000", "195053.380000", "195053.383000", "195053.385000", "195053.388000", "195053.390000", "195053.393000", "195053.395000", "195053.398000", "195053.400000", "195053.403000", "195053.405000", "195053.408000", "195053.410000", "195053.413000", "195053.415000", "195053.418000", "195053.420000", "195053.423000", "195053.425000", "195113.380000", "195113.383000", "195113.385000", "195113.388000", "195113.390000", "195113.393000", "195113.395000", "195113.398000", "195113.400000", "195113.403000", "195113.405000", "195113.408000", "195113.411000", "195113.413000", "195113.415000", "195113.418000", "195113.420000", "195113.423000", "195113.425000", "195113.428000", "195120.090000", "195120.092000", "195120.095000", "195120.098000", "195120.100000", "195120.103000", "195120.105000"],
      "InstanceNumber": [1, 2, 3, 4, 5, 6, 7, 8, 9, 10, 11, 12, 13, 14, 15, 16, 17, 18, 19, 20, 21, 22, 23, 24, 25, 26, 27, 28, 29, 30, 31, 32, 33, 34, 35, 36, 37, 38, 39, 40, 41, 42, 43, 44, 45, 46, 47, 48, 49, 50, 51, 52, 53, 54, 55, 56, 57, 58, 59, 60, 61, 62, 63, 64, 65, 66, 67, 68, 69, 70, 71, 72, 73, 74, 75, 76, 77, 78, 79, 80, 81, 82, 83, 84, 85, 86, 87, 88, 89, 90, 91, 92, 93, 94, 95, 96, 97, 98, 99, 100, 101, 102, 103, 104, 105, 106, 107, 108, 109, 110, 111, 112, 113, 114, 115, 116, 117, 118, 119, 120, 121, 122, 123, 124, 125, 126, 127, 128, 129, 130, 131, 132, 133, 134, 135, 136, 137, 138, 139, 140, 141, 142, 143, 144, 145, 146, 147, 148, 149, 150, 151, 152, 153, 154, 155, 156, 157, 158, 159, 160, 161, 162, 163, 164, 165, 166, 167, 168, 169, 170, 171, 172, 173, 174, 175, 176, 177, 178, 179, 180, 181, 182, 183, 184, 185, 186, 187, 188, 189, 190, 191, 192, 193, 194, 195, 196, 197, 198, 199, 200, 201, 202, 203, 204, 205, 206, 207, 208, 209, 210, 211, 212, 213, 214, 215, 216, 217, 218, 219, 220, 221, 222, 223, 224, 225, 226, 227, 228, 229, 230, 231, 232, 233, 234, 235, 236, 237, 238, 239, 240, 241, 242, 243, 244, 245, 246, 247, 248, 249, 250, 251, 252, 253, 254, 255, 256, 257, 258, 259, 260, 261, 262, 263, 264, 265, 266, 267, 268, 269, 270, 271, 272, 273, 274, 275, 276, 277, 278, 279, 280, 281, 282, 283, 284, 285, 286, 287, 288, 289, 290, 291, 292, 293, 294, 295, 296, 297, 298, 299, 300, 301, 302, 303, 304, 305, 306, 307, 308, 309, 310, 311, 312, 313, 314, 315, 316, 317, 318, 319, 320, 321, 322, 323, 324, 325, 326, 327, 328, 329, 330, 331, 332, 333, 334, 335, 336, 337, 338, 339, 340, 341, 342, 343, 344, 345, 346, 347, 348, 349, 350, 351, 352, 353, 354, 355, 356],
      "LargestImagePixelValue": [15367, 15159, 14865, 14765, 14641, 14617, 14698, 14702, 14583, 14606, 14543, 14619, 14593, 14574, 14441, 14501, 14479, 14548, 14575, 14539, 14509, 14592, 14533, 14416, 14513, 14495, 14454, 14482, 14565, 14540, 14381, 14437, 14458, 14586, 14583, 14621, 14540, 14584, 14678, 14662, 14691, 14687, 14797, 14847, 14606, 14504, 14581, 14696, 14607, 14620, 14639, 14696, 14574, 14676, 14664, 14594, 14728, 14514, 14674, 14736, 14638, 14640, 14667, 14694, 14741, 14841, 14795, 14865, 14684, 14843, 14666, 14841, 14876, 14659, 14890, 14839, 14778, 14799, 14770, 14790, 14852, 14928, 14805, 14828, 14763, 14769, 15032, 14986, 14920, 14919, 14823, 14824, 14880, 14938, 14866, 14886, 14964, 14872, 14958, 15045, 15060, 15170, 15043, 15019, 15118, 14899, 14911, 15011, 15117, 14858, 14957, 15116, 14910, 15050, 14910, 14855, 15061, 14902, 15152, 15003, 14945, 14931, 15128, 15050, 15099, 15101, 14946, 14968, 14976, 15059, 14772, 14991, 14904, 15153, 15179, 15165, 15301, 15266, 14986, 15014, 15101, 15035, 15073, 14938, 14876, 15051, 14987, 15174, 15082, 15005, 15028, 15031, 14914, 14976, 14936, 14874, 14862, 14932, 15003, 14982, 14916, 14987, 15225, 15116, 15116, 15127, 14968, 15082, 14941, 14950, 14915, 14956, 14956, 14932, 15021, 14928, 15028, 15214, 15151, 15270, 15047, 15224, 15237, 15176, 15414, 15355, 15406, 15519, 15223, 15287, 15300, 15204, 15170, 15308, 15166, 15186, 15215, 15166, 15150, 15136, 14972, 15071, 15045, 15087, 15094, 15177, 15026, 15086, 15015, 14871, 14994, 14917, 15073, 14960, 15119, 15266, 15264, 15173, 15117, 15268, 15315, 15344, 15235, 15012, 15100, 15183, 15069, 15109, 15040, 14964, 15117, 14926, 15135, 15174, 15235, 15114, 15184, 15299, 15147, 15175, 15110, 15148, 15089, 15205, 15230, 15232, 15319, 15370, 15260, 15260, 15263, 15289, 15239, 15026, 15165, 15122, 15268, 15212, 15222, 15266, 15158, 15329, 15345, 15127, 15213, 15329, 15181, 15441, 15354, 15172, 15321, 15174, 15066, 15347, 15086, 15333, 15364, 15217, 15110, 15201, 15431, 15339, 15417, 15407, 15261, 15464, 15350, 15412, 15493, 15521, 15343, 15401, 15445, 15394, 15348, 15338, 15358, 15407, 15414, 15372, 15458, 15338, 15438, 15308, 15451, 15486, 15520, 15496, 15254, 15361, 15454, 15523, 15554, 15540, 15391, 15257, 15295, 15465, 15412, 15265, 15147, 15339, 15382, 15302, 15275, 15270, 15244, 15093, 15234, 15423, 15405, 15443, 15397, 15369, 15602, 15312, 15448, 15395, 15544, 15582, 15563, 15538, 15396, 15309, 15174, 15383, 15359, 15482, 15423, 15497, 15679, 15541, 15541, 15560, 15631, 15609],
