{
  "AcquisitionMatrixPE": 106,
  "AcquisitionNumber": 1,
  "AcquisitionTime": "19:53:8.085000",
  "BandwidthPerPixelPhaseEncode": 16.846,
  "BaseResolution": 106,
  "BodyPartExamined": "BRAIN",
  "CoilCombinationMethod": "Sum of Squares",
  "ConsistencyInfo": "N4_VE11C_LATEST_20160120",
  "ConversionSoftware": "dcm2niix",
  "ConversionSoftwareVersion": "v1.0.20220720",
  "DerivedVendorReportedEchoSpacing": 0.000560012,
  "DeviceSerialNumber": "166108",
  "DwellTime": 1.8e-06,
  "EchoTime": 0.0352,
  "EchoTrainLength": 106,
  "EffectiveEchoSpacing": 0.000560012,
  "FlipAngle": 60,
  "HeudiconvVersion": "1.3.0",
  "ImageComments": "Unaliased MB4/PE3/LB",
  "ImageOrientationPatientDICOM": [1, 0, 0, 0, 0.917755, -0.397148],
  "ImageOrientationText": "Tra>Cor(-23.4)",
  "ImageType": [
    "ORIGINAL",
    "PRIMARY",
    "M",
    "MB",
    "ND",
    "MOSAIC"
],
  "ImagingFrequency": 123.244,
  "InPlanePhaseEncodingDirectionDICOM": "COL",
  "InstitutionAddress": "Bedford Way 26,London,London,GB,WC1H 0AP",
  "InstitutionName": "University College",
  "InstitutionalDepartmentName": "Department",
  "MRAcquisitionType": "2D",
  "MagneticFieldStrength": 3,
  "Manufacturer": "Siemens",
  "ManufacturersModelName": "Prisma",
  "MatrixCoilMode": "SENSE",
  "Modality": "MR",
  "MultibandAccelerationFactor": 4,
  "NonlinearGradientCorrection": false,
  "PartialFourier": 1,
  "PatientPosition": "HFS",
  "PercentPhaseFOV": 100,
  "PercentSampling": 100,
  "PhaseEncodingDirection": "j-",
  "PhaseEncodingSteps": 106,
  "PhaseResolution": 1,
  "PixelBandwidth": 2620,
  "ProcedureStepDescription": "Egor^MovieProject2",
  "ProtocolName": "func-bold_task-pRF_run-02",
  "PulseSequenceDetails": "%CustomerSeq%\\cmrr_mbep2d_bold",
  "ReceiveCoilActiveElements": "HEA;HEP",
  "ReceiveCoilName": "Head_32",
  "ReconMatrixPE": 106,
  "RepetitionTime": 1,
  "SAR": 0.0918953,
  "ScanOptions": "FS\\EXT",
  "ScanningSequence": "EP",
  "SequenceName": "epfid2d1_106",
  "SequenceVariant": "SK\\SS",
  "SeriesDescription": "func-bold_task-pRF_run-02",
  "SeriesNumber": 12,
  "ShimSetting": [-1519, 670, 7388, 141, -41, 108, 86, -64],
  "SliceThickness": 2,
  "SliceTiming": [0, 0.4075, 0.8175, 0.245, 0.6525, 0.0825, 0.49, 0.8975, 0.3275, 0.735, 0.1625, 0.5725, 0, 0.4075, 0.8175, 0.245, 0.6525, 0.0825, 0.49, 0.8975, 0.3275, 0.735, 0.1625, 0.5725, 0, 0.4075, 0.8175, 0.245, 0.6525, 0.0825, 0.49, 0.8975, 0.3275, 0.735, 0.1625, 0.5725, 0, 0.4075, 0.8175, 0.245, 0.6525, 0.0825, 0.49, 0.8975, 0.3275, 0.735, 0.1625, 0.5725],
  "SoftwareVersions": "syngo MR E11",
  "SpacingBetweenSlices": 2,
  "StationName": "AWP166108",
  "TaskName": "retinotopy",
  "TotalReadoutTime": 0.0588013,
  "TxRefAmp": 239.94,
  "WipMemBlock": "0c120409-2b57-4015-b56d-609cf990cf2e||Sequence: R016 ve11c/master r/e634e98; Dec 19 2017 11:00:25 by eja",
  "dcmmeta_affine": [
    [-2.0, 0.0, 0.0, 106.0],
    [0.0, 1.8355093002319336, -0.7942957282066345, -80.48173522949219],
    [0.0, 0.7942957282066345, 1.8355093002319336, -47.42579650878906],
    [0.0, 0.0, 0.0, 1.0]
],
  "dcmmeta_reorient_transform": [
    [0.0, -1.0, 0.0, 105.0],
    [1.0, 0.0, 0.0, 0.0],
    [0.0, 0.0, 1.0, 0.0],
    [0.0, 0.0, 0.0, 1.0]
],
  "dcmmeta_shape": [106, 106, 48, 356],
  "dcmmeta_slice_dim": 2,
  "dcmmeta_version": 0.6,
  "global": {
    "const": {
      "AcquisitionMatrix": [106, 0, 0, 106],
      "AngioFlag": "N",
      "BitsAllocated": 16,
      "BitsStored": 16,
      "BodyPartExamined": "BRAIN",
      "CardiacNumberOfImages": 1,
      "Columns": 742,
      "EchoNumbers": 1,
      "EchoTime": 35.2,
      "EchoTrainLength": 106,
      "FlipAngle": 60.0,
      "HighBit": 15,
      "ImageOrientationPatient": [1.0, 0.0, 0.0, 0.0, 0.9177546397099, -0.3971478582228],
      "ImagePositionPatient": [-742.0, -695.93868913997, 288.56129144401],
      "ImageType": [
        "ORIGINAL",
        "PRIMARY",
        "M",
        "MB",
        "ND",
        "MOSAIC"
],
      "ImagedNucleus": "1H",
      "ImagingFrequency": 123.243646,
      "InPlanePhaseEncodingDirection": "COL",
      "MRAcquisitionType": "2D",
      "MagneticFieldStrength": 3.0,
      "Manufacturer": "SIEMENS",
      "ManufacturerModelName": "Prisma",
      "Modality": "MR",
      "NominalInterval": 0,
      "NumberOfAverages": 1.0,
      "NumberOfPhaseEncodingSteps": 106,
      "PercentPhaseFieldOfView": 100.0,
      "PercentSampling": 100.0,
      "PerformedProcedureStepStartTime": "185526.528000",
      "PhotometricInterpretation": "MONOCHROME2",
      "PixelBandwidth": 2620.0,
      "PixelRepresentation": 0,
      "PixelSpacing": [2.0, 2.0],
      "ProtocolName": "func-bold_task-pRF_run-02",
      "RepetitionTime": 1000.0,
      "Rows": 742,
      "SAR": 0.09189533693235,
      "SamplesPerPixel": 1,
      "ScanOptions": [
        "FS",
        "EXT"
],
      "ScanningSequence": "EP",
      "SequenceName": "epfid2d1_106",
      "SequenceVariant": [
        "SK",
        "SS"
],
      "SeriesDescription": "func-bold_task-pRF_run-02",
      "SeriesNumber": 12,
      "SeriesTime": "195343.817000",
      "SliceLocation": -11.562095782892,
      "SliceThickness": 2.0,
      "SmallestImagePixelValue": 0,
      "SoftwareVersions": "syngo MR E11",
      "SpacingBetweenSlices": 1.9999999875476,
      "SpecificCharacterSet": "ISO_IR 100",
      "StudyID": "1",
      "StudyTime": "185526.408000",
      "TransmitCoilName": "Body",
      "VariableFlipAngleFlag": "N",
      "WindowCenterWidthExplanation": "Algo1",
      "dBdt": 0.0},
    "slices": {}
  },
  "time": {
    "samples": {
      "AcquisitionNumber": [1, 2, 3, 4, 5, 6, 7, 8, 9, 10, 11, 12, 13, 14, 15, 16, 17, 18, 19, 20, 21, 22, 23, 24, 25, 26, 27, 28, 29, 30, 31, 32, 33, 34, 35, 36, 37, 38, 39, 40, 41, 42, 43, 44, 45, 46, 47, 48, 49, 50, 51, 52, 53, 54, 55, 56, 57, 58, 59, 60, 61, 62, 63, 64, 65, 66, 67, 68, 69, 70, 71, 72, 73, 74, 75, 76, 77, 78, 79, 80, 81, 82, 83, 84, 85, 86, 87, 88, 89, 90, 91, 92, 93, 94, 95, 96, 97, 98, 99, 100, 101, 102, 103, 104, 105, 106, 107, 108, 109, 110, 111, 112, 113, 114, 115, 116, 117, 118, 119, 120, 121, 122, 123, 124, 125, 126, 127, 128, 129, 130, 131, 132, 133, 134, 135, 136, 137, 138, 139, 140, 141, 142, 143, 144, 145, 146, 147, 148, 149, 150, 151, 152, 153, 154, 155, 156, 157, 158, 159, 160, 161, 162, 163, 164, 165, 166, 167, 168, 169, 170, 171, 172, 173, 174, 175, 176, 177, 178, 179, 180, 181, 182, 183, 184, 185, 186, 187, 188, 189, 190, 191, 192, 193, 194, 195, 196, 197, 198, 199, 200, 201, 202, 203, 204, 205, 206, 207, 208, 209, 210, 211, 212, 213, 214, 215, 216, 217, 218, 219, 220, 221, 222, 223, 224, 225, 226, 227, 228, 229, 230, 231, 232, 233, 234, 235, 236, 237, 238, 239, 240, 241, 242, 243, 244, 245, 246, 247, 248, 249, 250, 251, 252, 253, 254, 255, 256, 257, 258, 259, 260, 261, 262, 263, 264, 265, 266, 267, 268, 269, 270, 271, 272, 273, 274, 275, 276, 277, 278, 279, 280, 281, 282, 283, 284, 285, 286, 287, 288, 289, 290, 291, 292, 293, 294, 295, 296, 297, 298, 299, 300, 301, 302, 303, 304, 305, 306, 307, 308, 309, 310, 311, 312, 313, 314, 315, 316, 317, 318, 319, 320, 321, 322, 323, 324, 325, 326, 327, 328, 329, 330, 331, 332, 333, 334, 335, 336, 337, 338, 339, 340, 341, 342, 343, 344, 345, 346, 347, 348, 349, 350, 351, 352, 353, 354, 355, 356],
      "AcquisitionTime": ["195308.085000", "195309.085000", "195310.085000", "195311.085000", "195312.085000", "195313.085000", "195314.085000", "195315.085000", "195316.085000", "195317.085000", "195318.085000", "195319.085000", "195320.085000", "195321.085000", "195322.085000", "195323.085000", "195324.085000", "195325.085000", "195326.085000", "195327.085000", "195328.085000", "195329.085000", "195330.085000", "195331.085000", "195332.085000", "195333.085000", "195334.085000", "195335.085000", "195336.085000", "195337.085000", "195338.085000", "195339.085000", "195340.085000", "195341.085000", "195342.085000", "195343.085000", "195344.085000", "195345.085000", "195346.085000", "195347.085000", "195348.085000", "195349.085000", "195350.085000", "195351.085000", "195352.085000", "195353.085000", "195354.085000", "195355.085000", "195356.085000", "195357.085000", "195358.085000", "195359.085000", "195400.085000", "195401.085000", "195402.085000", "195403.085000", "195404.085000", "195405.085000", "195406.085000", "195407.085000", "195408.085000", "195409.085000", "195410.085000", "195411.085000", "195412.085000", "195413.085000", "195414.085000", "195415.085000", "195416.085000", "195417.085000", "195418.085000", "195419.085000", "195420.085000", "195421.085000", "195422.085000", "195423.085000", "195424.085000", "195425.085000", "195426.085000", "195427.085000", "195428.085000", "195429.085000", "195430.085000", "195431.085000", "195432.085000", "195433.085000", "195434.085000", "195435.085000", "195436.085000", "195437.085000", "195438.085000", "195439.085000", "195440.085000", "195441.085000", "195442.085000", "195443.085000", "195444.085000", "195445.085000", "195446.085000", "195447.085000", "195448.085000", "195449.085000", "195450.085000", "195451.085000", "195452.085000", "195453.085000", "195454.085000", "195455.085000", "195456.085000", "195457.085000", "195458.085000", "195459.085000", "195500.085000", "195501.085000", "195502.085000", "195503.085000", "195504.085000", "195505.085000", "195506.085000", "195507.085000", "195508.085000", "195509.085000", "195510.085000", "195511.085000", "195512.085000", "195513.085000", "195514.085000", "195515.085000", "195516.085000", "195517.085000", "195518.085000", "195519.085000", "195520.085000", "195521.085000", "195522.085000", "195523.085000", "195524.085000", "195525.085000", "195526.085000", "195527.085000", "195528.085000", "195529.085000", "195530.085000", "195531.085000", "195532.085000", "195533.085000", "195534.085000", "195535.085000", "195536.085000", "195537.085000", "195538.085000", "195539.085000", "195540.085000", "195541.085000", "195542.085000", "195543.085000", "195544.085000", "195545.085000", "195546.085000", "195547.085000", "195548.085000", "195549.085000", "195550.085000", "195551.085000", "195552.085000", "195553.085000", "195554.085000", "195555.085000", "195556.085000", "195557.085000", "195558.085000", "195559.085000", "195600.085000", "195601.085000", "195602.085000", "195603.085000", "195604.085000", "195605.085000", "195606.085000", "195607.085000", "195608.085000", "195609.085000", "195610.085000", "195611.085000", "195612.085000", "195613.085000", "195614.085000", "195615.085000", "195616.085000", "195617.085000", "195618.085000", "195619.085000", "195620.085000", "195621.085000", "195622.085000", "195623.085000", "195624.085000", "195625.085000", "195626.085000", "195627.085000", "195628.085000", "195629.085000", "195630.085000", "195631.085000", "195632.085000", "195633.085000", "195634.085000", "195635.085000", "195636.085000", "195637.085000", "195638.085000", "195639.085000", "195640.085000", "195641.085000", "195642.085000", "195643.085000", "195644.085000", "195645.085000", "195646.085000", "195647.085000", "195648.085000", "195649.085000", "195650.085000", "195651.085000", "195652.085000", "195653.085000", "195654.085000", "195655.085000", "195656.085000", "195657.085000", "195658.085000", "195659.085000", "195700.085000", "195701.085000", "195702.085000", "195703.085000", "195704.085000", "195705.085000", "195706.085000", "195707.085000", "195708.085000", "195709.085000", "195710.085000", "195711.085000", "195712.085000", "195713.085000", "195714.085000", "195715.085000", "195716.085000", "195717.085000", "195718.085000", "195719.085000", "195720.085000", "195721.085000", "195722.085000", "195723.085000", "195724.085000", "195725.085000", "195726.085000", "195727.085000", "195728.085000", "195729.085000", "195730.085000", "195731.085000", "195732.085000", "195733.085000", "195734.085000", "195735.085000", "195736.085000", "195737.085000", "195738.085000", "195739.085000", "195740.085000", "195741.085000", "195742.085000", "195743.085000", "195744.085000", "195745.085000", "195746.085000", "195747.085000", "195748.085000", "195749.085000", "195750.085000", "195751.085000", "195752.085000", "195753.085000", "195754.085000", "195755.085000", "195756.085000", "195757.085000", "195758.085000", "195759.085000", "195800.085000", "195801.085000", "195802.085000", "195803.085000", "195804.085000", "195805.085000", "195806.085000", "195807.085000", "195808.085000", "195809.085000", "195810.085000", "195811.085000", "195812.085000", "195813.085000", "195814.085000", "195815.085000", "195816.085000", "195817.085000", "195818.085000", "195819.085000", "195820.085000", "195821.085000", "195822.085000", "195823.085000", "195824.085000", "195825.085000", "195826.085000", "195827.085000", "195828.085000", "195829.085000", "195830.085000", "195831.085000", "195832.085000", "195833.085000", "195834.085000", "195835.085000", "195836.085000", "195837.085000", "195838.085000", "195839.085000", "195840.085000", "195841.085000", "195842.085000", "195843.085000", "195844.085000", "195845.085000", "195846.085000", "195847.085000", "195848.085000", "195849.085000", "195850.085000", "195851.085000", "195852.085000", "195853.085000", "195854.085000", "195855.085000", "195856.085000", "195857.085000", "195858.085000", "195859.085000", "195900.085000", "195901.085000", "195902.085000", "195903.085000"],
      "ContentTime": ["195343.820000", "195343.823000", "195343.825000", "195343.828000", "195343.830000", "195343.833000", "195343.835000", "195343.844000", "195343.846000", "195343.848000", "195343.851000", "195343.853000", "195343.856000", "195343.858000", "195343.861000", "195343.863000", "195343.866000", "195343.868000", "195343.871000", "195343.873000", "195343.875000", "195343.878000", "195343.880000", "195343.883000", "195343.886000", "195343.888000", "195343.890000", "195343.893000", "195343.895000", "195343.898000", "195343.900000", "195343.903000", "195343.905000", "195343.908000", "195403.786000", "195403.789000", "195403.792000", "195403.794000", "195403.796000", "195403.799000", "195403.801000", "195403.804000", "195403.806000", "195403.809000", "195403.811000", "195403.814000", "195403.816000", "195403.819000", "195403.821000", "195403.830000", "195403.833000", "195403.835000", "195403.838000", "195403.840000", "195423.787000", "195423.789000", "195423.792000", "195423.794000", "195423.797000", "195423.799000", "195423.802000", "195423.804000", "195423.806000", "195423.809000", "195423.811000", "195423.814000", "195423.816000", "195423.819000", "195423.821000", "195423.824000", "195423.826000", "195423.829000", "195423.831000", "195423.834000", "195443.787000", "195443.790000", "195443.792000", "195443.795000", "195443.797000", "195443.800000", "195443.802000", "195443.805000", "195443.807000", "195443.810000", "195443.812000", "195443.825000", "195443.828000", "195443.830000", "195443.833000", "195443.835000", "195443.837000", "195443.840000", "195443.842000", "195443.845000", "195503.787000", "195503.790000", "195503.793000", "195503.795000", "195503.798000", "195503.800000", "195503.803000", "195503.805000", "195503.818000", "195503.821000", "195503.823000", "195503.826000", "195503.828000", "195503.831000", "195503.846000", "195503.849000", "195503.851000", "195503.854000", "195503.856000", "195503.859000", "195523.787000", "195523.790000", "195523.793000", "195523.795000", "195523.798000", "195523.800000", "195523.803000", "195523.805000", "195523.808000", "195523.810000", "195523.813000", "195523.815000", "195523.818000", "195523.820000", "195523.823000", "195523.825000", "195523.827000", "195523.830000", "195523.833000", "195523.835000", "195543.787000", "195543.790000", "195543.792000", "195543.795000", "195543.797000", "195543.800000", "195543.802000", "195543.805000", "195543.807000", "195543.810000", "195543.812000", "195543.815000", "195543.817000", "195543.820000", "195543.822000", "195543.825000", "195543.827000", "195543.830000", "195543.832000", "195543.834000", "195603.787000", "195603.790000", "195603.793000", "195603.795000", "195603.797000", "195603.800000", "195603.802000", "195603.805000", "195603.807000", "195603.810000", "195603.812000", "195603.814000", "195603.817000", "195603.819000", "195603.822000", "195603.825000", "195603.827000", "195603.830000", "195603.832000", "195603.835000", "195623.786000", "195623.789000", "195623.792000", "195623.794000", "195623.796000", "195623.799000", "195623.801000", "195623.804000", "195623.806000", "195623.809000", "195623.811000", "195623.814000", "195623.816000", "195623.818000", "195623.821000", "195623.823000", "195623.826000", "195623.828000", "195623.831000", "195623.833000", "195643.787000", "195643.790000", "195643.793000", "195643.795000", "195643.798000", "195643.800000", "195643.803000", "195643.805000", "195643.808000", "195643.810000", "195643.812000", "195643.815000", "195643.817000", "195643.820000", "195643.822000", "195643.825000", "195643.827000", "195643.830000", "195643.832000", "195643.835000", "195703.787000", "195703.790000", "195703.793000", "195703.795000", "195703.798000", "195703.800000", "195703.809000", "195703.812000", "195703.814000", "195703.816000", "195703.819000", "195703.821000", "195703.824000", "195703.827000", "195703.829000", "195703.832000", "195703.834000", "195703.836000", "195703.839000", "195703.841000", "195723.787000", "195723.790000", "195723.793000", "195723.795000", "195723.798000", "195723.800000", "195723.803000", "195723.805000", "195723.808000", "195723.810000", "195723.813000", "195723.815000", "195723.817000", "195723.820000", "195723.822000", "195723.825000", "195723.827000", "195723.830000", "195723.832000", "195723.835000", "195743.787000", "195743.790000", "195743.793000", "195743.795000", "195743.798000", "195743.800000", "195743.802000", "195743.805000", "195743.807000", "195743.810000", "195743.812000", "195743.815000", "195743.830000", "195743.833000", "195743.835000", "195743.838000", "195743.840000", "195743.842000", "195743.845000", "195743.847000", "195803.788000", "195803.790000", "195803.793000", "195803.795000", "195803.798000", "195803.800000", "195803.803000", "195803.805000", "195803.807000", "195803.810000", "195803.812000", "195803.815000", "195803.817000", "195803.820000", "195803.822000", "195803.825000", "195803.827000", "195803.830000", "195803.832000", "195803.835000", "195823.788000", "195823.790000", "195823.793000", "195823.795000", "195823.798000", "195823.800000", "195823.803000", "195823.805000", "195823.808000", "195823.810000", "195823.813000", "195823.815000", "195823.818000", "195823.820000", "195823.823000", "195823.825000", "195823.828000", "195823.830000", "195823.833000", "195823.835000", "195843.786000", "195843.789000", "195843.792000", "195843.794000", "195843.797000", "195843.799000", "195843.802000", "195843.804000", "195843.807000", "195843.809000", "195843.812000", "195843.814000", "195843.817000", "195843.819000", "195843.833000", "195843.835000", "195843.838000", "195843.840000", "195843.843000", "195843.845000", "195903.788000", "195903.790000", "195903.793000", "195903.795000", "195903.798000", "195903.800000", "195903.803000", "195903.805000", "195903.808000", "195903.810000", "195903.813000", "195903.815000", "195903.818000", "195903.820000", "195903.823000", "195903.825000", "195903.828000", "195903.836000", "195903.839000", "195903.841000", "195905.048000", "195905.050000"],
      "InstanceCreationTime": ["195343.820000", "195343.823000", "195343.825000", "195343.828000", "195343.830000", "195343.833000", "195343.835000", "195343.844000", "195343.846000", "195343.848000", "195343.851000", "195343.853000", "195343.856000", "195343.858000", "195343.861000", "195343.863000", "195343.866000", "195343.868000", "195343.871000", "195343.873000", "195343.875000", "195343.878000", "195343.880000", "195343.883000", "195343.886000", "195343.888000", "195343.890000", "195343.893000", "195343.895000", "195343.898000", "195343.900000", "195343.903000", "195343.905000", "195343.908000", "195403.786000", "195403.789000", "195403.792000", "195403.794000", "195403.796000", "195403.799000", "195403.801000", "195403.804000", "195403.806000", "195403.809000", "195403.811000", "195403.814000", "195403.816000", "195403.819000", "195403.821000", "195403.830000", "195403.833000", "195403.835000", "195403.838000", "195403.840000", "195423.787000", "195423.789000", "195423.792000", "195423.794000", "195423.797000", "195423.799000", "195423.802000", "195423.804000", "195423.806000", "195423.809000", "195423.811000", "195423.814000", "195423.816000", "195423.819000", "195423.821000", "195423.824000", "195423.826000", "195423.829000", "195423.831000", "195423.834000", "195443.787000", "195443.790000", "195443.792000", "195443.795000", "195443.797000", "195443.800000", "195443.802000", "195443.805000", "195443.807000", "195443.810000", "195443.812000", "195443.825000", "195443.828000", "195443.830000", "195443.833000", "195443.835000", "195443.837000", "195443.840000", "195443.842000", "195443.845000", "195503.787000", "195503.790000", "195503.793000", "195503.795000", "195503.798000", "195503.800000", "195503.803000", "195503.805000", "195503.818000", "195503.821000", "195503.823000", "195503.826000", "195503.828000", "195503.831000", "195503.846000", "195503.849000", "195503.851000", "195503.854000", "195503.856000", "195503.859000", "195523.787000", "195523.790000", "195523.793000", "195523.795000", "195523.798000", "195523.800000", "195523.803000", "195523.805000", "195523.808000", "195523.810000", "195523.813000", "195523.815000", "195523.818000", "195523.820000", "195523.823000", "195523.825000", "195523.827000", "195523.830000", "195523.833000", "195523.835000", "195543.787000", "195543.790000", "195543.792000", "195543.795000", "195543.797000", "195543.800000", "195543.802000", "195543.805000", "195543.807000", "195543.810000", "195543.812000", "195543.815000", "195543.817000", "195543.820000", "195543.822000", "195543.825000", "195543.827000", "195543.830000", "195543.832000", "195543.834000", "195603.787000", "195603.790000", "195603.793000", "195603.795000", "195603.797000", "195603.800000", "195603.802000", "195603.805000", "195603.807000", "195603.810000", "195603.812000", "195603.814000", "195603.817000", "195603.819000", "195603.822000", "195603.825000", "195603.827000", "195603.830000", "195603.832000", "195603.835000", "195623.786000", "195623.789000", "195623.792000", "195623.794000", "195623.796000", "195623.799000", "195623.801000", "195623.804000", "195623.806000", "195623.809000", "195623.811000", "195623.814000", "195623.816000", "195623.818000", "195623.821000", "195623.823000", "195623.826000", "195623.828000", "195623.831000", "195623.833000", "195643.787000", "195643.790000", "195643.793000", "195643.795000", "195643.798000", "195643.800000", "195643.803000", "195643.805000", "195643.808000", "195643.810000", "195643.812000", "195643.815000", "195643.817000", "195643.820000", "195643.822000", "195643.825000", "195643.827000", "195643.830000", "195643.832000", "195643.835000", "195703.787000", "195703.790000", "195703.793000", "195703.795000", "195703.798000", "195703.800000", "195703.809000", "195703.812000", "195703.814000", "195703.816000", "195703.819000", "195703.821000", "195703.824000", "195703.827000", "195703.829000", "195703.832000", "195703.834000", "195703.836000", "195703.839000", "195703.841000", "195723.787000", "195723.790000", "195723.793000", "195723.795000", "195723.798000", "195723.800000", "195723.803000", "195723.805000", "195723.808000", "195723.810000", "195723.813000", "195723.815000", "195723.817000", "195723.820000", "195723.822000", "195723.825000", "195723.827000", "195723.830000", "195723.832000", "195723.835000", "195743.787000", "195743.790000", "195743.793000", "195743.795000", "195743.798000", "195743.800000", "195743.802000", "195743.805000", "195743.807000", "195743.810000", "195743.812000", "195743.815000", "195743.830000", "195743.833000", "195743.835000", "195743.838000", "195743.840000", "195743.842000", "195743.845000", "195743.847000", "195803.788000", "195803.790000", "195803.793000", "195803.795000", "195803.798000", "195803.800000", "195803.803000", "195803.805000", "195803.807000", "195803.810000", "195803.812000", "195803.815000", "195803.817000", "195803.820000", "195803.822000", "195803.825000", "195803.827000", "195803.830000", "195803.832000", "195803.835000", "195823.788000", "195823.790000", "195823.793000", "195823.795000", "195823.798000", "195823.800000", "195823.803000", "195823.805000", "195823.808000", "195823.810000", "195823.813000", "195823.815000", "195823.818000", "195823.820000", "195823.823000", "195823.825000", "195823.828000", "195823.830000", "195823.833000", "195823.835000", "195843.786000", "195843.789000", "195843.792000", "195843.794000", "195843.797000", "195843.799000", "195843.802000", "195843.804000", "195843.807000", "195843.809000", "195843.812000", "195843.814000", "195843.817000", "195843.819000", "195843.833000", "195843.835000", "195843.838000", "195843.840000", "195843.843000", "195843.845000", "195903.788000", "195903.790000", "195903.793000", "195903.795000", "195903.798000", "195903.800000", "195903.803000", "195903.805000", "195903.808000", "195903.810000", "195903.813000", "195903.815000", "195903.818000", "195903.820000", "195903.823000", "195903.825000", "195903.828000", "195903.836000", "195903.839000", "195903.841000", "195905.048000", "195905.050000"],
      "InstanceNumber": [1, 2, 3, 4, 5, 6, 7, 8, 9, 10, 11, 12, 13, 14, 15, 16, 17, 18, 19, 20, 21, 22, 23, 24, 25, 26, 27, 28, 29, 30, 31, 32, 33, 34, 35, 36, 37, 38, 39, 40, 41, 42, 43, 44, 45, 46, 47, 48, 49, 50, 51, 52, 53, 54, 55, 56, 57, 58, 59, 60, 61, 62, 63, 64, 65, 66, 67, 68, 69, 70, 71, 72, 73, 74, 75, 76, 77, 78, 79, 80, 81, 82, 83, 84, 85, 86, 87, 88, 89, 90, 91, 92, 93, 94, 95, 96, 97, 98, 99, 100, 101, 102, 103, 104, 105, 106, 107, 108, 109, 110, 111, 112, 113, 114, 115, 116, 117, 118, 119, 120, 121, 122, 123, 124, 125, 126, 127, 128, 129, 130, 131, 132, 133, 134, 135, 136, 137, 138, 139, 140, 141, 142, 143, 144, 145, 146, 147, 148, 149, 150, 151, 152, 153, 154, 155, 156, 157, 158, 159, 160, 161, 162, 163, 164, 165, 166, 167, 168, 169, 170, 171, 172, 173, 174, 175, 176, 177, 178, 179, 180, 181, 182, 183, 184, 185, 186, 187, 188, 189, 190, 191, 192, 193, 194, 195, 196, 197, 198, 199, 200, 201, 202, 203, 204, 205, 206, 207, 208, 209, 210, 211, 212, 213, 214, 215, 216, 217, 218, 219, 220, 221, 222, 223, 224, 225, 226, 227, 228, 229, 230, 231, 232, 233, 234, 235, 236, 237, 238, 239, 240, 241, 242, 243, 244, 245, 246, 247, 248, 249, 250, 251, 252, 253, 254, 255, 256, 257, 258, 259, 260, 261, 262, 263, 264, 265, 266, 267, 268, 269, 270, 271, 272, 273, 274, 275, 276, 277, 278, 279, 280, 281, 282, 283, 284, 285, 286, 287, 288, 289, 290, 291, 292, 293, 294, 295, 296, 297, 298, 299, 300, 301, 302, 303, 304, 305, 306, 307, 308, 309, 310, 311, 312, 313, 314, 315, 316, 317, 318, 319, 320, 321, 322, 323, 324, 325, 326, 327, 328, 329, 330, 331, 332, 333, 334, 335, 336, 337, 338, 339, 340, 341, 342, 343, 344, 345, 346, 347, 348, 349, 350, 351, 352, 353, 354, 355, 356],
      "LargestImagePixelValue": [15853, 15429, 15131, 15040, 15005, 14923, 14781, 14922, 14964, 14996, 15021, 14914, 14881, 14955, 14944, 14941, 15020, 14927, 14931, 14988, 15007, 14957, 14909, 14892, 14819, 14934, 15119, 15021, 15065, 15206, 15028, 15040, 15018, 14995, 14849, 14841, 15010, 14923, 14880, 14963, 15063, 15109, 15147, 15023, 15078, 15158, 15013, 15065, 14940, 14970, 15035, 14851, 14823, 14772, 15049, 14890, 15062, 14991, 15112, 14944, 15068, 15062, 15174, 15049, 15194, 15017, 14994, 14840, 14896, 14991, 15083, 15090, 15088, 15285, 15212, 15056, 15066, 15055, 15046, 15208, 14843, 14947, 15006, 14969, 14911, 15065, 15115, 15088, 15152, 15092, 15147, 14955, 15191, 15070, 15109, 15206, 15223, 15292, 15259, 15228, 15383, 15262, 15038, 14790, 14897, 14831, 15033, 14898, 14849, 14965, 14966, 14868, 14888, 14885, 14942, 14935, 14897, 15055, 15049, 15138, 15159, 15032, 14968, 15009, 15080, 15291, 15139, 15304, 15301, 15215, 15277, 15167, 15070, 15092, 15121, 15202, 15152, 15251, 15192, 15016, 15140, 15194, 15195, 15276, 15127, 15043, 15107, 15150, 15210, 15164, 15144, 15061, 15021, 15139, 15255, 15205, 15132, 15245, 15275, 15299, 15228, 15220, 15180, 14862, 14867, 15064, 15029, 15138, 15122, 15227, 15274, 15178, 15178, 15152, 15048, 14894, 14951, 15014, 14983, 15027, 15182, 14945, 15219, 15232, 15000, 15043, 15025, 14964, 14978, 14904, 14960, 15045, 15161, 15166, 15316, 15310, 15225, 15339, 15343, 15262, 15185, 15271, 15200, 15318, 15159, 14999, 15152, 14968, 15127, 15376, 14995, 15021, 14945, 14966, 14971, 15002, 15040, 15041, 15102, 15129, 15326, 15144, 15013, 15263, 15247, 15208, 15240, 15217, 15138, 15344, 15366, 15286, 15235, 15170, 15140, 15134, 15330, 15156, 15212, 15315, 15229, 15297, 15333, 15322, 15226, 15299, 15267, 15250, 15454, 15535, 15386, 15361, 15396, 15306, 15538, 15251, 15349, 15226, 15325, 15293, 15400, 15341, 15338, 15353, 15383, 15325, 15273, 15316, 15277, 15049, 15061, 15166, 15085, 15075, 15171, 15223, 15314, 15254, 15284, 15297, 15324, 15166, 15173, 15308, 15221, 15120, 15188, 15156, 15238, 15238, 15106, 15042, 14969, 15088, 15200, 15221, 15116, 15201, 15011, 15133, 15262, 15204, 15047, 14974, 15022, 15054, 15019, 15007, 14988, 15045, 15086, 15138, 15041, 15127, 15169, 15025, 15344, 15413, 15291, 15249, 15385, 15268, 15206, 15289, 15358, 15149, 15342, 15258, 15311, 15125, 15082, 14900, 15169, 15071, 15117, 15010, 15115, 15064, 14998, 15123, 14932, 15054, 15018, 14993, 14943, 14892, 14994, 14891, 14922, 15009, 15019, 14979, 15136, 15053, 15028, 14994],
