{
  "AcquisitionMatrixPE": 106,
  "AcquisitionNumber": 1,
  "AcquisitionTime": "18:35:42.112500",
  "BandwidthPerPixelPhaseEncode": 16.846,
  "BaseResolution": 106,
  "BodyPartExamined": "BRAIN",
  "CoilCombinationMethod": "Sum of Squares",
  "ConsistencyInfo": "N4_VE11C_LATEST_20160120",
  "ConversionSoftware": "dcm2niix",
  "ConversionSoftwareVersion": "v1.0.20220720",
  "DerivedVendorReportedEchoSpacing": 0.000560012,
  "DeviceSerialNumber": "166108",
  "DwellTime": 1.8e-06,
  "EchoTime": 0.0352,
  "EchoTrainLength": 106,
  "EffectiveEchoSpacing": 0.000560012,
  "FlipAngle": 60,
  "HeudiconvVersion": "1.3.0",
  "ImageComments": "Unaliased MB4/PE3/LB",
  "ImageOrientationPatientDICOM": [1, 0, 0, 0, 1, 0],
  "ImageOrientationText": "Tra",
  "ImageType": [
    "ORIGINAL",
    "PRIMARY",
    "M",
    "MB",
    "ND",
    "MOSAIC"
],
  "ImagingFrequency": 123.244,
  "InPlanePhaseEncodingDirectionDICOM": "COL",
  "InstitutionAddress": "Bedford Way 26,London,London,GB,WC1H 0AP",
  "InstitutionName": "University College",
  "InstitutionalDepartmentName": "Department",
  "MRAcquisitionType": "2D",
  "MagneticFieldStrength": 3,
  "Manufacturer": "Siemens",
  "ManufacturersModelName": "Prisma",
  "MatrixCoilMode": "SENSE",
  "Modality": "MR",
  "MultibandAccelerationFactor": 4,
  "NonlinearGradientCorrection": false,
  "PartialFourier": 1,
  "PatientPosition": "HFS",
  "PercentPhaseFOV": 100,
  "PercentSampling": 100,
  "PhaseEncodingDirection": "j-",
  "PhaseEncodingSteps": 106,
  "PhaseResolution": 1,
  "PixelBandwidth": 2620,
  "ProcedureStepDescription": "Egor^MovieProject2",
  "ProtocolName": "task-backtothefuture_run-2",
  "PulseSequenceDetails": "%CustomerSeq%\\cmrr_mbep2d_bold",
  "ReceiveCoilActiveElements": "HEA;HEP",
  "ReceiveCoilName": "Head_32",
  "ReconMatrixPE": 106,
  "RepetitionTime": 1.5,
  "SAR": 0.0784576,
  "ScanOptions": "FS\\EXT",
  "ScanningSequence": "EP",
  "SequenceName": "epfid2d1_106",
  "SequenceVariant": "SK\\SS",
  "SeriesDescription": "task-backtothefuture_run-2",
  "SeriesNumber": 7,
  "ShimSetting": [-1541, 579, 7456, 506, -61, 267, 210, -51],
  "SliceThickness": 2,
  "SliceTiming": [0, 1.07, 0.6575, 0.2475, 1.315, 0.905, 0.4925, 0.0825, 1.1525, 0.74, 0.33, 1.3975, 0.9875, 0.575, 0.165, 1.2325, 0.8225, 0.4125, 0, 1.07, 0.6575, 0.2475, 1.315, 0.905, 0.4925, 0.0825, 1.1525, 0.74, 0.33, 1.3975, 0.9875, 0.575, 0.165, 1.2325, 0.8225, 0.4125, 0, 1.07, 0.6575, 0.2475, 1.315, 0.905, 0.4925, 0.0825, 1.1525, 0.74, 0.33, 1.3975, 0.9875, 0.575, 0.165, 1.2325, 0.8225, 0.4125, 0, 1.07, 0.6575, 0.2475, 1.315, 0.905, 0.4925, 0.0825, 1.1525, 0.74, 0.33, 1.3975, 0.9875, 0.575, 0.165, 1.2325, 0.8225, 0.4125],
  "SoftwareVersions": "syngo MR E11",
  "SpacingBetweenSlices": 2,
  "StationName": "AWP166108",
  "TaskName": "backtothefuture",
  "TotalReadoutTime": 0.0588013,
  "TxRefAmp": 235.117,
  "WipMemBlock": "3e9a2e61-5b3f-4612-8a5a-89b9fda62852||Sequence: R016 ve11c/master r/e634e98; Dec 19 2017 11:00:25 by eja",
  "dcmmeta_affine": [
    [-2.0, 0.0, 0.0, 106.0],
    [0.0, 2.0, 0.0, -90.74698638916016],
    [0.0, 0.0, 2.0, -54.132530212402344],
    [0.0, 0.0, 0.0, 1.0]
],
  "dcmmeta_reorient_transform": [
    [0.0, -1.0, 0.0, 105.0],
    [1.0, 0.0, 0.0, 0.0],
    [0.0, 0.0, 1.0, 0.0],
    [0.0, 0.0, 0.0, 1.0]
],
  "dcmmeta_shape": [106, 106, 72, 1522],
  "dcmmeta_slice_dim": 2,
  "dcmmeta_version": 0.6,
  "global": {
    "const": {
      "AcquisitionMatrix": [106, 0, 0, 106],
      "AngioFlag": "N",
      "BitsAllocated": 16,
      "BitsStored": 16,
      "BodyPartExamined": "BRAIN",
      "CardiacNumberOfImages": 1,
      "Columns": 954,
      "EchoNumbers": 1,
      "EchoTime": 35.2,
      "EchoTrainLength": 106,
      "FlipAngle": 60.0,
      "HighBit": 15,
      "ImageOrientationPatient": [1.0, 0.0, 0.0, 0.0, 1.0, 0.0],
      "ImagePositionPatient": [-954.0, -967.25301170349, -54.132530212402],
      "ImageType": [
        "ORIGINAL",
        "PRIMARY",
        "M",
        "MB",
        "ND",
        "MOSAIC"
],
      "ImagedNucleus": "1H",
      "ImagingFrequency": 123.243658,
      "InPlanePhaseEncodingDirection": "COL",
      "MRAcquisitionType": "2D",
      "MagneticFieldStrength": 3.0,
      "Manufacturer": "SIEMENS",
      "ManufacturerModelName": "Prisma",
      "Modality": "MR",
      "NominalInterval": 0,
      "NumberOfAverages": 1.0,
      "NumberOfPhaseEncodingSteps": 106,
      "PercentPhaseFieldOfView": 100.0,
      "PercentSampling": 100.0,
      "PerformedProcedureStepStartTime": "172639.085000",
      "PhotometricInterpretation": "MONOCHROME2",
      "PixelBandwidth": 2620.0,
      "PixelRepresentation": 0,
      "PixelSpacing": [2.0, 2.0],
      "ProtocolName": "task-backtothefuture_run-2",
      "RepetitionTime": 1500.0,
      "Rows": 954,
      "SAR": 0.07845762228587,
      "SamplesPerPixel": 1,
      "ScanOptions": [
        "FS",
        "EXT"
],
      "ScanningSequence": "EP",
      "SequenceName": "epfid2d1_106",
      "SequenceVariant": [
        "SK",
        "SS"
],
      "SeriesDescription": "task-backtothefuture_run-2",
      "SeriesNumber": 7,
      "SeriesTime": "183627.804000",
      "SliceLocation": -54.132530212402,
      "SliceThickness": 2.0,
      "SmallestImagePixelValue": 0,
      "SoftwareVersions": "syngo MR E11",
      "SpacingBetweenSlices": 2.0,
      "SpecificCharacterSet": "ISO_IR 100",
      "StudyID": "1",
      "StudyTime": "172638.972000",
      "TransmitCoilName": "Body",
      "VariableFlipAngleFlag": "N",
      "WindowCenterWidthExplanation": "Algo1",
      "dBdt": 0.0},
    "slices": {}
  },
  "time": {
    "samples": {
      "AcquisitionNumber": [1, 2, 3, 4, 5, 6, 7, 8, 9, 10, 11, 12, 13, 14, 15, 16, 17, 18, 19, 20, 21, 22, 23, 24, 25, 26, 27, 28, 29, 30, 31, 32, 33, 34, 35, 36, 37, 38, 39, 40, 41, 42, 43, 44, 45, 46, 47, 48, 49, 50, 51, 52, 53, 54, 55, 56, 57, 58, 59, 60, 61, 62, 63, 64, 65, 66, 67, 68, 69, 70, 71, 72, 73, 74, 75, 76, 77, 78, 79, 80, 81, 82, 83, 84, 85, 86, 87, 88, 89, 90, 91, 92, 93, 94, 95, 96, 97, 98, 99, 100, 101, 102, 103, 104, 105, 106, 107, 108, 109, 110, 111, 112, 113, 114, 115, 116, 117, 118, 119, 120, 121, 122, 123, 124, 125, 126, 127, 128, 129, 130, 131, 132, 133, 134, 135, 136, 137, 138, 139, 140, 141, 142, 143, 144, 145, 146, 147, 148, 149, 150, 151, 152, 153, 154, 155, 156, 157, 158, 159, 160, 161, 162, 163, 164, 165, 166, 167, 168, 169, 170, 171, 172, 173, 174, 175, 176, 177, 178, 179, 180, 181, 182, 183, 184, 185, 186, 187, 188, 189, 190, 191, 192, 193, 194, 195, 196, 197, 198, 199, 200, 201, 202, 203, 204, 205, 206, 207, 208, 209, 210, 211, 212, 213, 214, 215, 216, 217, 218, 219, 220, 221, 222, 223, 224, 225, 226, 227, 228, 229, 230, 231, 232, 233, 234, 235, 236, 237, 238, 239, 240, 241, 242, 243, 244, 245, 246, 247, 248, 249, 250, 251, 252, 253, 254, 255, 256, 257, 258, 259, 260, 261, 262, 263, 264, 265, 266, 267, 268, 269, 270, 271, 272, 273, 274, 275, 276, 277, 278, 279, 280, 281, 282, 283, 284, 285, 286, 287, 288, 289, 290, 291, 292, 293, 294, 295, 296, 297, 298, 299, 300, 301, 302, 303, 304, 305, 306, 307, 308, 309, 310, 311, 312, 313, 314, 315, 316, 317, 318, 319, 320, 321, 322, 323, 324, 325, 326, 327, 328, 329, 330, 331, 332, 333, 334, 335, 336, 337, 338, 339, 340, 341, 342, 343, 344, 345, 346, 347, 348, 349, 350, 351, 352, 353, 354, 355, 356, 357, 358, 359, 360, 361, 362, 363, 364, 365, 366, 367, 368, 369, 370, 371, 372, 373, 374, 375, 376, 377, 378, 379, 380, 381, 382, 383, 384, 385, 386, 387, 388, 389, 390, 391, 392, 393, 394, 395, 396, 397, 398, 399, 400, 401, 402, 403, 404, 405, 406, 407, 408, 409, 410, 411, 412, 413, 414, 415, 416, 417, 418, 419, 420, 421, 422, 423, 424, 425, 426, 427, 428, 429, 430, 431, 432, 433, 434, 435, 436, 437, 438, 439, 440, 441, 442, 443, 444, 445, 446, 447, 448, 449, 450, 451, 452, 453, 454, 455, 456, 457, 458, 459, 460, 461, 462, 463, 464, 465, 466, 467, 468, 469, 470, 471, 472, 473, 474, 475, 476, 477, 478, 479, 480, 481, 482, 483, 484, 485, 486, 487, 488, 489, 490, 491, 492, 493, 494, 495, 496, 497, 498, 499, 500, 501, 502, 503, 504, 505, 506, 507, 508, 509, 510, 511, 512, 513, 514, 515, 516, 517, 518, 519, 520, 521, 522, 523, 524, 525, 526, 527, 528, 529, 530, 531, 532, 533, 534, 535, 536, 537, 538, 539, 540, 541, 542, 543, 544, 545, 546, 547, 548, 549, 550, 551, 552, 553, 554, 555, 556, 557, 558, 559, 560, 561, 562, 563, 564, 565, 566, 567, 568, 569, 570, 571, 572, 573, 574, 575, 576, 577, 578, 579, 580, 581, 582, 583, 584, 585, 586, 587, 588, 589, 590, 591, 592, 593, 594, 595, 596, 597, 598, 599, 600, 601, 602, 603, 604, 605, 606, 607, 608, 609, 610, 611, 612, 613, 614, 615, 616, 617, 618, 619, 620, 621, 622, 623, 624, 625, 626, 627, 628, 629, 630, 631, 632, 633, 634, 635, 636, 637, 638, 639, 640, 641, 642, 643, 644, 645, 646, 647, 648, 649, 650, 651, 652, 653, 654, 655, 656, 657, 658, 659, 660, 661, 662, 663, 664, 665, 666, 667, 668, 669, 670, 671, 672, 673, 674, 675, 676, 677, 678, 679, 680, 681, 682, 683, 684, 685, 686, 687, 688, 689, 690, 691, 692, 693, 694, 695, 696, 697, 698, 699, 700, 701, 702, 703, 704, 705, 706, 707, 708, 709, 710, 711, 712, 713, 714, 715, 716, 717, 718, 719, 720, 721, 722, 723, 724, 725, 726, 727, 728, 729, 730, 731, 732, 733, 734, 735, 736, 737, 738, 739, 740, 741, 742, 743, 744, 745, 746, 747, 748, 749, 750, 751, 752, 753, 754, 755, 756, 757, 758, 759, 760, 761, 762, 763, 764, 765, 766, 767, 768, 769, 770, 771, 772, 773, 774, 775, 776, 777, 778, 779, 780, 781, 782, 783, 784, 785, 786, 787, 788, 789, 790, 791, 792, 793, 794, 795, 796, 797, 798, 799, 800, 801, 802, 803, 804, 805, 806, 807, 808, 809, 810, 811, 812, 813, 814, 815, 816, 817, 818, 819, 820, 821, 822, 823, 824, 825, 826, 827, 828, 829, 830, 831, 832, 833, 834, 835, 836, 837, 838, 839, 840, 841, 842, 843, 844, 845, 846, 847, 848, 849, 850, 851, 852, 853, 854, 855, 856, 857, 858, 859, 860, 861, 862, 863, 864, 865, 866, 867, 868, 869, 870, 871, 872, 873, 874, 875, 876, 877, 878, 879, 880, 881, 882, 883, 884, 885, 886, 887, 888, 889, 890, 891, 892, 893, 894, 895, 896, 897, 898, 899, 900, 901, 902, 903, 904, 905, 906, 907, 908, 909, 910, 911, 912, 913, 914, 915, 916, 917, 918, 919, 920, 921, 922, 923, 924, 925, 926, 927, 928, 929, 930, 931, 932, 933, 934, 935, 936, 937, 938, 939, 940, 941, 942, 943, 944, 945, 946, 947, 948, 949, 950, 951, 952, 953, 954, 955, 956, 957, 958, 959, 960, 961, 962, 963, 964, 965, 966, 967, 968, 969, 970, 971, 972, 973, 974, 975, 976, 977, 978, 979, 980, 981, 982, 983, 984, 985, 986, 987, 988, 989, 990, 991, 992, 993, 994, 995, 996, 997, 998, 999, 1000, 1001, 1002, 1003, 1004, 1005, 1006, 1007, 1008, 1009, 1010, 1011, 1012, 1013, 1014, 1015, 1016, 1017, 1018, 1019, 1020, 1021, 1022, 1023, 1024, 1025, 1026, 1027, 1028, 1029, 1030, 1031, 1032, 1033, 1034, 1035, 1036, 1037, 1038, 1039, 1040, 1041, 1042, 1043, 1044, 1045, 1046, 1047, 1048, 1049, 1050, 1051, 1052, 1053, 1054, 1055, 1056, 1057, 1058, 1059, 1060, 1061, 1062, 1063, 1064, 1065, 1066, 1067, 1068, 1069, 1070, 1071, 1072, 1073, 1074, 1075, 1076, 1077, 1078, 1079, 1080, 1081, 1082, 1083, 1084, 1085, 1086, 1087, 1088, 1089, 1090, 1091, 1092, 1093, 1094, 1095, 1096, 1097, 1098, 1099, 1100, 1101, 1102, 1103, 1104, 1105, 1106, 1107, 1108, 1109, 1110, 1111, 1112, 1113, 1114, 1115, 1116, 1117, 1118, 1119, 1120, 1121, 1122, 1123, 1124, 1125, 1126, 1127, 1128, 1129, 1130, 1131, 1132, 1133, 1134, 1135, 1136, 1137, 1138, 1139, 1140, 1141, 1142, 1143, 1144, 1145, 1146, 1147, 1148, 1149, 1150, 1151, 1152, 1153, 1154, 1155, 1156, 1157, 1158, 1159, 1160, 1161, 1162, 1163, 1164, 1165, 1166, 1167, 1168, 1169, 1170, 1171, 1172, 1173, 1174, 1175, 1176, 1177, 1178, 1179, 1180, 1181, 1182, 1183, 1184, 1185, 1186, 1187, 1188, 1189, 1190, 1191, 1192, 1193, 1194, 1195, 1196, 1197, 1198, 1199, 1200, 1201, 1202, 1203, 1204, 1205, 1206, 1207, 1208, 1209, 1210, 1211, 1212, 1213, 1214, 1215, 1216, 1217, 1218, 1219, 1220, 1221, 1222, 1223, 1224, 1225, 1226, 1227, 1228, 1229, 1230, 1231, 1232, 1233, 1234, 1235, 1236, 1237, 1238, 1239, 1240, 1241, 1242, 1243, 1244, 1245, 1246, 1247, 1248, 1249, 1250, 1251, 1252, 1253, 1254, 1255, 1256, 1257, 1258, 1259, 1260, 1261, 1262, 1263, 1264, 1265, 1266, 1267, 1268, 1269, 1270, 1271, 1272, 1273, 1274, 1275, 1276, 1277, 1278, 1279, 1280, 1281, 1282, 1283, 1284, 1285, 1286, 1287, 1288, 1289, 1290, 1291, 1292, 1293, 1294, 1295, 1296, 1297, 1298, 1299, 1300, 1301, 1302, 1303, 1304, 1305, 1306, 1307, 1308, 1309, 1310, 1311, 1312, 1313, 1314, 1315, 1316, 1317, 1318, 1319, 1320, 1321, 1322, 1323, 1324, 1325, 1326, 1327, 1328, 1329, 1330, 1331, 1332, 1333, 1334, 1335, 1336, 1337, 1338, 1339, 1340, 1341, 1342, 1343, 1344, 1345, 1346, 1347, 1348, 1349, 1350, 1351, 1352, 1353, 1354, 1355, 1356, 1357, 1358, 1359, 1360, 1361, 1362, 1363, 1364, 1365, 1366, 1367, 1368, 1369, 1370, 1371, 1372, 1373, 1374, 1375, 1376, 1377, 1378, 1379, 1380, 1381, 1382, 1383, 1384, 1385, 1386, 1387, 1388, 1389, 1390, 1391, 1392, 1393, 1394, 1395, 1396, 1397, 1398, 1399, 1400, 1401, 1402, 1403, 1404, 1405, 1406, 1407, 1408, 1409, 1410, 1411, 1412, 1413, 1414, 1415, 1416, 1417, 1418, 1419, 1420, 1421, 1422, 1423, 1424, 1425, 1426, 1427, 1428, 1429, 1430, 1431, 1432, 1433, 1434, 1435, 1436, 1437, 1438, 1439, 1440, 1441, 1442, 1443, 1444, 1445, 1446, 1447, 1448, 1449, 1450, 1451, 1452, 1453, 1454, 1455, 1456, 1457, 1458, 1459, 1460, 1461, 1462, 1463, 1464, 1465, 1466, 1467, 1468, 1469, 1470, 1471, 1472, 1473, 1474, 1475, 1476, 1477, 1478, 1479, 1480, 1481, 1482, 1483, 1484, 1485, 1486, 1487, 1488, 1489, 1490, 1491, 1492, 1493, 1494, 1495, 1496, 1497, 1498, 1499, 1500, 1501, 1502, 1503, 1504, 1505, 1506, 1507, 1508, 1509, 1510, 1511, 1512, 1513, 1514, 1515, 1516, 1517, 1518, 1519, 1520, 1521, 1522],
      "AcquisitionTime": ["183542.112500", "183543.612500", "183545.112500", "183546.612500", "183548.112500", "183549.612500", "183551.112500", "183552.612500", "183554.112500", "183555.612500", "183557.112500", "183558.612500", "183600.112500", "183601.612500", "183603.112500", "183604.612500", "183606.112500", "183607.612500", "183609.112500", "183610.612500", "183612.112500", "183613.612500", "183615.112500", "183616.612500", "183618.112500", "183619.612500", "183621.112500", "183622.612500", "183624.112500", "183625.612500", "183627.112500", "183628.612500", "183630.112500", "183631.612500", "183633.112500", "183634.612500", "183636.112500", "183637.612500", "183639.112500", "183640.612500", "183642.112500", "183643.612500", "183645.112500", "183646.612500", "183648.112500", "183649.612500", "183651.112500", "183652.612500", "183654.112500", "183655.612500", "183657.112500", "183658.612500", "183700.112500", "183701.612500", "183703.112500", "183704.612500", "183706.112500", "183707.612500", "183709.112500", "183710.612500", "183712.112500", "183713.612500", "183715.112500", "183716.612500", "183718.112500", "183719.612500", "183721.112500", "183722.612500", "183724.112500", "183725.612500", "183727.112500", "183728.612500", "183730.112500", "183731.612500", "183733.112500", "183734.612500", "183736.112500", "183737.612500", "183739.112500", "183740.612500", "183742.112500", "183743.612500", "183745.112500", "183746.612500", "183748.112500", "183749.612500", "183751.112500", "183752.612500", "183754.112500", "183755.612500", "183757.112500", "183758.612500", "183800.112500", "183801.612500", "183803.112500", "183804.612500", "183806.112500", "183807.612500", "183809.112500", "183810.612500", "183812.112500", "183813.612500", "183815.112500", "183816.612500", "183818.112500", "183819.612500", "183821.112500", "183822.612500", "183824.112500", "183825.612500", "183827.112500", "183828.612500", "183830.112500", "183831.612500", "183833.112500", "183834.612500", "183836.112500", "183837.612500", "183839.112500", "183840.612500", "183842.112500", "183843.612500", "183845.112500", "183846.612500", "183848.112500", "183849.612500", "183851.112500", "183852.612500", "183854.112500", "183855.612500", "183857.112500", "183858.612500", "183900.112500", "183901.612500", "183903.112500", "183904.612500", "183906.112500", "183907.612500", "183909.112500", "183910.612500", "183912.112500", "183913.612500", "183915.112500", "183916.612500", "183918.112500", "183919.612500", "183921.112500", "183922.612500", "183924.112500", "183925.612500", "183927.112500", "183928.612500", "183930.112500", "183931.612500", "183933.112500", "183934.612500", "183936.112500", "183937.612500", "183939.112500", "183940.612500", "183942.112500", "183943.612500", "183945.112500", "183946.612500", "183948.112500", "183949.612500", "183951.112500", "183952.612500", "183954.112500", "183955.612500", "183957.112500", "183958.612500", "184000.112500", "184001.612500", "184003.112500", "184004.612500", "184006.112500", "184007.612500", "184009.112500", "184010.612500", "184012.112500", "184013.612500", "184015.112500", "184016.612500", "184018.112500", "184019.612500", "184021.112500", "184022.612500", "184024.112500", "184025.612500", "184027.112500", "184028.612500", "184030.112500", "184031.612500", "184033.112500", "184034.612500", "184036.112500", "184037.612500", "184039.112500", "184040.612500", "184042.112500", "184043.612500", "184045.112500", "184046.612500", "184048.112500", "184049.612500", "184051.112500", "184052.612500", "184054.112500", "184055.612500", "184057.112500", "184058.612500", "184100.112500", "184101.612500", "184103.112500", "184104.612500", "184106.112500", "184107.612500", "184109.112500", "184110.612500", "184112.112500", "184113.612500", "184115.112500", "184116.612500", "184118.112500", "184119.612500", "184121.112500", "184122.612500", "184124.112500", "184125.612500", "184127.112500", "184128.612500", "184130.112500", "184131.612500", "184133.112500", "184134.612500", "184136.112500", "184137.612500", "184139.112500", "184140.612500", "184142.112500", "184143.612500", "184145.112500", "184146.612500", "184148.112500", "184149.612500", "184151.112500", "184152.612500", "184154.112500", "184155.612500", "184157.112500", "184158.612500", "184200.112500", "184201.612500", "184203.112500", "184204.612500", "184206.112500", "184207.612500", "184209.112500", "184210.612500", "184212.112500", "184213.612500", "184215.112500", "184216.612500", "184218.112500", "184219.612500", "184221.112500", "184222.612500", "184224.112500", "184225.612500", "184227.112500", "184228.612500", "184230.112500", "184231.612500", "184233.112500", "184234.612500", "184236.112500", "184237.612500", "184239.112500", "184240.612500", "184242.112500", "184243.612500", "184245.112500", "184246.612500", "184248.112500", "184249.612500", "184251.112500", "184252.612500", "184254.112500", "184255.612500", "184257.112500", "184258.612500", "184300.112500", "184301.612500", "184303.112500", "184304.612500", "184306.112500", "184307.612500", "184309.112500", "184310.612500", "184312.112500", "184313.612500", "184315.112500", "184316.612500", "184318.112500", "184319.612500", "184321.112500", "184322.612500", "184324.112500", "184325.612500", "184327.112500", "184328.612500", "184330.112500", "184331.612500", "184333.112500", "184334.612500", "184336.112500", "184337.612500", "184339.112500", "184340.612500", "184342.112500", "184343.612500", "184345.112500", "184346.612500", "184348.112500", "184349.612500", "184351.112500", "184352.612500", "184354.112500", "184355.612500", "184357.112500", "184358.612500", "184400.112500", "184401.612500", "184403.112500", "184404.612500", "184406.112500", "184407.612500", "184409.112500", "184410.612500", "184412.112500", "184413.612500", "184415.112500", "184416.612500", "184418.112500", "184419.612500", "184421.112500", "184422.612500", "184424.112500", "184425.612500", "184427.112500", "184428.612500", "184430.112500", "184431.612500", "184433.112500", "184434.612500", "184436.112500", "184437.612500", "184439.112500", "184440.612500", "184442.112500", "184443.612500", "184445.112500", "184446.612500", "184448.112500", "184449.612500", "184451.112500", "184452.612500", "184454.112500", "184455.612500", "184457.112500", "184458.612500", "184500.112500", "184501.612500", "184503.112500", "184504.612500", "184506.112500", "184507.612500", "184509.112500", "184510.612500", "184512.112500", "184513.612500", "184515.112500", "184516.612500", "184518.112500", "184519.612500", "184521.112500", "184522.612500", "184524.112500", "184525.612500", "184527.112500", "184528.612500", "184530.112500", "184531.612500", "184533.112500", "184534.612500", "184536.112500", "184537.612500", "184539.112500", "184540.612500", "184542.112500", "184543.612500", "184545.112500", "184546.612500", "184548.112500", "184549.612500", "184551.112500", "184552.612500", "184554.112500", "184555.612500", "184557.112500", "184558.612500", "184600.112500", "184601.612500", "184603.112500", "184604.612500", "184606.112500", "184607.612500", "184609.112500", "184610.612500", "184612.112500", "184613.612500", "184615.112500", "184616.612500", "184618.112500", "184619.612500", "184621.112500", "184622.612500", "184624.112500", "184625.612500", "184627.112500", "184628.612500", "184630.112500", "184631.612500", "184633.112500", "184634.612500", "184636.112500", "184637.612500", "184639.112500", "184640.612500", "184642.112500", "184643.612500", "184645.112500", "184646.612500", "184648.112500", "184649.612500", "184651.112500", "184652.612500", "184654.112500", "184655.612500", "184657.112500", "184658.612500", "184700.112500", "184701.612500", "184703.112500", "184704.612500", "184706.112500", "184707.612500", "184709.112500", "184710.612500", "184712.112500", "184713.612500", "184715.112500", "184716.612500", "184718.112500", "184719.612500", "184721.112500", "184722.612500", "184724.112500", "184725.612500", "184727.112500", "184728.612500", "184730.112500", "184731.612500", "184733.112500", "184734.612500", "184736.112500", "184737.612500", "184739.112500", "184740.612500", "184742.112500", "184743.612500", "184745.112500", "184746.612500", "184748.112500", "184749.612500", "184751.112500", "184752.612500", "184754.112500", "184755.612500", "184757.112500", "184758.612500", "184800.112500", "184801.612500", "184803.112500", "184804.612500", "184806.112500", "184807.612500", "184809.112500", "184810.612500", "184812.112500", "184813.612500", "184815.112500", "184816.612500", "184818.112500", "184819.612500", "184821.112500", "184822.612500", "184824.112500", "184825.612500", "184827.112500", "184828.612500", "184830.112500", "184831.612500", "184833.112500", "184834.612500", "184836.112500", "184837.612500", "184839.112500", "184840.612500", "184842.112500", "184843.612500", "184845.112500", "184846.612500", "184848.112500", "184849.612500", "184851.112500", "184852.612500", "184854.112500", "184855.612500", "184857.112500", "184858.612500", "184900.112500", "184901.612500", "184903.112500", "184904.612500", "184906.112500", "184907.612500", "184909.112500", "184910.612500", "184912.112500", "184913.612500", "184915.112500", "184916.612500", "184918.112500", "184919.612500", "184921.112500", "184922.612500", "184924.112500", "184925.612500", "184927.112500", "184928.612500", "184930.112500", "184931.612500", "184933.112500", "184934.612500", "184936.112500", "184937.612500", "184939.112500", "184940.612500", "184942.112500", "184943.612500", "184945.112500", "184946.612500", "184948.112500", "184949.612500", "184951.112500", "184952.612500", "184954.112500", "184955.612500", "184957.112500", "184958.612500", "185000.112500", "185001.612500", "185003.112500", "185004.612500", "185006.112500", "185007.612500", "185009.112500", "185010.612500", "185012.112500", "185013.612500", "185015.112500", "185016.612500", "185018.112500", "185019.612500", "185021.112500", "185022.612500", "185024.112500", "185025.612500", "185027.112500", "185028.612500", "185030.112500", "185031.612500", "185033.112500", "185034.612500", "185036.112500", "185037.612500", "185039.112500", "185040.612500", "185042.112500", "185043.612500", "185045.112500", "185046.612500", "185048.112500", "185049.612500", "185051.112500", "185052.612500", "185054.112500", "185055.612500", "185057.112500", "185058.612500", "185100.112500", "185101.612500", "185103.112500", "185104.612500", "185106.112500", "185107.612500", "185109.112500", "185110.612500", "185112.112500", "185113.612500", "185115.112500", "185116.612500", "185118.112500", "185119.612500", "185121.112500", "185122.612500", "185124.112500", "185125.612500", "185127.112500", "185128.612500", "185130.112500", "185131.612500", "185133.112500", "185134.612500", "185136.112500", "185137.612500", "185139.112500", "185140.612500", "185142.112500", "185143.612500", "185145.112500", "185146.612500", "185148.112500", "185149.612500", "185151.112500", "185152.612500", "185154.112500", "185155.612500", "185157.112500", "185158.612500", "185200.112500", "185201.612500", "185203.112500", "185204.612500", "185206.112500", "185207.612500", "185209.112500", "185210.612500", "185212.112500", "185213.612500", "185215.112500", "185216.612500", "185218.112500", "185219.612500", "185221.112500", "185222.612500", "185224.112500", "185225.612500", "185227.112500", "185228.612500", "185230.112500", "185231.612500", "185233.112500", "185234.612500", "185236.112500", "185237.612500", "185239.112500", "185240.612500", "185242.112500", "185243.612500", "185245.112500", "185246.612500", "185248.112500", "185249.612500", "185251.112500", "185252.612500", "185254.112500", "185255.612500", "185257.112500", "185258.612500", "185300.112500", "185301.612500", "185303.112500", "185304.612500", "185306.112500", "185307.612500", "185309.112500", "185310.612500", "185312.112500", "185313.612500", "185315.112500", "185316.612500", "185318.112500", "185319.612500", "185321.112500", "185322.612500", "185324.112500", "185325.612500", "185327.112500", "185328.612500", "185330.112500", "185331.612500", "185333.112500", "185334.612500", "185336.112500", "185337.612500", "185339.112500", "185340.612500", "185342.112500", "185343.612500", "185345.112500", "185346.612500", "185348.112500", "185349.612500", "185351.112500", "185352.612500", "185354.112500", "185355.612500", "185357.112500", "185358.612500", "185400.112500", "185401.612500", "185403.112500", "185404.612500", "185406.112500", "185407.612500", "185409.112500", "185410.612500", "185412.112500", "185413.612500", "185415.112500", "185416.612500", "185418.112500", "185419.612500", "185421.112500", "185422.612500", "185424.112500", "185425.612500", "185427.112500", "185428.612500", "185430.112500", "185431.612500", "185433.112500", "185434.612500", "185436.112500", "185437.612500", "185439.112500", "185440.612500", "185442.112500", "185443.612500", "185445.112500", "185446.612500", "185448.112500", "185449.612500", "185451.112500", "185452.612500", "185454.112500", "185455.612500", "185457.112500", "185458.612500", "185500.112500", "185501.612500", "185503.112500", "185504.612500", "185506.112500", "185507.612500", "185509.112500", "185510.612500", "185512.112500", "185513.612500", "185515.112500", "185516.612500", "185518.112500", "185519.612500", "185521.112500", "185522.612500", "185524.112500", "185525.612500", "185527.112500", "185528.612500", "185530.112500", "185531.612500", "185533.112500", "185534.612500", "185536.112500", "185537.612500", "185539.112500", "185540.612500", "185542.112500", "185543.612500", "185545.112500", "185546.612500", "185548.112500", "185549.612500", "185551.112500", "185552.612500", "185554.112500", "185555.612500", "185557.112500", "185558.612500", "185600.112500", "185601.612500", "185603.112500", "185604.612500", "185606.112500", "185607.612500", "185609.112500", "185610.612500", "185612.112500", "185613.612500", "185615.112500", "185616.612500", "185618.112500", "185619.612500", "185621.112500", "185622.612500", "185624.112500", "185625.612500", "185627.112500", "185628.612500", "185630.112500", "185631.612500", "185633.112500", "185634.612500", "185636.112500", "185637.612500", "185639.112500", "185640.612500", "185642.112500", "185643.612500", "185645.112500", "185646.612500", "185648.112500", "185649.612500", "185651.112500", "185652.612500", "185654.112500", "185655.612500", "185657.112500", "185658.612500", "185700.112500", "185701.612500", "185703.112500", "185704.612500", "185706.112500", "185707.612500", "185709.112500", "185710.612500", "185712.112500", "185713.612500", "185715.112500", "185716.612500", "185718.112500", "185719.612500", "185721.112500", "185722.612500", "185724.112500", "185725.612500", "185727.112500", "185728.612500", "185730.112500", "185731.612500", "185733.112500", "185734.612500", "185736.112500", "185737.612500", "185739.112500", "185740.612500", "185742.112500", "185743.612500", "185745.112500", "185746.612500", "185748.112500", "185749.612500", "185751.112500", "185752.612500", "185754.112500", "185755.612500", "185757.112500", "185758.612500", "185800.112500", "185801.612500", "185803.112500", "185804.612500", "185806.112500", "185807.612500", "185809.112500", "185810.612500", "185812.112500", "185813.612500", "185815.112500", "185816.612500", "185818.112500", "185819.612500", "185821.112500", "185822.612500", "185824.112500", "185825.612500", "185827.112500", "185828.612500", "185830.112500", "185831.612500", "185833.112500", "185834.612500", "185836.112500", "185837.612500", "185839.112500", "185840.612500", "185842.112500", "185843.612500", "185845.112500", "185846.612500", "185848.112500", "185849.612500", "185851.112500", "185852.612500", "185854.112500", "185855.612500", "185857.112500", "185858.612500", "185900.112500", "185901.612500", "185903.112500", "185904.612500", "185906.112500", "185907.612500", "185909.112500", "185910.612500", "185912.112500", "185913.612500", "185915.112500", "185916.612500", "185918.112500", "185919.612500", "185921.112500", "185922.612500", "185924.112500", "185925.612500", "185927.112500", "185928.612500", "185930.112500", "185931.612500", "185933.112500", "185934.612500", "185936.112500", "185937.612500", "185939.112500", "185940.612500", "185942