{
  "AcquisitionMatrixPE": 106,
  "AcquisitionNumber": 1,
  "AcquisitionTime": "11:31:59.042500",
  "BandwidthPerPixelPhaseEncode": 16.846,
  "BaseResolution": 106,
  "BodyPartExamined": "BRAIN",
  "CoilCombinationMethod": "Sum of Squares",
  "ConsistencyInfo": "N4_VE11C_LATEST_20160120",
  "ConversionSoftware": "dcm2niix",
  "ConversionSoftwareVersion": "v1.0.20220720",
  "DerivedVendorReportedEchoSpacing": 0.000560012,
  "DeviceSerialNumber": "166108",
  "DwellTime": 1.8e-06,
  "EchoTime": 0.0352,
  "EchoTrainLength": 106,
  "EffectiveEchoSpacing": 0.000560012,
  "FlipAngle": 60,
  "HeudiconvVersion": "1.3.0",
  "ImageComments": "Unaliased MB4/PE3/LB",
  "ImageOrientationPatientDICOM": [1, 0, 0, 0, 1, 0],
  "ImageOrientationText": "Tra",
  "ImageType": [
    "ORIGINAL",
    "PRIMARY",
    "M",
    "MB",
    "ND",
    "MOSAIC"
],
  "ImagingFrequency": 123.244,
  "InPlanePhaseEncodingDirectionDICOM": "COL",
  "InstitutionAddress": "Bedford Way 26,London,London,GB,WC1H 0AP",
  "InstitutionName": "University College",
  "InstitutionalDepartmentName": "Department",
  "MRAcquisitionType": "2D",
  "MagneticFieldStrength": 3,
  "Manufacturer": "Siemens",
  "ManufacturersModelName": "Prisma",
  "MatrixCoilMode": "SENSE",
  "Modality": "MR",
  "MultibandAccelerationFactor": 4,
  "NonlinearGradientCorrection": false,
  "PartialFourier": 1,
  "PatientPosition": "HFS",
  "PercentPhaseFOV": 100,
  "PercentSampling": 100,
  "PhaseEncodingDirection": "j-",
  "PhaseEncodingSteps": 106,
  "PhaseResolution": 1,
  "PixelBandwidth": 2620,
  "ProcedureStepDescription": "Egor^MovieProject2",
  "ProtocolName": "task-backtothefuture_run-2",
  "PulseSequenceDetails": "%CustomerSeq%\\cmrr_mbep2d_bold",
  "ReceiveCoilActiveElements": "HEA;HEP",
  "ReceiveCoilName": "Head_32",
  "ReconMatrixPE": 106,
  "RepetitionTime": 1.5,
  "SAR": 0.0769011,
  "ScanOptions": "FS\\EXT",
  "ScanningSequence": "EP",
  "SequenceName": "epfid2d1_106",
  "SequenceVariant": "SK\\SS",
  "SeriesDescription": "task-backtothefuture_run-2",
  "SeriesNumber": 7,
  "ShimSetting": [-1593, 599, 7398, 378, -72, -98, -85, -1],
  "SliceThickness": 2,
  "SliceTiming": [0, 1.07, 0.6575, 0.2475, 1.315, 0.905, 0.4925, 0.0825, 1.1525, 0.74, 0.33, 1.3975, 0.9875, 0.575, 0.165, 1.2325, 0.8225, 0.4125, 0, 1.07, 0.6575, 0.2475, 1.315, 0.905, 0.4925, 0.0825, 1.1525, 0.74, 0.33, 1.3975, 0.9875, 0.575, 0.165, 1.2325, 0.8225, 0.4125, 0, 1.07, 0.6575, 0.2475, 1.315, 0.905, 0.4925, 0.0825, 1.1525, 0.74, 0.33, 1.3975, 0.9875, 0.575, 0.165, 1.2325, 0.8225, 0.4125, 0, 1.07, 0.6575, 0.2475, 1.315, 0.905, 0.4925, 0.0825, 1.1525, 0.74, 0.33, 1.3975, 0.9875, 0.575, 0.165, 1.2325, 0.8225, 0.4125],
  "SoftwareVersions": "syngo MR E11",
  "SpacingBetweenSlices": 2,
  "StationName": "AWP166108",
  "TaskName": "backtothefuture",
  "TotalReadoutTime": 0.0588013,
  "TxRefAmp": 239.998,
  "WipMemBlock": "875a9ade-6ed6-4a40-ae05-aab15a5a452e||Sequence: R016 ve11c/master r/e634e98; Dec 19 2017 11:00:25 by eja",
  "dcmmeta_affine": [
    [-2.0, 0.0, 0.0, 106.0],
    [0.0, 2.0, 0.0, -78.69879150390625],
    [0.0, 0.0, 2.0, -59.55421829223633],
    [0.0, 0.0, 0.0, 1.0]
],
  "dcmmeta_reorient_transform": [
    [0.0, -1.0, 0.0, 105.0],
    [1.0, 0.0, 0.0, 0.0],
    [0.0, 0.0, 1.0, 0.0],
    [0.0, 0.0, 0.0, 1.0]
],
  "dcmmeta_shape": [106, 106, 72, 1522],
  "dcmmeta_slice_dim": 2,
  "dcmmeta_version": 0.6,
  "global": {
    "const": {
      "AcquisitionMatrix": [106, 0, 0, 106],
      "AngioFlag": "N",
      "BitsAllocated": 16,
      "BitsStored": 16,
      "BodyPartExamined": "BRAIN",
      "CardiacNumberOfImages": 1,
      "Columns": 954,
      "EchoNumbers": 1,
      "EchoTime": 35.2,
      "EchoTrainLength": 106,
      "FlipAngle": 60.0,
      "HighBit": 15,
      "ImageOrientationPatient": [1.0, 0.0, 0.0, 0.0, 1.0, 0.0],
      "ImagePositionPatient": [-954.0, -979.3012046814, -59.554218292236],
      "ImageType": [
        "ORIGINAL",
        "PRIMARY",
        "M",
        "MB",
        "ND",
        "MOSAIC"
],
      "ImagedNucleus": "1H",
      "ImagingFrequency": 123.24371,
      "InPlanePhaseEncodingDirection": "COL",
      "MRAcquisitionType": "2D",
      "MagneticFieldStrength": 3.0,
      "Manufacturer": "SIEMENS",
      "ManufacturerModelName": "Prisma",
      "Modality": "MR",
      "NominalInterval": 0,
      "NumberOfAverages": 1.0,
      "NumberOfPhaseEncodingSteps": 106,
      "PercentPhaseFieldOfView": 100.0,
      "PercentSampling": 100.0,
      "PerformedProcedureStepStartTime": "101945.574000",
      "PhotometricInterpretation": "MONOCHROME2",
      "PixelBandwidth": 2620.0,
      "PixelRepresentation": 0,
      "PixelSpacing": [2.0, 2.0],
      "ProtocolName": "task-backtothefuture_run-2",
      "RepetitionTime": 1500.0,
      "Rows": 954,
      "SAR": 0.07690114673767,
      "SamplesPerPixel": 1,
      "ScanOptions": [
        "FS",
        "EXT"
],
      "ScanningSequence": "EP",
      "SequenceName": "epfid2d1_106",
      "SequenceVariant": [
        "SK",
        "SS"
],
      "SeriesDescription": "task-backtothefuture_run-2",
      "SeriesNumber": 7,
      "SeriesTime": "113247.200000",
      "SliceLocation": -59.554218292236,
      "SliceThickness": 2.0,
      "SmallestImagePixelValue": 0,
      "SoftwareVersions": "syngo MR E11",
      "SpacingBetweenSlices": 2.0000000537281,
      "SpecificCharacterSet": "ISO_IR 100",
      "StudyID": "1",
      "StudyTime": "101945.508000",
      "TransmitCoilName": "Body",
      "VariableFlipAngleFlag": "N",
      "WindowCenterWidthExplanation": "Algo1",
      "dBdt": 0.0},
    "slices": {}
  },
  "time": {
    "samples": {
      "AcquisitionNumber": [1, 2, 3, 4, 5, 6, 7, 8, 9, 10, 11, 12, 13, 14, 15, 16, 17, 18, 19, 20, 21, 22, 23, 24, 25, 26, 27, 28, 29, 30, 31, 32, 33, 34, 35, 36, 37, 38, 39, 40, 41, 42, 43, 44, 45, 46, 47, 48, 49, 50, 51, 52, 53, 54, 55, 56, 57, 58, 59, 60, 61, 62, 63, 64, 65, 66, 67, 68, 69, 70, 71, 72, 73, 74, 75, 76, 77, 78, 79, 80, 81, 82, 83, 84, 85, 86, 87, 88, 89, 90, 91, 92, 93, 94, 95, 96, 97, 98, 99, 100, 101, 102, 103, 104, 105, 106, 107, 108, 109, 110, 111, 112, 113, 114, 115, 116, 117, 118, 119, 120, 121, 122, 123, 124, 125, 126, 127, 128, 129, 130, 131, 132, 133, 134, 135, 136, 137, 138, 139, 140, 141, 142, 143, 144, 145, 146, 147, 148, 149, 150, 151, 152, 153, 154, 155, 156, 157, 158, 159, 160, 161, 162, 163, 164, 165, 166, 167, 168, 169, 170, 171, 172, 173, 174, 175, 176, 177, 178, 179, 180, 181, 182, 183, 184, 185, 186, 187, 188, 189, 190, 191, 192, 193, 194, 195, 196, 197, 198, 199, 200, 201, 202, 203, 204, 205, 206, 207, 208, 209, 210, 211, 212, 213, 214, 215, 216, 217, 218, 219, 220, 221, 222, 223, 224, 225, 226, 227, 228, 229, 230, 231, 232, 233, 234, 235, 236, 237, 238, 239, 240, 241, 242, 243, 244, 245, 246, 247, 248, 249, 250, 251, 252, 253, 254, 255, 256, 257, 258, 259, 260, 261, 262, 263, 264, 265, 266, 267, 268, 269, 270, 271, 272, 273, 274, 275, 276, 277, 278, 279, 280, 281, 282, 283, 284, 285, 286, 287, 288, 289, 290, 291, 292, 293, 294, 295, 296, 297, 298, 299, 300, 301, 302, 303, 304, 305, 306, 307, 308, 309, 310, 311, 312, 313, 314, 315, 316, 317, 318, 319, 320, 321, 322, 323, 324, 325, 326, 327, 328, 329, 330, 331, 332, 333, 334, 335, 336, 337, 338, 339, 340, 341, 342, 343, 344, 345, 346, 347, 348, 349, 350, 351, 352, 353, 354, 355, 356, 357, 358, 359, 360, 361, 362, 363, 364, 365, 366, 367, 368, 369, 370, 371, 372, 373, 374, 375, 376, 377, 378, 379, 380, 381, 382, 383, 384, 385, 386, 387, 388, 389, 390, 391, 392, 393, 394, 395, 396, 397, 398, 399, 400, 401, 402, 403, 404, 405, 406, 407, 408, 409, 410, 411, 412, 413, 414, 415, 416, 417, 418, 419, 420, 421, 422, 423, 424, 425, 426, 427, 428, 429, 430, 431, 432, 433, 434, 435, 436, 437, 438, 439, 440, 441, 442, 443, 444, 445, 446, 447, 448, 449, 450, 451, 452, 453, 454, 455, 456, 457, 458, 459, 460, 461, 462, 463, 464, 465, 466, 467, 468, 469, 470, 471, 472, 473, 474, 475, 476, 477, 478, 479, 480, 481, 482, 483, 484, 485, 486, 487, 488, 489, 490, 491, 492, 493, 494, 495, 496, 497, 498, 499, 500, 501, 502, 503, 504, 505, 506, 507, 508, 509, 510, 511, 512, 513, 514, 515, 516, 517, 518, 519, 520, 521, 522, 523, 524, 525, 526, 527, 528, 529, 530, 531, 532, 533, 534, 535, 536, 537, 538, 539, 540, 541, 542, 543, 544, 545, 546, 547, 548, 549, 550, 551, 552, 553, 554, 555, 556, 557, 558, 559, 560, 561, 562, 563, 564, 565, 566, 567, 568, 569, 570, 571, 572, 573, 574, 575, 576, 577, 578, 579, 580, 581, 582, 583, 584, 585, 586, 587, 588, 589, 590, 591, 592, 593, 594, 595, 596, 597, 598, 599, 600, 601, 602, 603, 604, 605, 606, 607, 608, 609, 610, 611, 612, 613, 614, 615, 616, 617, 618, 619, 620, 621, 622, 623, 624, 625, 626, 627, 628, 629, 630, 631, 632, 633, 634, 635, 636, 637, 638, 639, 640, 641, 642, 643, 644, 645, 646, 647, 648, 649, 650, 651, 652, 653, 654, 655, 656, 657, 658, 659, 660, 661, 662, 663, 664, 665, 666, 667, 668, 669, 670, 671, 672, 673, 674, 675, 676, 677, 678, 679, 680, 681, 682, 683, 684, 685, 686, 687, 688, 689, 690, 691, 692, 693, 694, 695, 696, 697, 698, 699, 700, 701, 702, 703, 704, 705, 706, 707, 708, 709, 710, 711, 712, 713, 714, 715, 716, 717, 718, 719, 720, 721, 722, 723, 724, 725, 726, 727, 728, 729, 730, 731, 732, 733, 734, 735, 736, 737, 738, 739, 740, 741, 742, 743, 744, 745, 746, 747, 748, 749, 750, 751, 752, 753, 754, 755, 756, 757, 758, 759, 760, 761, 762, 763, 764, 765, 766, 767, 768, 769, 770, 771, 772, 773, 774, 775, 776, 777, 778, 779, 780, 781, 782, 783, 784, 785, 786, 787, 788, 789, 790, 791, 792, 793, 794, 795, 796, 797, 798, 799, 800, 801, 802, 803, 804, 805, 806, 807, 808, 809, 810, 811, 812, 813, 814, 815, 816, 817, 818, 819, 820, 821, 822, 823, 824, 825, 826, 827, 828, 829, 830, 831, 832, 833, 834, 835, 836, 837, 838, 839, 840, 841, 842, 843, 844, 845, 846, 847, 848, 849, 850, 851, 852, 853, 854, 855, 856, 857, 858, 859, 860, 861, 862, 863, 864, 865, 866, 867, 868, 869, 870, 871, 872, 873, 874, 875, 876, 877, 878, 879, 880, 881, 882, 883, 884, 885, 886, 887, 888, 889, 890, 891, 892, 893, 894, 895, 896, 897, 898, 899, 900, 901, 902, 903, 904, 905, 906, 907, 908, 909, 910, 911, 912, 913, 914, 915, 916, 917, 918, 919, 920, 921, 922, 923, 924, 925, 926, 927, 928, 929, 930, 931, 932, 933, 934, 935, 936, 937, 938, 939, 940, 941, 942, 943, 944, 945, 946, 947, 948, 949, 950, 951, 952, 953, 954, 955, 956, 957, 958, 959, 960, 961, 962, 963, 964, 965, 966, 967, 968, 969, 970, 971, 972, 973, 974, 975, 976, 977, 978, 979, 980, 981, 982, 983, 984, 985, 986, 987, 988, 989, 990, 991, 992, 993, 994, 995, 996, 997, 998, 999, 1000, 1001, 1002, 1003, 1004, 1005, 1006, 1007, 1008, 1009, 1010, 1011, 1012, 1013, 1014, 1015, 1016, 1017, 1018, 1019, 1020, 1021, 1022, 1023, 1024, 1025, 1026, 1027, 1028, 1029, 1030, 1031, 1032, 1033, 1034, 1035, 1036, 1037, 1038, 1039, 1040, 1041, 1042, 1043, 1044, 1045, 1046, 1047, 1048, 1049, 1050, 1051, 1052, 1053, 1054, 1055, 1056, 1057, 1058, 1059, 1060, 1061, 1062, 1063, 1064, 1065, 1066, 1067, 1068, 1069, 1070, 1071, 1072, 1073, 1074, 1075, 1076, 1077, 1078, 1079, 1080, 1081, 1082, 1083, 1084, 1085, 1086, 1087, 1088, 1089, 1090, 1091, 1092, 1093, 1094, 1095, 1096, 1097, 1098, 1099, 1100, 1101, 1102, 1103, 1104, 1105, 1106, 1107, 1108, 1109, 1110, 1111, 1112, 1113, 1114, 1115, 1116, 1117, 1118, 1119, 1120, 1121, 1122, 1123, 1124, 1125, 1126, 1127, 1128, 1129, 1130, 1131, 1132, 1133, 1134, 1135, 1136, 1137, 1138, 1139, 1140, 1141, 1142, 1143, 1144, 1145, 1146, 1147, 1148, 1149, 1150, 1151, 1152, 1153, 1154, 1155, 1156, 1157, 1158, 1159, 1160, 1161, 1162, 1163, 1164, 1165, 1166, 1167, 1168, 1169, 1170, 1171, 1172, 1173, 1174, 1175, 1176, 1177, 1178, 1179, 1180, 1181, 1182, 1183, 1184, 1185, 1186, 1187, 1188, 1189, 1190, 1191, 1192, 1193, 1194, 1195, 1196, 1197, 1198, 1199, 1200, 1201, 1202, 1203, 1204, 1205, 1206, 1207, 1208, 1209, 1210, 1211, 1212, 1213, 1214, 1215, 1216, 1217, 1218, 1219, 1220, 1221, 1222, 1223, 1224, 1225, 1226, 1227, 1228, 1229, 1230, 1231, 1232, 1233, 1234, 1235, 1236, 1237, 1238, 1239, 1240, 1241, 1242, 1243, 1244, 1245, 1246, 1247, 1248, 1249, 1250, 1251, 1252, 1253, 1254, 1255, 1256, 1257, 1258, 1259, 1260, 1261, 1262, 1263, 1264, 1265, 1266, 1267, 1268, 1269, 1270, 1271, 1272, 1273, 1274, 1275, 1276, 1277, 1278, 1279, 1280, 1281, 1282, 1283, 1284, 1285, 1286, 1287, 1288, 1289, 1290, 1291, 1292, 1293, 1294, 1295, 1296, 1297, 1298, 1299, 1300, 1301, 1302, 1303, 1304, 1305, 1306, 1307, 1308, 1309, 1310, 1311, 1312, 1313, 1314, 1315, 1316, 1317, 1318, 1319, 1320, 1321, 1322, 1323, 1324, 1325, 1326, 1327, 1328, 1329, 1330, 1331, 1332, 1333, 1334, 1335, 1336, 1337, 1338, 1339, 1340, 1341, 1342, 1343, 1344, 1345, 1346, 1347, 1348, 1349, 1350, 1351, 1352, 1353, 1354, 1355, 1356, 1357, 1358, 1359, 1360, 1361, 1362, 1363, 1364, 1365, 1366, 1367, 1368, 1369, 1370, 1371, 1372, 1373, 1374, 1375, 1376, 1377, 1378, 1379, 1380, 1381, 1382, 1383, 1384, 1385, 1386, 1387, 1388, 1389, 1390, 1391, 1392, 1393, 1394, 1395, 1396, 1397, 1398, 1399, 1400, 1401, 1402, 1403, 1404, 1405, 1406, 1407, 1408, 1409, 1410, 1411, 1412, 1413, 1414, 1415, 1416, 1417, 1418, 1419, 1420, 1421, 1422, 1423, 1424, 1425, 1426, 1427, 1428, 1429, 1430, 1431, 1432, 1433, 1434, 1435, 1436, 1437, 1438, 1439, 1440, 1441, 1442, 1443, 1444, 1445, 1446, 1447, 1448, 1449, 1450, 1451, 1452, 1453, 1454, 1455, 1456, 1457, 1458, 1459, 1460, 1461, 1462, 1463, 1464, 1465, 1466, 1467, 1468, 1469, 1470, 1471, 1472, 1473, 1474, 1475, 1476, 1477, 1478, 1479, 1480, 1481, 1482, 1483, 1484, 1485, 1486, 1487, 1488, 1489, 1490, 1491, 1492, 1493, 1494, 1495, 1496, 1497, 1498, 1499, 1500, 1501, 1502, 1503, 1504, 1505, 1506, 1507, 1508, 1509, 1510, 1511, 1512, 1513, 1514, 1515, 1516, 1517, 1518, 1519, 1520, 1521, 1522],
      "AcquisitionTime": ["113159.042500", "113200.542500", "113202.042500", "113203.542500", "113205.042500", "113206.542500", "113208.042500", "113209.542500", "113211.042500", "113212.542500", "113214.042500", "113215.542500", "113217.042500", "113218.542500", "113220.042500", "113221.542500", "113223.042500", "113224.542500", "113226.042500", "113227.542500", "113229.042500", "113230.542500", "113232.042500", "113233.542500", "113235.042500", "113236.542500", "113238.042500", "113239.542500", "113241.042500", "113242.542500", "113244.042500", "113245.542500", "113247.042500", "113248.542500", "113250.042500", "113251.542500", "113253.042500", "113254.542500", "113256.042500", "113257.542500", "113259.042500", "113300.542500", "113302.042500", "113303.542500", "113305.042500", "113306.542500", "113308.042500", "113309.542500", "113311.042500", "113312.542500", "113314.042500", "113315.542500", "113317.042500", "113318.542500", "113320.042500", "113321.542500", "113323.042500", "113324.542500", "113326.042500", "113327.542500", "113329.042500", "113330.542500", "113332.042500", "113333.542500", "113335.042500", "113336.542500", "113338.042500", "113339.542500", "113341.042500", "113342.542500", "113344.042500", "113345.542500", "113347.042500", "113348.542500", "113350.042500", "113351.542500", "113353.042500", "113354.542500", "113356.042500", "113357.542500", "113359.042500", "113400.542500", "113402.042500", "113403.542500", "113405.042500", "113406.542500", "113408.042500", "113409.542500", "113411.042500", "113412.542500", "113414.042500", "113415.542500", "113417.042500", "113418.542500", "113420.042500", "113421.542500", "113423.042500", "113424.542500", "113426.042500", "113427.542500", "113429.042500", "113430.542500", "113432.042500", "113433.542500", "113435.042500", "113436.542500", "113438.042500", "113439.542500", "113441.042500", "113442.542500", "113444.042500", "113445.542500", "113447.042500", "113448.542500", "113450.042500", "113451.542500", "113453.042500", "113454.542500", "113456.042500", "113457.542500", "113459.042500", "113500.542500", "113502.042500", "113503.542500", "113505.042500", "113506.542500", "113508.042500", "113509.542500", "113511.042500", "113512.542500", "113514.042500", "113515.542500", "113517.042500", "113518.542500", "113520.042500", "113521.542500", "113523.042500", "113524.542500", "113526.042500", "113527.542500", "113529.042500", "113530.542500", "113532.042500", "113533.542500", "113535.042500", "113536.542500", "113538.042500", "113539.542500", "113541.042500", "113542.542500", "113544.042500", "113545.542500", "113547.042500", "113548.542500", "113550.042500", "113551.542500", "113553.042500", "113554.542500", "113556.042500", "113557.542500", "113559.042500", "113600.542500", "113602.042500", "113603.542500", "113605.042500", "113606.542500", "113608.042500", "113609.542500", "113611.042500", "113612.542500", "113614.042500", "113615.542500", "113617.042500", "113618.542500", "113620.042500", "113621.542500", "113623.042500", "113624.542500", "113626.042500", "113627.542500", "113629.042500", "113630.542500", "113632.042500", "113633.542500", "113635.042500", "113636.542500", "113638.042500", "113639.542500", "113641.042500", "113642.542500", "113644.042500", "113645.542500", "113647.042500", "113648.542500", "113650.042500", "113651.542500", "113653.042500", "113654.542500", "113656.042500", "113657.542500", "113659.042500", "113700.542500", "113702.042500", "113703.542500", "113705.042500", "113706.542500", "113708.042500", "113709.542500", "113711.042500", "113712.542500", "113714.042500", "113715.542500", "113717.042500", "113718.542500", "113720.042500", "113721.542500", "113723.042500", "113724.542500", "113726.042500", "113727.542500", "113729.042500", "113730.542500", "113732.042500", "113733.542500", "113735.042500", "113736.542500", "113738.042500", "113739.542500", "113741.042500", "113742.542500", "113744.042500", "113745.542500", "113747.042500", "113748.542500", "113750.042500", "113751.542500", "113753.042500", "113754.542500", "113756.042500", "113757.542500", "113759.042500", "113800.542500", "113802.042500", "113803.542500", "113805.042500", "113806.542500", "113808.042500", "113809.542500", "113811.042500", "113812.542500", "113814.042500", "113815.542500", "113817.042500", "113818.542500", "113820.042500", "113821.542500", "113823.042500", "113824.542500", "113826.042500", "113827.542500", "113829.042500", "113830.542500", "113832.042500", "113833.542500", "113835.042500", "113836.542500", "113838.042500", "113839.542500", "113841.042500", "113842.542500", "113844.042500", "113845.542500", "113847.042500", "113848.542500", "113850.042500", "113851.542500", "113853.042500", "113854.542500", "113856.042500", "113857.542500", "113859.042500", "113900.542500", "113902.042500", "113903.542500", "113905.042500", "113906.542500", "113908.042500", "113909.542500", "113911.042500", "113912.542500", "113914.042500", "113915.542500", "113917.042500", "113918.542500", "113920.042500", "113921.542500", "113923.042500", "113924.542500", "113926.042500", "113927.542500", "113929.042500", "113930.542500", "113932.042500", "113933.542500", "113935.042500", "113936.542500", "113938.042500", "113939.542500", "113941.042500", "113942.542500", "113944.042500", "113945.542500", "113947.042500", "113948.542500", "113950.042500", "113951.542500", "113953.042500", "113954.542500", "113956.042500", "113957.542500", "113959.042500", "114000.542500", "114002.042500", "114003.542500", "114005.042500", "114006.542500", "114008.042500", "114009.542500", "114011.042500", "114012.542500", "114014.042500", "114015.542500", "114017.042500", "114018.542500", "114020.042500", "114021.542500", "114023.042500", "114024.542500", "114026.042500", "114027.542500", "114029.042500", "114030.542500", "114032.042500", "114033.542500", "114035.042500", "114036.542500", "114038.042500", "114039.542500", "114041.042500", "114042.542500", "114044.042500", "114045.542500", "114047.042500", "114048.542500", "114050.042500", "114051.542500", "114053.042500", "114054.542500", "114056.042500", "114057.542500", "114059.042500", "114100.542500", "114102.042500", "114103.542500", "114105.042500", "114106.542500", "114108.042500", "114109.542500", "114111.042500", "114112.542500", "114114.042500", "114115.542500", "114117.042500", "114118.542500", "114120.042500", "114121.542500", "114123.042500", "114124.542500", "114126.042500", "114127.542500", "114129.042500", "114130.542500", "114132.042500", "114133.542500", "114135.042500", "114136.542500", "114138.042500", "114139.542500", "114141.042500", "114142.542500", "114144.042500", "114145.542500", "114147.042500", "114148.542500", "114150.042500", "114151.542500", "114153.042500", "114154.542500", "114156.042500", "114157.542500", "114159.042500", "114200.542500", "114202.042500", "114203.542500", "114205.042500", "114206.542500", "114208.042500", "114209.542500", "114211.042500", "114212.542500", "114214.042500", "114215.542500", "114217.042500", "114218.542500", "114220.042500", "114221.542500", "114223.042500", "114224.542500", "114226.042500", "114227.542500", "114229.042500", "114230.542500", "114232.042500", "114233.542500", "114235.042500", "114236.542500", "114238.042500", "114239.542500", "114241.042500", "114242.542500", "114244.042500", "114245.542500", "114247.042500", "114248.542500", "114250.042500", "114251.542500", "114253.042500", "114254.542500", "114256.042500", "114257.542500", "114259.042500", "114300.542500", "114302.042500", "114303.542500", "114305.042500", "114306.542500", "114308.042500", "114309.542500", "114311.042500", "114312.542500", "114314.042500", "114315.542500", "114317.042500", "114318.542500", "114320.042500", "114321.542500", "114323.042500", "114324.542500", "114326.042500", "114327.542500", "114329.042500", "114330.542500", "114332.042500", "114333.542500", "114335.042500", "114336.542500", "114338.042500", "114339.542500", "114341.042500", "114342.542500", "114344.042500", "114345.542500", "114347.042500", "114348.542500", "114350.042500", "114351.542500", "114353.042500", "114354.542500", "114356.042500", "114357.542500", "114359.042500", "114400.542500", "114402.042500", "114403.542500", "114405.042500", "114406.542500", "114408.042500", "114409.542500", "114411.042500", "114412.542500", "114414.042500", "114415.542500", "114417.042500", "114418.542500", "114420.042500", "114421.542500", "114423.042500", "114424.542500", "114426.042500", "114427.542500", "114429.042500", "114430.542500", "114432.042500", "114433.542500", "114435.042500", "114436.542500", "114438.042500", "114439.542500", "114441.042500", "114442.542500", "114444.042500", "114445.542500", "114447.042500", "114448.542500", "114450.042500", "114451.542500", "114453.042500", "114454.542500", "114456.042500", "114457.542500", "114459.042500", "114500.542500", "114502.042500", "114503.542500", "114505.042500", "114506.542500", "114508.042500", "114509.542500", "114511.042500", "114512.542500", "114514.042500", "114515.542500", "114517.042500", "114518.542500", "114520.042500", "114521.542500", "114523.042500", "114524.542500", "114526.042500", "114527.542500", "114529.042500", "114530.542500", "114532.042500", "114533.542500", "114535.042500", "114536.542500", "114538.042500", "114539.542500", "114541.042500", "114542.542500", "114544.042500", "114545.542500", "114547.042500", "114548.542500", "114550.042500", "114551.542500", "114553.042500", "114554.542500", "114556.042500", "114557.542500", "114559.042500", "114600.542500", "114602.042500", "114603.542500", "114605.042500", "114606.542500", "114608.042500", "114609.542500", "114611.042500", "114612.542500", "114614.042500", "114615.542500", "114617.042500", "114618.542500", "114620.042500", "114621.542500", "114623.042500", "114624.542500", "114626.042500", "114627.542500", "114629.042500", "114630.542500", "114632.042500", "114633.542500", "114635.042500", "114636.542500", "114638.042500", "114639.542500", "114641.042500", "114642.542500", "114644.042500", "114645.542500", "114647.042500", "114648.542500", "114650.042500", "114651.542500", "114653.042500", "114654.542500", "114656.042500", "114657.542500", "114659.042500", "114700.542500", "114702.042500", "114703.542500", "114705.042500", "114706.542500", "114708.042500", "114709.542500", "114711.042500", "114712.542500", "114714.042500", "114715.542500", "114717.042500", "114718.542500", "114720.042500", "114721.542500", "114723.042500", "114724.542500", "114726.042500", "114727.542500", "114729.042500", "114730.542500", "114732.042500", "114733.542500", "114735.042500", "114736.542500", "114738.042500", "114739.542500", "114741.042500", "114742.542500", "114744.042500", "114745.542500", "114747.042500", "114748.542500", "114750.042500", "114751.542500", "114753.042500", "114754.542500", "114756.042500", "114757.542500", "114759.042500", "114800.542500", "114802.042500", "114803.542500", "114805.042500", "114806.542500", "114808.042500", "114809.542500", "114811.042500", "114812.542500", "114814.042500", "114815.542500", "114817.042500", "114818.542500", "114820.042500", "114821.542500", "114823.042500", "114824.542500", "114826.042500", "114827.542500", "114829.042500", "114830.542500", "114832.042500", "114833.542500", "114835.042500", "114836.542500", "114838.042500", "114839.542500", "114841.042500", "114842.542500", "114844.042500", "114845.542500", "114847.042500", "114848.542500", "114850.042500", "114851.542500", "114853.042500", "114854.542500", "114856.042500", "114857.542500", "114859.042500", "114900.542500", "114902.042500", "114903.542500", "114905.042500", "114906.542500", "114908.042500", "114909.542500", "114911.042500", "114912.542500", "114914.042500", "114915.542500", "114917.042500", "114918.542500", "114920.042500", "114921.542500", "114923.042500", "114924.542500", "114926.042500", "114927.542500", "114929.042500", "114930.542500", "114932.042500", "114933.542500", "114935.042500", "114936.542500", "114938.042500", "114939.542500", "114941.042500", "114942.542500", "114944.042500", "114945.542500", "114947.042500", "114948.542500", "114950.042500", "114951.542500", "114953.042500", "114954.542500", "114956.042500", "114957.542500", "114959.042500", "115000.542500", "115002.042500", "115003.542500", "115005.042500", "115006.542500", "115008.042500", "115009.542500", "115011.042500", "115012.542500", "115014.042500", "115015.542500", "115017.042500", "115018.542500", "115020.042500", "115021.542500", "115023.042500", "115024.542500", "115026.042500", "115027.542500", "115029.042500", "115030.542500", "115032.042500", "115033.542500", "115035.042500", "115036.542500", "115038.042500", "115039.542500", "115041.042500", "115042.542500", "115044.042500", "115045.542500", "115047.042500", "115048.542500", "115050.042500", "115051.542500", "115053.042500", "115054.542500", "115056.042500", "115057.542500", "115059.042500", "115100.542500", "115102.042500", "115103.542500", "115105.042500", "115106.542500", "115108.042500", "115109.542500", "115111.042500", "115112.542500", "115114.042500", "115115.542500", "115117.042500", "115118.542500", "115120.042500", "115121.542500", "115123.042500", "115124.542500", "115126.042500", "115127.542500", "115129.042500", "115130.542500", "115132.042500", "115133.542500", "115135.042500", "115136.542500", "115138.042500", "115139.542500", "115141.042500", "115142.542500", "115144.042500", "115145.542500", "115147.042500", "115148.542500", "115150.042500", "115151.542500", "115153.042500", "115154.542500", "115156.042500", "115157.542500", "115159.042500", "115200.542500", "115202.042500", "115203.542500", "115205.042500", "115206.542500", "115208.042500", "115209.542500", "115211.042500", "115212.542500", "115214.042500", "115215.542500", "115217.042500", "115218.542500", "115220.042500", "115221.542500", "115223.042500", "115224.542500", "115226.042500", "115227.542500", "115229.042500", "115230.542500", "115232.042500", "115233.542500", "115235.042500", "115236.542500", "115238.042500", "115239.542500", "115241.042500", "115242.542500", "115244.042500", "115245.542500", "115247.042500", "115248.542500", "115250.042500", "115251.542500", "115253.042500", "115254.542500", "115256.042500", "115257.542500", "115259.042500", "115300.542500", "115302.042500", "115303.542500", "115305.042500", "115306.542500", "115308.042500", "115309.542500", "115311.042500", "115312.542500", "115314.042500", "115315.542500", "115317.042500", "115318.542500", "115320.042500", "115321.542500", "115323.042500", "115324.542500", "115326.042500", "115327.542500", "115329.042500", "115330.542500", "115332.042500", "115333.542500", "115335.042500", "115336.542500", "115338.042500", "115339.542500", "115341.042500", "115342.542500", "115344.042500", "115345.542500", "115347.042500", "115348.542500", "115350.042500", "115351.542500", "115353.042500", "115354.542500", "115356.042500", "115357.542500", "115359.042500", "115400.542500", "115402.042500", "115403.542500", "115405.042500", "115406.542500", "115408.042500", "115409.542500", "115411.042500", "115412.542500", "115414.042500", "115415.542500", "115417.042500", "115418.542500", "115420.042500", "115421.542500", "115423.042500", "115424.542500", "115426.042500", "115427.542500", "115429.042500", "115430.542500", "115432.042500", "115433.542500", "115435.042500", "115436.542500", "115438.042500", "115439.542500", "115441.042500", "115442.542500", "115444.042500", "115445.542500", "115447.042500", "115448.542500", "115450.042500", "115451.542500", "115453.042500", "115454.542500", "115456.042500", "115457.542500", "115459.042500", "115500.542500", "115502.042500", "115503.542500", "115505.042500", "115506.542500", "115508.042500", "115509.542500", "115511.042500", "115512.542500", "115514.042500", "115515.542500", "115517.042500", "115518.542500", "115520.042500", "115521.542500", "115523.042500", "115524.542500", "115526.042500", "115527.542500", "115529.042500", "115530.542500", "115532.042500", "115533.542500", "115535.042500", "115536.542500", "115538.042500", "115539.542500", "115541.042500", "115542.542500", "115544.042500", "115545.542500", "115547.042500", "115548.542500", "115550.042500", "115551.542500", "115553.042500", "115554.542500", "115556.042500", "115557.542500",