{
  "AcquisitionMatrixPE": 106,
  "AcquisitionNumber": 1,
  "AcquisitionTime": "13:00:41.975000",
  "BandwidthPerPixelPhaseEncode": 16.846,
  "BaseResolution": 106,
  "BodyPartExamined": "BRAIN",
  "CoilCombinationMethod": "Sum of Squares",
  "ConsistencyInfo": "N4_VE11C_LATEST_20160120",
  "ConversionSoftware": "dcm2niix",
  "ConversionSoftwareVersion": "v1.0.20220720",
  "DerivedVendorReportedEchoSpacing": 0.000560012,
  "DeviceSerialNumber": "166108",
  "DwellTime": 1.8e-06,
  "EchoTime": 0.0352,
  "EchoTrainLength": 106,
  "EffectiveEchoSpacing": 0.000560012,
  "FlipAngle": 60,
  "HeudiconvVersion": "1.3.0",
  "ImageComments": "Unaliased MB4/PE3/LB",
  "ImageOrientationPatientDICOM": [1, 0, 0, 0, 1, 0],
  "ImageOrientationText": "Tra",
  "ImageType": [
    "ORIGINAL",
    "PRIMARY",
    "M",
    "MB",
    "ND",
    "MOSAIC"
],
  "ImagingFrequency": 123.244,
  "InPlanePhaseEncodingDirectionDICOM": "COL",
  "InstitutionAddress": "Bedford Way 26,London,London,GB,WC1H 0AP",
  "InstitutionName": "University College",
  "InstitutionalDepartmentName": "Department",
  "MRAcquisitionType": "2D",
  "MagneticFieldStrength": 3,
  "Manufacturer": "Siemens",
  "ManufacturersModelName": "Prisma",
  "MatrixCoilMode": "SENSE",
  "Modality": "MR",
  "MultibandAccelerationFactor": 4,
  "NonlinearGradientCorrection": false,
  "PartialFourier": 1,
  "PatientPosition": "HFS",
  "PercentPhaseFOV": 100,
  "PercentSampling": 100,
  "PhaseEncodingDirection": "j-",
  "PhaseEncodingSteps": 106,
  "PhaseResolution": 1,
  "PixelBandwidth": 2620,
  "ProcedureStepDescription": "Egor^MovieProject2",
  "ProtocolName": "task-backtothefuture_run-2",
  "PulseSequenceDetails": "%CustomerSeq%\\cmrr_mbep2d_bold",
  "ReceiveCoilActiveElements": "HEA;HEP",
  "ReceiveCoilName": "Head_32",
  "ReconMatrixPE": 106,
  "RepetitionTime": 1.5,
  "SAR": 0.0754874,
  "ScanOptions": "FS\\EXT",
  "ScanningSequence": "EP",
  "SequenceName": "epfid2d1_106",
  "SequenceVariant": "SK\\SS",
  "SeriesDescription": "task-backtothefuture_run-2",
  "SeriesNumber": 7,
  "ShimSetting": [-1586, 673, 7421, 321, -17, 179, 37, 8],
  "SliceThickness": 2,
  "SliceTiming": [0, 1.0675, 0.6575, 0.245, 1.315, 0.9025, 0.4925, 0.0825, 1.15, 0.74, 0.3275, 1.3975, 0.985, 0.575, 0.1625, 1.2325, 0.8225, 0.41, 0, 1.0675, 0.6575, 0.245, 1.315, 0.9025, 0.4925, 0.0825, 1.15, 0.74, 0.3275, 1.3975, 0.985, 0.575, 0.1625, 1.2325, 0.8225, 0.41, 0, 1.0675, 0.6575, 0.245, 1.315, 0.9025, 0.4925, 0.0825, 1.15, 0.74, 0.3275, 1.3975, 0.985, 0.575, 0.1625, 1.2325, 0.8225, 0.41, 0, 1.0675, 0.6575, 0.245, 1.315, 0.9025, 0.4925, 0.0825, 1.15, 0.74, 0.3275, 1.3975, 0.985, 0.575, 0.1625, 1.2325, 0.8225, 0.41],
  "SoftwareVersions": "syngo MR E11",
  "SpacingBetweenSlices": 2,
  "StationName": "AWP166108",
  "TaskName": "backtothefuture",
  "TotalReadoutTime": 0.0588013,
  "TxRefAmp": 252.932,
  "WipMemBlock": "5366c29c-48d1-44cc-9d9e-986cac75280e||Sequence: R016 ve11c/master r/e634e98; Dec 19 2017 11:00:25 by eja",
  "dcmmeta_affine": [
    [-2.0, 0.0, 0.0, 106.0],
    [0.0, 2.0, 0.0, -96.16867065429688],
    [0.0, 0.0, 2.0, -63.16867446899414],
    [0.0, 0.0, 0.0, 1.0]
],
  "dcmmeta_reorient_transform": [
    [0.0, -1.0, 0.0, 105.0],
    [1.0, 0.0, 0.0, 0.0],
    [0.0, 0.0, 1.0, 0.0],
    [0.0, 0.0, 0.0, 1.0]
],
  "dcmmeta_shape": [106, 106, 72, 1522],
  "dcmmeta_slice_dim": 2,
  "dcmmeta_version": 0.6,
  "global": {
    "const": {
      "AcquisitionMatrix": [106, 0, 0, 106],
      "AngioFlag": "N",
      "BitsAllocated": 16,
      "BitsStored": 16,
      "BodyPartExamined": "BRAIN",
      "CardiacNumberOfImages": 1,
      "Columns": 954,
      "EchoNumbers": 1,
      "EchoTime": 35.2,
      "EchoTrainLength": 106,
      "FlipAngle": 60.0,
      "HighBit": 15,
      "ImageOrientationPatient": [1.0, 0.0, 0.0, 0.0, 1.0, 0.0],
      "ImagePositionPatient": [-954.0, -961.83132553101, -63.168674468994],
      "ImageType": [
        "ORIGINAL",
        "PRIMARY",
        "M",
        "MB",
        "ND",
        "MOSAIC"
],
      "ImagedNucleus": "1H",
      "ImagingFrequency": 123.243711,
      "InPlanePhaseEncodingDirection": "COL",
      "MRAcquisitionType": "2D",
      "MagneticFieldStrength": 3.0,
      "Manufacturer": "SIEMENS",
      "ManufacturerModelName": "Prisma",
      "Modality": "MR",
      "NominalInterval": 0,
      "NumberOfAverages": 1.0,
      "NumberOfPhaseEncodingSteps": 106,
      "PercentPhaseFieldOfView": 100.0,
      "PercentSampling": 100.0,
      "PerformedProcedureStepStartTime": "120246.443000",
      "PhotometricInterpretation": "MONOCHROME2",
      "PixelBandwidth": 2620.0,
      "PixelRepresentation": 0,
      "PixelSpacing": [2.0, 2.0],
      "ProtocolName": "task-backtothefuture_run-2",
      "RepetitionTime": 1500.0,
      "Rows": 954,
      "SAR": 0.07548740491387,
      "SamplesPerPixel": 1,
      "ScanOptions": [
        "FS",
        "EXT"
],
      "ScanningSequence": "EP",
      "SequenceName": "epfid2d1_106",
      "SequenceVariant": [
        "SK",
        "SS"
],
      "SeriesDescription": "task-backtothefuture_run-2",
      "SeriesNumber": 7,
      "SeriesTime": "130137.985000",
      "SliceLocation": -63.168674468994,
      "SliceThickness": 2.0,
      "SmallestImagePixelValue": 0,
      "SoftwareVersions": "syngo MR E11",
      "SpacingBetweenSlices": 1.9999999462719,
      "SpecificCharacterSet": "ISO_IR 100",
      "StudyID": "1",
      "StudyTime": "120246.343000",
      "TransmitCoilName": "Body",
      "VariableFlipAngleFlag": "N",
      "WindowCenterWidthExplanation": "Algo1",
      "dBdt": 0.0},
    "slices": {}
  },
  "time": {
    "samples": {
      "AcquisitionNumber": [1, 2, 3, 4, 5, 6, 7, 8, 9, 10, 11, 12, 13, 14, 15, 16, 17, 18, 19, 20, 21, 22, 23, 24, 25, 26, 27, 28, 29, 30, 31, 32, 33, 34, 35, 36, 37, 38, 39, 40, 41, 42, 43, 44, 45, 46, 47, 48, 49, 50, 51, 52, 53, 54, 55, 56, 57, 58, 59, 60, 61, 62, 63, 64, 65, 66, 67, 68, 69, 70, 71, 72, 73, 74, 75, 76, 77, 78, 79, 80, 81, 82, 83, 84, 85, 86, 87, 88, 89, 90, 91, 92, 93, 94, 95, 96, 97, 98, 99, 100, 101, 102, 103, 104, 105, 106, 107, 108, 109, 110, 111, 112, 113, 114, 115, 116, 117, 118, 119, 120, 121, 122, 123, 124, 125, 126, 127, 128, 129, 130, 131, 132, 133, 134, 135, 136, 137, 138, 139, 140, 141, 142, 143, 144, 145, 146, 147, 148, 149, 150, 151, 152, 153, 154, 155, 156, 157, 158, 159, 160, 161, 162, 163, 164, 165, 166, 167, 168, 169, 170, 171, 172, 173, 174, 175, 176, 177, 178, 179, 180, 181, 182, 183, 184, 185, 186, 187, 188, 189, 190, 191, 192, 193, 194, 195, 196, 197, 198, 199, 200, 201, 202, 203, 204, 205, 206, 207, 208, 209, 210, 211, 212, 213, 214, 215, 216, 217, 218, 219, 220, 221, 222, 223, 224, 225, 226, 227, 228, 229, 230, 231, 232, 233, 234, 235, 236, 237, 238, 239, 240, 241, 242, 243, 244, 245, 246, 247, 248, 249, 250, 251, 252, 253, 254, 255, 256, 257, 258, 259, 260, 261, 262, 263, 264, 265, 266, 267, 268, 269, 270, 271, 272, 273, 274, 275, 276, 277, 278, 279, 280, 281, 282, 283, 284, 285, 286, 287, 288, 289, 290, 291, 292, 293, 294, 295, 296, 297, 298, 299, 300, 301, 302, 303, 304, 305, 306, 307, 308, 309, 310, 311, 312, 313, 314, 315, 316, 317, 318, 319, 320, 321, 322, 323, 324, 325, 326, 327, 328, 329, 330, 331, 332, 333, 334, 335, 336, 337, 338, 339, 340, 341, 342, 343, 344, 345, 346, 347, 348, 349, 350, 351, 352, 353, 354, 355, 356, 357, 358, 359, 360, 361, 362, 363, 364, 365, 366, 367, 368, 369, 370, 371, 372, 373, 374, 375, 376, 377, 378, 379, 380, 381, 382, 383, 384, 385, 386, 387, 388, 389, 390, 391, 392, 393, 394, 395, 396, 397, 398, 399, 400, 401, 402, 403, 404, 405, 406, 407, 408, 409, 410, 411, 412, 413, 414, 415, 416, 417, 418, 419, 420, 421, 422, 423, 424, 425, 426, 427, 428, 429, 430, 431, 432, 433, 434, 435, 436, 437, 438, 439, 440, 441, 442, 443, 444, 445, 446, 447, 448, 449, 450, 451, 452, 453, 454, 455, 456, 457, 458, 459, 460, 461, 462, 463, 464, 465, 466, 467, 468, 469, 470, 471, 472, 473, 474, 475, 476, 477, 478, 479, 480, 481, 482, 483, 484, 485, 486, 487, 488, 489, 490, 491, 492, 493, 494, 495, 496, 497, 498, 499, 500, 501, 502, 503, 504, 505, 506, 507, 508, 509, 510, 511, 512, 513, 514, 515, 516, 517, 518, 519, 520, 521, 522, 523, 524, 525, 526, 527, 528, 529, 530, 531, 532, 533, 534, 535, 536, 537, 538, 539, 540, 541, 542, 543, 544, 545, 546, 547, 548, 549, 550, 551, 552, 553, 554, 555, 556, 557, 558, 559, 560, 561, 562, 563, 564, 565, 566, 567, 568, 569, 570, 571, 572, 573, 574, 575, 576, 577, 578, 579, 580, 581, 582, 583, 584, 585, 586, 587, 588, 589, 590, 591, 592, 593, 594, 595, 596, 597, 598, 599, 600, 601, 602, 603, 604, 605, 606, 607, 608, 609, 610, 611, 612, 613, 614, 615, 616, 617, 618, 619, 620, 621, 622, 623, 624, 625, 626, 627, 628, 629, 630, 631, 632, 633, 634, 635, 636, 637, 638, 639, 640, 641, 642, 643, 644, 645, 646, 647, 648, 649, 650, 651, 652, 653, 654, 655, 656, 657, 658, 659, 660, 661, 662, 663, 664, 665, 666, 667, 668, 669, 670, 671, 672, 673, 674, 675, 676, 677, 678, 679, 680, 681, 682, 683, 684, 685, 686, 687, 688, 689, 690, 691, 692, 693, 694, 695, 696, 697, 698, 699, 700, 701, 702, 703, 704, 705, 706, 707, 708, 709, 710, 711, 712, 713, 714, 715, 716, 717, 718, 719, 720, 721, 722, 723, 724, 725, 726, 727, 728, 729, 730, 731, 732, 733, 734, 735, 736, 737, 738, 739, 740, 741, 742, 743, 744, 745, 746, 747, 748, 749, 750, 751, 752, 753, 754, 755, 756, 757, 758, 759, 760, 761, 762, 763, 764, 765, 766, 767, 768, 769, 770, 771, 772, 773, 774, 775, 776, 777, 778, 779, 780, 781, 782, 783, 784, 785, 786, 787, 788, 789, 790, 791, 792, 793, 794, 795, 796, 797, 798, 799, 800, 801, 802, 803, 804, 805, 806, 807, 808, 809, 810, 811, 812, 813, 814, 815, 816, 817, 818, 819, 820, 821, 822, 823, 824, 825, 826, 827, 828, 829, 830, 831, 832, 833, 834, 835, 836, 837, 838, 839, 840, 841, 842, 843, 844, 845, 846, 847, 848, 849, 850, 851, 852, 853, 854, 855, 856, 857, 858, 859, 860, 861, 862, 863, 864, 865, 866, 867, 868, 869, 870, 871, 872, 873, 874, 875, 876, 877, 878, 879, 880, 881, 882, 883, 884, 885, 886, 887, 888, 889, 890, 891, 892, 893, 894, 895, 896, 897, 898, 899, 900, 901, 902, 903, 904, 905, 906, 907, 908, 909, 910, 911, 912, 913, 914, 915, 916, 917, 918, 919, 920, 921, 922, 923, 924, 925, 926, 927, 928, 929, 930, 931, 932, 933, 934, 935, 936, 937, 938, 939, 940, 941, 942, 943, 944, 945, 946, 947, 948, 949, 950, 951, 952, 953, 954, 955, 956, 957, 958, 959, 960, 961, 962, 963, 964, 965, 966, 967, 968, 969, 970, 971, 972, 973, 974, 975, 976, 977, 978, 979, 980, 981, 982, 983, 984, 985, 986, 987, 988, 989, 990, 991, 992, 993, 994, 995, 996, 997, 998, 999, 1000, 1001, 1002, 1003, 1004, 1005, 1006, 1007, 1008, 1009, 1010, 1011, 1012, 1013, 1014, 1015, 1016, 1017, 1018, 1019, 1020, 1021, 1022, 1023, 1024, 1025, 1026, 1027, 1028, 1029, 1030, 1031, 1032, 1033, 1034, 1035, 1036, 1037, 1038, 1039, 1040, 1041, 1042, 1043, 1044, 1045, 1046, 1047, 1048, 1049, 1050, 1051, 1052, 1053, 1054, 1055, 1056, 1057, 1058, 1059, 1060, 1061, 1062, 1063, 1064, 1065, 1066, 1067, 1068, 1069, 1070, 1071, 1072, 1073, 1074, 1075, 1076, 1077, 1078, 1079, 1080, 1081, 1082, 1083, 1084, 1085, 1086, 1087, 1088, 1089, 1090, 1091, 1092, 1093, 1094, 1095, 1096, 1097, 1098, 1099, 1100, 1101, 1102, 1103, 1104, 1105, 1106, 1107, 1108, 1109, 1110, 1111, 1112, 1113, 1114, 1115, 1116, 1117, 1118, 1119, 1120, 1121, 1122, 1123, 1124, 1125, 1126, 1127, 1128, 1129, 1130, 1131, 1132, 1133, 1134, 1135, 1136, 1137, 1138, 1139, 1140, 1141, 1142, 1143, 1144, 1145, 1146, 1147, 1148, 1149, 1150, 1151, 1152, 1153, 1154, 1155, 1156, 1157, 1158, 1159, 1160, 1161, 1162, 1163, 1164, 1165, 1166, 1167, 1168, 1169, 1170, 1171, 1172, 1173, 1174, 1175, 1176, 1177, 1178, 1179, 1180, 1181, 1182, 1183, 1184, 1185, 1186, 1187, 1188, 1189, 1190, 1191, 1192, 1193, 1194, 1195, 1196, 1197, 1198, 1199, 1200, 1201, 1202, 1203, 1204, 1205, 1206, 1207, 1208, 1209, 1210, 1211, 1212, 1213, 1214, 1215, 1216, 1217, 1218, 1219, 1220, 1221, 1222, 1223, 1224, 1225, 1226, 1227, 1228, 1229, 1230, 1231, 1232, 1233, 1234, 1235, 1236, 1237, 1238, 1239, 1240, 1241, 1242, 1243, 1244, 1245, 1246, 1247, 1248, 1249, 1250, 1251, 1252, 1253, 1254, 1255, 1256, 1257, 1258, 1259, 1260, 1261, 1262, 1263, 1264, 1265, 1266, 1267, 1268, 1269, 1270, 1271, 1272, 1273, 1274, 1275, 1276, 1277, 1278, 1279, 1280, 1281, 1282, 1283, 1284, 1285, 1286, 1287, 1288, 1289, 1290, 1291, 1292, 1293, 1294, 1295, 1296, 1297, 1298, 1299, 1300, 1301, 1302, 1303, 1304, 1305, 1306, 1307, 1308, 1309, 1310, 1311, 1312, 1313, 1314, 1315, 1316, 1317, 1318, 1319, 1320, 1321, 1322, 1323, 1324, 1325, 1326, 1327, 1328, 1329, 1330, 1331, 1332, 1333, 1334, 1335, 1336, 1337, 1338, 1339, 1340, 1341, 1342, 1343, 1344, 1345, 1346, 1347, 1348, 1349, 1350, 1351, 1352, 1353, 1354, 1355, 1356, 1357, 1358, 1359, 1360, 1361, 1362, 1363, 1364, 1365, 1366, 1367, 1368, 1369, 1370, 1371, 1372, 1373, 1374, 1375, 1376, 1377, 1378, 1379, 1380, 1381, 1382, 1383, 1384, 1385, 1386, 1387, 1388, 1389, 1390, 1391, 1392, 1393, 1394, 1395, 1396, 1397, 1398, 1399, 1400, 1401, 1402, 1403, 1404, 1405, 1406, 1407, 1408, 1409, 1410, 1411, 1412, 1413, 1414, 1415, 1416, 1417, 1418, 1419, 1420, 1421, 1422, 1423, 1424, 1425, 1426, 1427, 1428, 1429, 1430, 1431, 1432, 1433, 1434, 1435, 1436, 1437, 1438, 1439, 1440, 1441, 1442, 1443, 1444, 1445, 1446, 1447, 1448, 1449, 1450, 1451, 1452, 1453, 1454, 1455, 1456, 1457, 1458, 1459, 1460, 1461, 1462, 1463, 1464, 1465, 1466, 1467, 1468, 1469, 1470, 1471, 1472, 1473, 1474, 1475, 1476, 1477, 1478, 1479, 1480, 1481, 1482, 1483, 1484, 1485, 1486, 1487, 1488, 1489, 1490, 1491, 1492, 1493, 1494, 1495, 1496, 1497, 1498, 1499, 1500, 1501, 1502, 1503, 1504, 1505, 1506, 1507, 1508, 1509, 1510, 1511, 1512, 1513, 1514, 1515, 1516, 1517, 1518, 1519, 1520, 1521, 1522],
      "AcquisitionTime": ["130041.975000", "130043.475000", "130044.975000", "130046.475000", "130047.975000", "130049.475000", "130050.975000", "130052.475000", "130053.975000", "130055.475000", "130056.975000", "130058.475000", "130059.975000", "130101.475000", "130102.975000", "130104.475000", "130105.975000", "130107.475000", "130108.975000", "130110.475000", "130111.975000", "130113.475000", "130114.975000", "130116.475000", "130117.975000", "130119.475000", "130120.975000", "130122.475000", "130123.975000", "130125.475000", "130126.975000", "130128.475000", "130129.975000", "130131.475000", "130132.975000", "130134.475000", "130135.975000", "130137.475000", "130138.975000", "130140.475000", "130141.975000", "130143.475000", "130144.975000", "130146.475000", "130147.975000", "130149.475000", "130150.975000", "130152.475000", "130153.975000", "130155.475000", "130156.975000", "130158.475000", "130159.975000", "130201.475000", "130202.975000", "130204.475000", "130205.975000", "130207.475000", "130208.975000", "130210.475000", "130211.975000", "130213.475000", "130214.975000", "130216.475000", "130217.975000", "130219.475000", "130220.975000", "130222.475000", "130223.975000", "130225.475000", "130226.975000", "130228.475000", "130229.975000", "130231.475000", "130232.975000", "130234.475000", "130235.975000", "130237.475000", "130238.975000", "130240.475000", "130241.975000", "130243.475000", "130244.975000", "130246.475000", "130247.975000", "130249.475000", "130250.975000", "130252.475000", "130253.975000", "130255.475000", "130256.975000", "130258.475000", "130259.975000", "130301.475000", "130302.975000", "130304.475000", "130305.975000", "130307.475000", "130308.975000", "130310.475000", "130311.975000", "130313.475000", "130314.975000", "130316.475000", "130317.975000", "130319.475000", "130320.975000", "130322.475000", "130323.975000", "130325.475000", "130326.975000", "130328.475000", "130329.975000", "130331.475000", "130332.975000", "130334.475000", "130335.975000", "130337.475000", "130338.975000", "130340.475000", "130341.975000", "130343.475000", "130344.975000", "130346.475000", "130347.975000", "130349.475000", "130350.975000", "130352.475000", "130353.975000", "130355.475000", "130356.975000", "130358.475000", "130359.975000", "130401.475000", "130402.975000", "130404.475000", "130405.975000", "130407.475000", "130408.975000", "130410.475000", "130411.975000", "130413.475000", "130414.975000", "130416.475000", "130417.975000", "130419.475000", "130420.975000", "130422.475000", "130423.975000", "130425.475000", "130426.975000", "130428.475000", "130429.975000", "130431.475000", "130432.975000", "130434.475000", "130435.975000", "130437.475000", "130438.975000", "130440.475000", "130441.975000", "130443.475000", "130444.975000", "130446.475000", "130447.975000", "130449.475000", "130450.975000", "130452.475000", "130453.975000", "130455.475000", "130456.975000", "130458.475000", "130459.975000", "130501.475000", "130502.975000", "130504.475000", "130505.975000", "130507.475000", "130508.975000", "130510.475000", "130511.975000", "130513.475000", "130514.975000", "130516.475000", "130517.975000", "130519.475000", "130520.975000", "130522.475000", "130523.975000", "130525.475000", "130526.975000", "130528.475000", "130529.975000", "130531.475000", "130532.975000", "130534.475000", "130535.975000", "130537.475000", "130538.975000", "130540.475000", "130541.975000", "130543.475000", "130544.975000", "130546.475000", "130547.975000", "130549.475000", "130550.975000", "130552.475000", "130553.975000", "130555.475000", "130556.975000", "130558.475000", "130559.975000", "130601.475000", "130602.975000", "130604.475000", "130605.975000", "130607.475000", "130608.975000", "130610.475000", "130611.975000", "130613.475000", "130614.975000", "130616.475000", "130617.975000", "130619.475000", "130620.975000", "130622.475000", "130623.975000", "130625.475000", "130626.975000", "130628.475000", "130629.975000", "130631.475000", "130632.975000", "130634.475000", "130635.975000", "130637.475000", "130638.975000", "130640.475000", "130641.975000", "130643.475000", "130644.975000", "130646.475000", "130647.975000", "130649.475000", "130650.975000", "130652.475000", "130653.975000", "130655.475000", "130656.975000", "130658.475000", "130659.975000", "130701.475000", "130702.975000", "130704.475000", "130705.975000", "130707.475000", "130708.975000", "130710.475000", "130711.975000", "130713.475000", "130714.975000", "130716.475000", "130717.975000", "130719.475000", "130720.975000", "130722.475000", "130723.975000", "130725.475000", "130726.975000", "130728.475000", "130729.975000", "130731.475000", "130732.975000", "130734.475000", "130735.975000", "130737.475000", "130738.975000", "130740.475000", "130741.975000", "130743.475000", "130744.975000", "130746.475000", "130747.975000", "130749.475000", "130750.975000", "130752.475000", "130753.975000", "130755.475000", "130756.975000", "130758.475000", "130759.975000", "130801.475000", "130802.975000", "130804.475000", "130805.975000", "130807.475000", "130808.975000", "130810.475000", "130811.975000", "130813.475000", "130814.975000", "130816.475000", "130817.975000", "130819.475000", "130820.975000", "130822.475000", "130823.975000", "130825.475000", "130826.975000", "130828.475000", "130829.975000", "130831.475000", "130832.975000", "130834.475000", "130835.975000", "130837.475000", "130838.975000", "130840.475000", "130841.975000", "130843.475000", "130844.975000", "130846.475000", "130847.975000", "130849.475000", "130850.975000", "130852.475000", "130853.975000", "130855.475000", "130856.975000", "130858.475000", "130859.975000", "130901.475000", "130902.975000", "130904.475000", "130905.975000", "130907.475000", "130908.975000", "130910.475000", "130911.975000", "130913.475000", "130914.975000", "130916.475000", "130917.975000", "130919.475000", "130920.975000", "130922.475000", "130923.975000", "130925.475000", "130926.975000", "130928.475000", "130929.975000", "130931.475000", "130932.975000", "130934.475000", "130935.975000", "130937.475000", "130938.975000", "130940.475000", "130941.975000", "130943.475000", "130944.975000", "130946.475000", "130947.975000", "130949.475000", "130950.975000", "130952.475000", "130953.975000", "130955.475000", "130956.975000", "130958.475000", "130959.975000", "131001.475000", "131002.975000", "131004.475000", "131005.975000", "131007.475000", "131008.975000", "131010.475000", "131011.975000", "131013.475000", "131014.975000", "131016.475000", "131017.975000", "131019.475000", "131020.975000", "131022.475000", "131023.975000", "131025.475000", "131026.975000", "131028.475000", "131029.975000", "131031.475000", "131032.975000", "131034.475000", "131035.975000", "131037.475000", "131038.975000", "131040.475000", "131041.975000", "131043.475000", "131044.975000", "131046.475000", "131047.975000", "131049.475000", "131050.975000", "131052.475000", "131053.975000", "131055.475000", "131056.975000", "131058.475000", "131059.975000", "131101.475000", "131102.975000", "131104.475000", "131105.975000", "131107.475000", "131108.975000", "131110.475000", "131111.975000", "131113.475000", "131114.975000", "131116.475000", "131117.975000", "131119.475000", "131120.975000", "131122.475000", "131123.975000", "131125.475000", "131126.975000", "131128.475000", "131129.975000", "131131.475000", "131132.975000", "131134.475000", "131135.975000", "131137.475000", "131138.975000", "131140.475000", "131141.975000", "131143.475000", "131144.975000", "131146.475000", "131147.975000", "131149.475000", "131150.975000", "131152.475000", "131153.975000", "131155.475000", "131156.975000", "131158.475000", "131159.975000", "131201.475000", "131202.975000", "131204.475000", "131205.975000", "131207.475000", "131208.975000", "131210.475000", "131211.975000", "131213.475000", "131214.975000", "131216.475000", "131217.975000", "131219.475000", "131220.975000", "131222.475000", "131223.975000", "131225.475000", "131226.975000", "131228.475000", "131229.975000", "131231.475000", "131232.975000", "131234.475000", "131235.975000", "131237.475000", "131238.975000", "131240.475000", "131241.975000", "131243.475000", "131244.975000", "131246.475000", "131247.975000", "131249.475000", "131250.975000", "131252.475000", "131253.975000", "131255.475000", "131256.975000", "131258.475000", "131259.975000", "131301.475000", "131302.975000", "131304.475000", "131305.975000", "131307.475000", "131308.975000", "131310.475000", "131311.975000", "131313.475000", "131314.975000", "131316.475000", "131317.975000", "131319.475000", "131320.975000", "131322.475000", "131323.975000", "131325.475000", "131326.975000", "131328.475000", "131329.975000", "131331.475000", "131332.975000", "131334.475000", "131335.975000", "131337.475000", "131338.975000", "131340.475000", "131341.975000", "131343.475000", "131344.975000", "131346.475000", "131347.975000", "131349.475000", "131350.975000", "131352.475000", "131353.975000", "131355.475000", "131356.975000", "131358.475000", "131359.975000", "131401.475000", "131402.975000", "131404.475000", "131405.975000", "131407.475000", "131408.975000", "131410.475000", "131411.975000", "131413.475000", "131414.975000", "131416.475000", "131417.975000", "131419.475000", "131420.975000", "131422.475000", "131423.975000", "131425.475000", "131426.975000", "131428.475000", "131429.975000", "131431.475000", "131432.975000", "131434.475000", "131435.975000", "131437.475000", "131438.975000", "131440.475000", "131441.975000", "131443.475000", "131444.975000", "131446.475000", "131447.975000", "131449.475000", "131450.975000", "131452.475000", "131453.975000", "131455.475000", "131456.975000", "131458.475000", "131459.975000", "131501.475000", "131502.975000", "131504.475000", "131505.975000", "131507.475000", "131508.975000", "131510.475000", "131511.975000", "131513.475000", "131514.975000", "131516.475000", "131517.975000", "131519.475000", "131520.975000", "131522.475000", "131523.975000", "131525.475000", "131526.975000", "131528.475000", "131529.975000", "131531.475000", "131532.975000", "131534.475000", "131535.975000", "131537.475000", "131538.975000", "131540.475000", "131541.975000", "131543.475000", "131544.975000", "131546.475000", "131547.975000", "131549.475000", "131550.975000", "131552.475000", "131553.975000", "131555.475000", "131556.975000", "131558.475000", "131559.975000", "131601.475000", "131602.975000", "131604.475000", "131605.975000", "131607.475000", "131608.975000", "131610.475000", "131611.975000", "131613.475000", "131614.975000", "131616.475000", "131617.975000", "131619.475000", "131620.975000", "131622.475000", "131623.975000", "131625.475000", "131626.975000", "131628.475000", "131629.975000", "131631.475000", "131632.975000", "131634.475000", "131635.975000", "131637.475000", "131638.975000", "131640.475000", "131641.975000", "131643.475000", "131644.975000", "131646.475000", "131647.975000", "131649.475000", "131650.975000", "131652.475000", "131653.975000", "131655.475000", "131656.975000", "131658.475000", "131659.975000", "131701.475000", "131702.975000", "131704.475000", "131705.975000", "131707.475000", "131708.975000", "131710.475000", "131711.975000", "131713.475000", "131714.975000", "131716.475000", "131717.975000", "131719.475000", "131720.975000", "131722.475000", "131723.975000", "131725.475000", "131726.975000", "131728.475000", "131729.975000", "131731.475000", "131732.975000", "131734.475000", "131735.975000", "131737.475000", "131738.975000", "131740.475000", "131741.975000", "131743.475000", "131744.975000", "131746.475000", "131747.975000", "131749.475000", "131750.975000", "131752.475000", "131753.975000", "131755.475000", "131756.975000", "131758.475000", "131759.975000", "131801.475000", "131802.975000", "131804.475000", "131805.975000", "131807.475000", "131808.975000", "131810.475000", "131811.975000", "131813.475000", "131814.975000", "131816.475000", "131817.975000", "131819.475000", "131820.975000", "131822.475000", "131823.975000", "131825.475000", "131826.975000", "131828.475000", "131829.975000", "131831.475000", "131832.975000", "131834.475000", "131835.975000", "131837.475000", "131838.975000", "131840.475000", "131841.975000", "131843.475000", "131844.975000", "131846.475000", "131847.975000", "131849.475000", "131850.975000", "131852.475000", "131853.975000", "131855.475000", "131856.975000", "131858.475000", "131859.975000", "131901.475000", "131902.975000", "131904.475000", "131905.975000", "131907.475000", "131908.975000", "131910.475000", "131911.975000", "131913.475000", "131914.975000", "131916.475000", "131917.975000", "131919.475000", "131920.975000", "131922.475000", "131923.975000", "131925.475000", "131926.975000", "131928.475000", "131929.975000", "131931.475000", "131932.975000", "131934.475000", "131935.975000", "131937.475000", "131938.975000", "131940.475000", "131941.975000", "131943.475000", "131944.975000", "131946.475000", "131947.975000", "131949.475000", "131950.975000", "131952.475000", "131953.975000", "131955.475000", "131956.975000", "131958.475000", "131959.975000", "132001.475000", "132002.975000", "132004.475000", "132005.975000", "132007.475000", "132008.975000", "132010.475000", "132011.975000", "132013.475000", "132014.975000", "132016.475000", "132017.975000", "132019.475000", "132020.975000", "132022.475000", "132023.975000", "132025.475000", "132026.975000", "132028.475000", "132029.975000", "132031.475000", "132032.975000", "132034.475000", "132035.975000", "132037.475000", "132038.975000", "132040.475000", "132041.975000", "132043.475000", "132044.975000", "132046.475000", "132047.975000", "132049.475000", "132050.975000", "132052.475000", "132053.975000", "132055.475000", "132056.975000", "132058.475000", "132059.975000", "132101.475000", "132102.975000", "132104.475000", "132105.975000", "132107.475000", "132108.975000", "132110.475000", "132111.975000", "132113.475000", "132114.975000", "132116.475000", "132117.975000", "132119.475000", "132120.975000", "132122.475000", "132123.975000", "132125.475000", "132126.975000", "132128.475000", "132129.975000", "132131.475000", "132132.975000", "132134.475000", "132135.975000", "132137.475000", "132138.975000", "132140.475000", "132141.975000", "132143.475000", "132144.975000", "132146.475000", "132147.975000", "132149.475000", "132150.975000", "132152.475000", "132153.975000", "132155.475000", "132156.975000", "132158.475000", "132159.975000", "132201.475000", "132202.975000", "132204.475000", "132205.975000", "132207.475000", "132208.975000", "132210.475000", "132211.975000", "132213.475000", "132214.975000", "132216.475000", "132217.975000", "132219.475000", "132220.975000", "132222.475000", "132223.975000", "132225.475000", "132226.975000", "132228.475000", "132229.975000", "132231.475000", "132232.975000", "132234.475000", "132235.975000", "132237.475000", "132238.975000", "132240.475000", "132241.975000", "132243.475000", "132244.975000", "132246.475000", "132247.975000", "132249.475000", "132250.975000", "132252.475000", "132253.975000", "132255.475000", "132256.975000", "132258.475000", "132259.975000", "132301.475000", "132302.975000", "132304.475000", "132305.975000", "132307.475000", "132308.975000", "132310.475000", "132311.975000", "132313.475000", "132314.975000", "132316.475000", "132317.975000", "132319.475000", "132320.975000", "132322.475000", "132323.975000", "132325.475000", "132326.975000", "132328.475000", "132329.975000", "132331.475000", "132332.975000", "132334.475000", "132335.975000", "132337.475000", "132338.975000", "132340.475000", "132341.975000", "132343.475000", "132344.975000", "132346.475000", "132347.975000", "132349.475000", "132350.975000", "132352.475000", "132353.975000", "132355.475000", "132356.975000", "132358.475000", "132359.975000", "132401.475000", "132402.975000", "132404.475000", "132405.975000", "132407.475000", "132408.975000", "132410.475000", "132411.975000", "132413.475000", "132414.975000", "132416.475000", "132417.975000", "132419.475000", "132420.975000", "132422.475000", "132423.975000", "132425.475000", "132426.975000", "132428.475000", "132429.975000", "132431.475000", "132432.975000", "132434.475000", "132435.975000", "132437.475000", "132438.975000", "132440.475000",