{
  "AcquisitionMatrixPE": 106,
  "AcquisitionNumber": 1,
  "AcquisitionTime": "10:17:56.237500",
  "BandwidthPerPixelPhaseEncode": 16.846,
  "BaseResolution": 106,
  "BodyPartExamined": "BRAIN",
  "CoilCombinationMethod": "Sum of Squares",
  "ConsistencyInfo": "N4_VE11C_LATEST_20160120",
  "ConversionSoftware": "dcm2niix",
  "ConversionSoftwareVersion": "v1.0.20220720",
  "DerivedVendorReportedEchoSpacing": 0.000560012,
  "DeviceSerialNumber": "166108",
  "DwellTime": 1.8e-06,
  "EchoTime": 0.0352,
  "EchoTrainLength": 106,
  "EffectiveEchoSpacing": 0.000560012,
  "FlipAngle": 60,
  "HeudiconvVersion": "1.3.0",
  "ImageComments": "Unaliased MB4/PE3/LB",
  "ImageOrientationPatientDICOM": [1, 0, 0, 0, 1, 0],
  "ImageOrientationText": "Tra",
  "ImageType": [
    "ORIGINAL",
    "PRIMARY",
    "M",
    "MB",
    "ND",
    "MOSAIC"
],
  "ImagingFrequency": 123.244,
  "InPlanePhaseEncodingDirectionDICOM": "COL",
  "InstitutionAddress": "Bedford Way 26,London,London,GB,WC1H 0AP",
  "InstitutionName": "University College",
  "InstitutionalDepartmentName": "Department",
  "MRAcquisitionType": "2D",
  "MagneticFieldStrength": 3,
  "Manufacturer": "Siemens",
  "ManufacturersModelName": "Prisma",
  "MatrixCoilMode": "SENSE",
  "Modality": "MR",
  "MultibandAccelerationFactor": 4,
  "NonlinearGradientCorrection": false,
  "PartialFourier": 1,
  "PatientPosition": "HFS",
  "PercentPhaseFOV": 100,
  "PercentSampling": 100,
  "PhaseEncodingDirection": "j-",
  "PhaseEncodingSteps": 106,
  "PhaseResolution": 1,
  "PixelBandwidth": 2620,
  "ProcedureStepDescription": "Egor^MovieProject2",
  "ProtocolName": "task-backtothefuture_run-2",
  "PulseSequenceDetails": "%CustomerSeq%\\cmrr_mbep2d_bold",
  "ReceiveCoilActiveElements": "HEA;HEP",
  "ReceiveCoilName": "Head_32",
  "ReconMatrixPE": 106,
  "RepetitionTime": 1.5,
  "SAR": 0.0828787,
  "ScanOptions": "FS\\EXT",
  "ScanningSequence": "EP",
  "SequenceName": "epfid2d1_106",
  "SequenceVariant": "SK\\SS",
  "SeriesDescription": "task-backtothefuture_run-2",
  "SeriesNumber": 7,
  "ShimSetting": [-1562, 576, 7425, 428, -91, -38, 140, -17],
  "SliceThickness": 2,
  "SliceTiming": [0, 1.0675, 0.6575, 0.245, 1.315, 0.9025, 0.4925, 0.0825, 1.15, 0.74, 0.3275, 1.3975, 0.985, 0.575, 0.1625, 1.2325, 0.82, 0.41, 0, 1.0675, 0.6575, 0.245, 1.315, 0.9025, 0.4925, 0.0825, 1.15, 0.74, 0.3275, 1.3975, 0.985, 0.575, 0.1625, 1.2325, 0.82, 0.41, 0, 1.0675, 0.6575, 0.245, 1.315, 0.9025, 0.4925, 0.0825, 1.15, 0.74, 0.3275, 1.3975, 0.985, 0.575, 0.1625, 1.2325, 0.82, 0.41, 0, 1.0675, 0.6575, 0.245, 1.315, 0.9025, 0.4925, 0.0825, 1.15, 0.74, 0.3275, 1.3975, 0.985, 0.575, 0.1625, 1.2325, 0.82, 0.41],
  "SoftwareVersions": "syngo MR E11",
  "SpacingBetweenSlices": 2,
  "StationName": "AWP166108",
  "TaskName": "backtothefuture",
  "TotalReadoutTime": 0.0588013,
  "TxRefAmp": 231.137,
  "WipMemBlock": "5db2f9f5-3317-4156-a0f3-e1423cfd5182||Sequence: R016 ve11c/master r/e634e98; Dec 19 2017 11:00:25 by eja",
  "dcmmeta_affine": [
    [-2.0, 0.0, 0.0, 106.0],
    [0.0, 2.0, 0.0, -83.51807403564453],
    [0.0, 0.0, 2.0, -45.698795318603516],
    [0.0, 0.0, 0.0, 1.0]
],
  "dcmmeta_reorient_transform": [
    [0.0, -1.0, 0.0, 105.0],
    [1.0, 0.0, 0.0, 0.0],
    [0.0, 0.0, 1.0, 0.0],
    [0.0, 0.0, 0.0, 1.0]
],
  "dcmmeta_shape": [106, 106, 72, 1522],
  "dcmmeta_slice_dim": 2,
  "dcmmeta_version": 0.6,
  "global": {
    "const": {
      "AcquisitionMatrix": [106, 0, 0, 106],
      "AngioFlag": "N",
      "BitsAllocated": 16,
      "BitsStored": 16,
      "BodyPartExamined": "BRAIN",
      "CardiacNumberOfImages": 1,
      "Columns": 954,
      "EchoNumbers": 1,
      "EchoTime": 35.2,
      "EchoTrainLength": 106,
      "FlipAngle": 60.0,
      "HighBit": 15,
      "ImageOrientationPatient": [1.0, 0.0, 0.0, 0.0, 1.0, 0.0],
      "ImagePositionPatient": [-954.0, -974.4819278717, -45.698795318604],
      "ImageType": [
        "ORIGINAL",
        "PRIMARY",
        "M",
        "MB",
        "ND",
        "MOSAIC"
],
      "ImagedNucleus": "1H",
      "ImagingFrequency": 123.243689,
      "InPlanePhaseEncodingDirection": "COL",
      "MRAcquisitionType": "2D",
      "MagneticFieldStrength": 3.0,
      "Manufacturer": "SIEMENS",
      "ManufacturerModelName": "Prisma",
      "Modality": "MR",
      "NominalInterval": 0,
      "NumberOfAverages": 1.0,
      "NumberOfPhaseEncodingSteps": 106,
      "PercentPhaseFieldOfView": 100.0,
      "PercentSampling": 100.0,
      "PerformedProcedureStepStartTime": "091113.935000",
      "PhotometricInterpretation": "MONOCHROME2",
      "PixelBandwidth": 2620.0,
      "PixelRepresentation": 0,
      "PixelSpacing": [2.0, 2.0],
      "ProtocolName": "task-backtothefuture_run-2",
      "RepetitionTime": 1500.0,
      "Rows": 954,
      "SAR": 0.08287873000269,
      "SamplesPerPixel": 1,
      "ScanOptions": [
        "FS",
        "EXT"
],
      "ScanningSequence": "EP",
      "SequenceName": "epfid2d1_106",
      "SequenceVariant": [
        "SK",
        "SS"
],
      "SeriesDescription": "task-backtothefuture_run-2",
      "SeriesNumber": 7,
      "SeriesTime": "101839.977000",
      "SliceLocation": -45.698795318604,
      "SliceThickness": 2.0,
      "SmallestImagePixelValue": 0,
      "SoftwareVersions": "syngo MR E11",
      "SpacingBetweenSlices": 2.0000000537281,
      "SpecificCharacterSet": "ISO_IR 100",
      "StudyID": "1",
      "StudyTime": "091113.875000",
      "TransmitCoilName": "Body",
      "VariableFlipAngleFlag": "N",
      "WindowCenterWidthExplanation": "Algo1",
      "dBdt": 0.0},
    "slices": {}
  },
  "time": {
    "samples": {
      "AcquisitionNumber": [1, 2, 3, 4, 5, 6, 7, 8, 9, 10, 11, 12, 13, 14, 15, 16, 17, 18, 19, 20, 21, 22, 23, 24, 25, 26, 27, 28, 29, 30, 31, 32, 33, 34, 35, 36, 37, 38, 39, 40, 41, 42, 43, 44, 45, 46, 47, 48, 49, 50, 51, 52, 53, 54, 55, 56, 57, 58, 59, 60, 61, 62, 63, 64, 65, 66, 67, 68, 69, 70, 71, 72, 73, 74, 75, 76, 77, 78, 79, 80, 81, 82, 83, 84, 85, 86, 87, 88, 89, 90, 91, 92, 93, 94, 95, 96, 97, 98, 99, 100, 101, 102, 103, 104, 105, 106, 107, 108, 109, 110, 111, 112, 113, 114, 115, 116, 117, 118, 119, 120, 121, 122, 123, 124, 125, 126, 127, 128, 129, 130, 131, 132, 133, 134, 135, 136, 137, 138, 139, 140, 141, 142, 143, 144, 145, 146, 147, 148, 149, 150, 151, 152, 153, 154, 155, 156, 157, 158, 159, 160, 161, 162, 163, 164, 165, 166, 167, 168, 169, 170, 171, 172, 173, 174, 175, 176, 177, 178, 179, 180, 181, 182, 183, 184, 185, 186, 187, 188, 189, 190, 191, 192, 193, 194, 195, 196, 197, 198, 199, 200, 201, 202, 203, 204, 205, 206, 207, 208, 209, 210, 211, 212, 213, 214, 215, 216, 217, 218, 219, 220, 221, 222, 223, 224, 225, 226, 227, 228, 229, 230, 231, 232, 233, 234, 235, 236, 237, 238, 239, 240, 241, 242, 243, 244, 245, 246, 247, 248, 249, 250, 251, 252, 253, 254, 255, 256, 257, 258, 259, 260, 261, 262, 263, 264, 265, 266, 267, 268, 269, 270, 271, 272, 273, 274, 275, 276, 277, 278, 279, 280, 281, 282, 283, 284, 285, 286, 287, 288, 289, 290, 291, 292, 293, 294, 295, 296, 297, 298, 299, 300, 301, 302, 303, 304, 305, 306, 307, 308, 309, 310, 311, 312, 313, 314, 315, 316, 317, 318, 319, 320, 321, 322, 323, 324, 325, 326, 327, 328, 329, 330, 331, 332, 333, 334, 335, 336, 337, 338, 339, 340, 341, 342, 343, 344, 345, 346, 347, 348, 349, 350, 351, 352, 353, 354, 355, 356, 357, 358, 359, 360, 361, 362, 363, 364, 365, 366, 367, 368, 369, 370, 371, 372, 373, 374, 375, 376, 377, 378, 379, 380, 381, 382, 383, 384, 385, 386, 387, 388, 389, 390, 391, 392, 393, 394, 395, 396, 397, 398, 399, 400, 401, 402, 403, 404, 405, 406, 407, 408, 409, 410, 411, 412, 413, 414, 415, 416, 417, 418, 419, 420, 421, 422, 423, 424, 425, 426, 427, 428, 429, 430, 431, 432, 433, 434, 435, 436, 437, 438, 439, 440, 441, 442, 443, 444, 445, 446, 447, 448, 449, 450, 451, 452, 453, 454, 455, 456, 457, 458, 459, 460, 461, 462, 463, 464, 465, 466, 467, 468, 469, 470, 471, 472, 473, 474, 475, 476, 477, 478, 479, 480, 481, 482, 483, 484, 485, 486, 487, 488, 489, 490, 491, 492, 493, 494, 495, 496, 497, 498, 499, 500, 501, 502, 503, 504, 505, 506, 507, 508, 509, 510, 511, 512, 513, 514, 515, 516, 517, 518, 519, 520, 521, 522, 523, 524, 525, 526, 527, 528, 529, 530, 531, 532, 533, 534, 535, 536, 537, 538, 539, 540, 541, 542, 543, 544, 545, 546, 547, 548, 549, 550, 551, 552, 553, 554, 555, 556, 557, 558, 559, 560, 561, 562, 563, 564, 565, 566, 567, 568, 569, 570, 571, 572, 573, 574, 575, 576, 577, 578, 579, 580, 581, 582, 583, 584, 585, 586, 587, 588, 589, 590, 591, 592, 593, 594, 595, 596, 597, 598, 599, 600, 601, 602, 603, 604, 605, 606, 607, 608, 609, 610, 611, 612, 613, 614, 615, 616, 617, 618, 619, 620, 621, 622, 623, 624, 625, 626, 627, 628, 629, 630, 631, 632, 633, 634, 635, 636, 637, 638, 639, 640, 641, 642, 643, 644, 645, 646, 647, 648, 649, 650, 651, 652, 653, 654, 655, 656, 657, 658, 659, 660, 661, 662, 663, 664, 665, 666, 667, 668, 669, 670, 671, 672, 673, 674, 675, 676, 677, 678, 679, 680, 681, 682, 683, 684, 685, 686, 687, 688, 689, 690, 691, 692, 693, 694, 695, 696, 697, 698, 699, 700, 701, 702, 703, 704, 705, 706, 707, 708, 709, 710, 711, 712, 713, 714, 715, 716, 717, 718, 719, 720, 721, 722, 723, 724, 725, 726, 727, 728, 729, 730, 731, 732, 733, 734, 735, 736, 737, 738, 739, 740, 741, 742, 743, 744, 745, 746, 747, 748, 749, 750, 751, 752, 753, 754, 755, 756, 757, 758, 759, 760, 761, 762, 763, 764, 765, 766, 767, 768, 769, 770, 771, 772, 773, 774, 775, 776, 777, 778, 779, 780, 781, 782, 783, 784, 785, 786, 787, 788, 789, 790, 791, 792, 793, 794, 795, 796, 797, 798, 799, 800, 801, 802, 803, 804, 805, 806, 807, 808, 809, 810, 811, 812, 813, 814, 815, 816, 817, 818, 819, 820, 821, 822, 823, 824, 825, 826, 827, 828, 829, 830, 831, 832, 833, 834, 835, 836, 837, 838, 839, 840, 841, 842, 843, 844, 845, 846, 847, 848, 849, 850, 851, 852, 853, 854, 855, 856, 857, 858, 859, 860, 861, 862, 863, 864, 865, 866, 867, 868, 869, 870, 871, 872, 873, 874, 875, 876, 877, 878, 879, 880, 881, 882, 883, 884, 885, 886, 887, 888, 889, 890, 891, 892, 893, 894, 895, 896, 897, 898, 899, 900, 901, 902, 903, 904, 905, 906, 907, 908, 909, 910, 911, 912, 913, 914, 915, 916, 917, 918, 919, 920, 921, 922, 923, 924, 925, 926, 927, 928, 929, 930, 931, 932, 933, 934, 935, 936, 937, 938, 939, 940, 941, 942, 943, 944, 945, 946, 947, 948, 949, 950, 951, 952, 953, 954, 955, 956, 957, 958, 959, 960, 961, 962, 963, 964, 965, 966, 967, 968, 969, 970, 971, 972, 973, 974, 975, 976, 977, 978, 979, 980, 981, 982, 983, 984, 985, 986, 987, 988, 989, 990, 991, 992, 993, 994, 995, 996, 997, 998, 999, 1000, 1001, 1002, 1003, 1004, 1005, 1006, 1007, 1008, 1009, 1010, 1011, 1012, 1013, 1014, 1015, 1016, 1017, 1018, 1019, 1020, 1021, 1022, 1023, 1024, 1025, 1026, 1027, 1028, 1029, 1030, 1031, 1032, 1033, 1034, 1035, 1036, 1037, 1038, 1039, 1040, 1041, 1042, 1043, 1044, 1045, 1046, 1047, 1048, 1049, 1050, 1051, 1052, 1053, 1054, 1055, 1056, 1057, 1058, 1059, 1060, 1061, 1062, 1063, 1064, 1065, 1066, 1067, 1068, 1069, 1070, 1071, 1072, 1073, 1074, 1075, 1076, 1077, 1078, 1079, 1080, 1081, 1082, 1083, 1084, 1085, 1086, 1087, 1088, 1089, 1090, 1091, 1092, 1093, 1094, 1095, 1096, 1097, 1098, 1099, 1100, 1101, 1102, 1103, 1104, 1105, 1106, 1107, 1108, 1109, 1110, 1111, 1112, 1113, 1114, 1115, 1116, 1117, 1118, 1119, 1120, 1121, 1122, 1123, 1124, 1125, 1126, 1127, 1128, 1129, 1130, 1131, 1132, 1133, 1134, 1135, 1136, 1137, 1138, 1139, 1140, 1141, 1142, 1143, 1144, 1145, 1146, 1147, 1148, 1149, 1150, 1151, 1152, 1153, 1154, 1155, 1156, 1157, 1158, 1159, 1160, 1161, 1162, 1163, 1164, 1165, 1166, 1167, 1168, 1169, 1170, 1171, 1172, 1173, 1174, 1175, 1176, 1177, 1178, 1179, 1180, 1181, 1182, 1183, 1184, 1185, 1186, 1187, 1188, 1189, 1190, 1191, 1192, 1193, 1194, 1195, 1196, 1197, 1198, 1199, 1200, 1201, 1202, 1203, 1204, 1205, 1206, 1207, 1208, 1209, 1210, 1211, 1212, 1213, 1214, 1215, 1216, 1217, 1218, 1219, 1220, 1221, 1222, 1223, 1224, 1225, 1226, 1227, 1228, 1229, 1230, 1231, 1232, 1233, 1234, 1235, 1236, 1237, 1238, 1239, 1240, 1241, 1242, 1243, 1244, 1245, 1246, 1247, 1248, 1249, 1250, 1251, 1252, 1253, 1254, 1255, 1256, 1257, 1258, 1259, 1260, 1261, 1262, 1263, 1264, 1265, 1266, 1267, 1268, 1269, 1270, 1271, 1272, 1273, 1274, 1275, 1276, 1277, 1278, 1279, 1280, 1281, 1282, 1283, 1284, 1285, 1286, 1287, 1288, 1289, 1290, 1291, 1292, 1293, 1294, 1295, 1296, 1297, 1298, 1299, 1300, 1301, 1302, 1303, 1304, 1305, 1306, 1307, 1308, 1309, 1310, 1311, 1312, 1313, 1314, 1315, 1316, 1317, 1318, 1319, 1320, 1321, 1322, 1323, 1324, 1325, 1326, 1327, 1328, 1329, 1330, 1331, 1332, 1333, 1334, 1335, 1336, 1337, 1338, 1339, 1340, 1341, 1342, 1343, 1344, 1345, 1346, 1347, 1348, 1349, 1350, 1351, 1352, 1353, 1354, 1355, 1356, 1357, 1358, 1359, 1360, 1361, 1362, 1363, 1364, 1365, 1366, 1367, 1368, 1369, 1370, 1371, 1372, 1373, 1374, 1375, 1376, 1377, 1378, 1379, 1380, 1381, 1382, 1383, 1384, 1385, 1386, 1387, 1388, 1389, 1390, 1391, 1392, 1393, 1394, 1395, 1396, 1397, 1398, 1399, 1400, 1401, 1402, 1403, 1404, 1405, 1406, 1407, 1408, 1409, 1410, 1411, 1412, 1413, 1414, 1415, 1416, 1417, 1418, 1419, 1420, 1421, 1422, 1423, 1424, 1425, 1426, 1427, 1428, 1429, 1430, 1431, 1432, 1433, 1434, 1435, 1436, 1437, 1438, 1439, 1440, 1441, 1442, 1443, 1444, 1445, 1446, 1447, 1448, 1449, 1450, 1451, 1452, 1453, 1454, 1455, 1456, 1457, 1458, 1459, 1460, 1461, 1462, 1463, 1464, 1465, 1466, 1467, 1468, 1469, 1470, 1471, 1472, 1473, 1474, 1475, 1476, 1477, 1478, 1479, 1480, 1481, 1482, 1483, 1484, 1485, 1486, 1487, 1488, 1489, 1490, 1491, 1492, 1493, 1494, 1495, 1496, 1497, 1498, 1499, 1500, 1501, 1502, 1503, 1504, 1505, 1506, 1507, 1508, 1509, 1510, 1511, 1512, 1513, 1514, 1515, 1516, 1517, 1518, 1519, 1520, 1521, 1522],
      "AcquisitionTime": ["101756.237500", "101757.737500", "101759.237500", "101800.737500", "101802.237500", "101803.737500", "101805.237500", "101806.737500", "101808.237500", "101809.737500", "101811.237500", "101812.737500", "101814.237500", "101815.737500", "101817.237500", "101818.737500", "101820.237500", "101821.737500", "101823.237500", "101824.737500", "101826.237500", "101827.737500", "101829.237500", "101830.737500", "101832.237500", "101833.737500", "101835.237500", "101836.737500", "101838.237500", "101839.737500", "101841.237500", "101842.737500", "101844.237500", "101845.737500", "101847.237500", "101848.737500", "101850.237500", "101851.737500", "101853.237500", "101854.737500", "101856.237500", "101857.737500", "101859.237500", "101900.737500", "101902.237500", "101903.737500", "101905.237500", "101906.737500", "101908.237500", "101909.737500", "101911.237500", "101912.737500", "101914.237500", "101915.737500", "101917.237500", "101918.737500", "101920.237500", "101921.737500", "101923.237500", "101924.737500", "101926.237500", "101927.737500", "101929.237500", "101930.737500", "101932.237500", "101933.737500", "101935.237500", "101936.737500", "101938.237500", "101939.737500", "101941.237500", "101942.737500", "101944.237500", "101945.737500", "101947.237500", "101948.737500", "101950.237500", "101951.737500", "101953.237500", "101954.737500", "101956.237500", "101957.737500", "101959.237500", "102000.737500", "102002.237500", "102003.737500", "102005.237500", "102006.737500", "102008.237500", "102009.737500", "102011.237500", "102012.737500", "102014.237500", "102015.737500", "102017.237500", "102018.737500", "102020.237500", "102021.737500", "102023.237500", "102024.737500", "102026.237500", "102027.737500", "102029.237500", "102030.737500", "102032.237500", "102033.737500", "102035.237500", "102036.737500", "102038.237500", "102039.737500", "102041.237500", "102042.737500", "102044.237500", "102045.737500", "102047.237500", "102048.737500", "102050.237500", "102051.737500", "102053.237500", "102054.737500", "102056.237500", "102057.737500", "102059.237500", "102100.737500", "102102.237500", "102103.737500", "102105.237500", "102106.737500", "102108.237500", "102109.737500", "102111.237500", "102112.737500", "102114.237500", "102115.737500", "102117.237500", "102118.737500", "102120.237500", "102121.737500", "102123.237500", "102124.737500", "102126.237500", "102127.737500", "102129.237500", "102130.737500", "102132.237500", "102133.737500", "102135.237500", "102136.737500", "102138.237500", "102139.737500", "102141.237500", "102142.737500", "102144.237500", "102145.737500", "102147.237500", "102148.737500", "102150.237500", "102151.737500", "102153.237500", "102154.737500", "102156.237500", "102157.737500", "102159.237500", "102200.737500", "102202.237500", "102203.737500", "102205.237500", "102206.737500", "102208.237500", "102209.737500", "102211.237500", "102212.737500", "102214.237500", "102215.737500", "102217.237500", "102218.737500", "102220.237500", "102221.737500", "102223.237500", "102224.737500", "102226.237500", "102227.737500", "102229.237500", "102230.737500", "102232.237500", "102233.737500", "102235.237500", "102236.737500", "102238.237500", "102239.737500", "102241.237500", "102242.737500", "102244.237500", "102245.737500", "102247.237500", "102248.737500", "102250.237500", "102251.737500", "102253.237500", "102254.737500", "102256.237500", "102257.737500", "102259.237500", "102300.737500", "102302.237500", "102303.737500", "102305.237500", "102306.737500", "102308.237500", "102309.737500", "102311.237500", "102312.737500", "102314.237500", "102315.737500", "102317.237500", "102318.737500", "102320.237500", "102321.737500", "102323.237500", "102324.737500", "102326.237500", "102327.737500", "102329.237500", "102330.737500", "102332.237500", "102333.737500", "102335.237500", "102336.737500", "102338.237500", "102339.737500", "102341.237500", "102342.737500", "102344.237500", "102345.737500", "102347.237500", "102348.737500", "102350.237500", "102351.737500", "102353.237500", "102354.737500", "102356.237500", "102357.737500", "102359.237500", "102400.737500", "102402.237500", "102403.737500", "102405.237500", "102406.737500", "102408.237500", "102409.737500", "102411.237500", "102412.737500", "102414.237500", "102415.737500", "102417.237500", "102418.737500", "102420.237500", "102421.737500", "102423.237500", "102424.737500", "102426.237500", "102427.737500", "102429.237500", "102430.737500", "102432.237500", "102433.737500", "102435.237500", "102436.737500", "102438.237500", "102439.737500", "102441.237500", "102442.737500", "102444.237500", "102445.737500", "102447.237500", "102448.737500", "102450.237500", "102451.737500", "102453.237500", "102454.737500", "102456.237500", "102457.737500", "102459.237500", "102500.737500", "102502.237500", "102503.737500", "102505.237500", "102506.737500", "102508.237500", "102509.737500", "102511.237500", "102512.737500", "102514.237500", "102515.737500", "102517.237500", "102518.737500", "102520.237500", "102521.737500", "102523.237500", "102524.737500", "102526.237500", "102527.737500", "102529.237500", "102530.737500", "102532.237500", "102533.737500", "102535.237500", "102536.737500", "102538.237500", "102539.737500", "102541.237500", "102542.737500", "102544.237500", "102545.737500", "102547.237500", "102548.737500", "102550.237500", "102551.737500", "102553.237500", "102554.737500", "102556.237500", "102557.737500", "102559.237500", "102600.737500", "102602.237500", "102603.737500", "102605.237500", "102606.737500", "102608.237500", "102609.737500", "102611.237500", "102612.737500", "102614.237500", "102615.737500", "102617.237500", "102618.737500", "102620.237500", "102621.737500", "102623.237500", "102624.737500", "102626.237500", "102627.737500", "102629.237500", "102630.737500", "102632.237500", "102633.737500", "102635.237500", "102636.737500", "102638.237500", "102639.737500", "102641.237500", "102642.737500", "102644.237500", "102645.737500", "102647.237500", "102648.737500", "102650.237500", "102651.737500", "102653.237500", "102654.737500", "102656.237500", "102657.737500", "102659.237500", "102700.737500", "102702.237500", "102703.737500", "102705.237500", "102706.737500", "102708.237500", "102709.737500", "102711.237500", "102712.737500", "102714.237500", "102715.737500", "102717.237500", "102718.737500", "102720.237500", "102721.737500", "102723.237500", "102724.737500", "102726.237500", "102727.737500", "102729.237500", "102730.737500", "102732.237500", "102733.737500", "102735.237500", "102736.737500", "102738.237500", "102739.737500", "102741.237500", "102742.737500", "102744.237500", "102745.737500", "102747.237500", "102748.737500", "102750.237500", "102751.737500", "102753.237500", "102754.737500", "102756.237500", "102757.737500", "102759.237500", "102800.737500", "102802.237500", "102803.737500", "102805.237500", "102806.737500", "102808.237500", "102809.737500", "102811.237500", "102812.737500", "102814.237500", "102815.737500", "102817.237500", "102818.737500", "102820.237500", "102821.737500", "102823.237500", "102824.737500", "102826.237500", "102827.737500", "102829.237500", "102830.737500", "102832.237500", "102833.737500", "102835.237500", "102836.737500", "102838.237500", "102839.737500", "102841.237500", "102842.737500", "102844.237500", "102845.737500", "102847.237500", "102848.737500", "102850.237500", "102851.737500", "102853.237500", "102854.737500", "102856.237500", "102857.737500", "102859.237500", "102900.737500", "102902.237500", "102903.737500", "102905.237500", "102906.737500", "102908.237500", "102909.737500", "102911.237500", "102912.737500", "102914.237500", "102915.737500", "102917.237500", "102918.737500", "102920.237500", "102921.737500", "102923.237500", "102924.737500", "102926.237500", "102927.737500", "102929.237500", "102930.737500", "102932.237500", "102933.737500", "102935.237500", "102936.737500", "102938.237500", "102939.737500", "102941.237500", "102942.737500", "102944.237500", "102945.737500", "102947.237500", "102948.737500", "102950.237500", "102951.737500", "102953.237500", "102954.737500", "102956.237500", "102957.737500", "102959.237500", "103000.737500", "103002.237500", "103003.737500", "103005.237500", "103006.737500", "103008.237500", "103009.737500", "103011.237500", "103012.737500", "103014.237500", "103015.737500", "103017.237500", "103018.737500", "103020.237500", "103021.737500", "103023.237500", "103024.737500", "103026.237500", "103027.737500", "103029.237500", "103030.737500", "103032.237500", "103033.737500", "103035.237500", "103036.737500", "103038.237500", "103039.737500", "103041.237500", "103042.737500", "103044.237500", "103045.737500", "103047.237500", "103048.737500", "103050.237500", "103051.737500", "103053.237500", "103054.737500", "103056.237500", "103057.737500", "103059.237500", "103100.737500", "103102.237500", "103103.737500", "103105.237500", "103106.737500", "103108.237500", "103109.737500", "103111.237500", "103112.737500", "103114.237500", "103115.737500", "103117.237500", "103118.737500", "103120.237500", "103121.737500", "103123.237500", "103124.737500", "103126.237500", "103127.737500", "103129.237500", "103130.737500", "103132.237500", "103133.737500", "103135.237500", "103136.737500", "103138.237500", "103139.737500", "103141.237500", "103142.737500", "103144.237500", "103145.737500", "103147.237500", "103148.737500", "103150.237500", "103151.737500", "103153.237500", "103154.737500", "103156.237500", "103157.737500", "103159.237500", "103200.737500", "103202.237500", "103203.737500", "103205.237500", "103206.737500", "103208.237500", "103209.737500", "103211.237500", "103212.737500", "103214.237500", "103215.737500", "103217.237500", "103218.737500", "103220.237500", "103221.737500", "103223.237500", "103224.737500", "103226.237500", "103227.737500", "103229.237500", "103230.737500", "103232.237500", "103233.737500", "103235.237500", "103236.737500", "103238.237500", "103239.737500", "103241.237500", "103242.737500", "103244.237500", "103245.737500", "103247.237500", "103248.737500", "103250.237500", "103251.737500", "103253.237500", "103254.737500", "103256.237500", "103257.737500", "103259.237500", "103300.737500", "103302.237500", "103303.737500", "103305.237500", "103306.737500", "103308.237500", "103309.737500", "103311.237500", "103312.737500", "103314.237500", "103315.737500", "103317.237500", "103318.737500", "103320.237500", "103321.737500", "103323.237500", "103324.737500", "103326.237500", "103327.737500", "103329.237500", "103330.737500", "103332.237500", "103333.737500", "103335.237500", "103336.737500", "103338.237500", "103339.737500", "103341.237500", "103342.737500", "103344.237500", "103345.737500", "103347.237500", "103348.737500", "103350.237500", "103351.737500", "103353.237500", "103354.737500", "103356.237500", "103357.737500", "103359.237500", "103400.737500", "103402.237500", "103403.737500", "103405.237500", "103406.737500", "103408.237500", "103409.737500", "103411.237500", "103412.737500", "103414.237500", "103415.737500", "103417.237500", "103418.737500", "103420.237500", "103421.737500", "103423.237500", "103424.737500", "103426.237500", "103427.737500", "103429.237500", "103430.737500", "103432.237500", "103433.737500", "103435.237500", "103436.737500", "103438.237500", "103439.737500", "103441.237500", "103442.737500", "103444.237500", "103445.737500", "103447.237500", "103448.737500", "103450.237500", "103451.737500", "103453.237500", "103454.737500", "103456.237500", "103457.737500", "103459.237500", "103500.737500", "103502.237500", "103503.737500", "103505.237500", "103506.737500", "103508.237500", "103509.737500", "103511.237500", "103512.737500", "103514.237500", "103515.737500", "103517.237500", "103518.737500", "103520.237500", "103521.737500", "103523.237500", "103524.737500", "103526.237500", "103527.737500", "103529.237500", "103530.737500", "103532.237500", "103533.737500", "103535.237500", "103536.737500", "103538.237500", "103539.737500", "103541.237500", "103542.737500", "103544.237500", "103545.737500", "103547.237500", "103548.737500", "103550.237500", "103551.737500", "103553.237500", "103554.737500", "103556.237500", "103557.737500", "103559.237500", "103600.737500", "103602.237500", "103603.737500", "103605.237500", "103606.737500", "103608.237500", "103609.737500", "103611.237500", "103612.737500", "103614.237500", "103615.737500", "103617.237500", "103618.737500", "103620.237500", "103621.737500", "103623.237500", "103624.737500", "103626.237500", "103627.737500", "103629.237500", "103630.737500", "103632.237500", "103633.737500", "103635.237500", "103636.737500", "103638.237500", "103639.737500", "103641.237500", "103642.737500", "103644.237500", "103645.737500", "103647.237500", "103648.737500", "103650.237500", "103651.737500", "103653.237500", "103654.737500", "103656.237500", "103657.737500", "103659.237500", "103700.737500", "103702.237500", "103703.737500", "103705.237500", "103706.737500", "103708.237500", "103709.737500", "103711.237500", "103712.737500", "103714.237500", "103715.737500", "103717.237500", "103718.737500", "103720.237500", "103721.737500", "103723.237500", "103724.737500", "103726.237500", "103727.737500", "103729.237500", "103730.737500", "103732.237500", "103733.737500", "103735.237500", "103736.737500", "103738.237500", "103739.737500", "103741.237500", "103742.737500", "103744.237500", "103745.737500", "103747.237500", "103748.737500", "103750.237500", "103751.737500", "103753.237500", "103754.737500", "103756.237500", "103757.737500", "103759.237500", "103800.737500", "103802.237500", "103803.737500", "103805.237500", "103806.737500", "103808.237500", "103809.737500", "103811.237500", "103812.737500", "103814.237500", "103815.737500", "103817.237500", "103818.737500", "103820.237500", "103821.737500", "103823.237500", "103824.737500", "103826.237500", "103827.737500", "103829.237500", "103830.737500", "103832.237500", "103833.737500", "103835.237500", "103836.737500", "103838.237500", "103839.737500", "103841.237500", "103842.737500", "103844.237500", "103845.737500", "103847.237500", "103848.737500", "103850.237500", "103851.737500", "103853.237500", "103854.737500", "103856.237500", "103857.737500", "103859.237500", "103900.737500", "103902.237500", "103903.737500", "103905.237500", "103906.737500", "103908.237500", "103909.737500", "103911.237500", "103912.737500", "103914.237500", "103915.737500", "103917.237500", "103918.737500", "103920.237500", "103921.737500", "103923.237500", "103924.737500", "103926.237500", "103927.737500", "103929.237500", "103930.737500", "103932.237500", "103933.737500", "103935.237500", "103936.737500", "103938.237500", "103939.737500", "103941.237500", "103942.737500", "103944.237500", "103945.737500", "103947.237500", "103948.737500", "103950.237500", "103951.737500", "103953.237500", "103954.737500", "103956.237500", "103957.737500", "103959.237500", "104000.737500", "104002.237500", "104003.737500", "104005.237500", "104006.737500", "104008.237500", "104009.737500", "104011.237500", "104012.737500", "104014.237500", "104015.737500", "104017.237500", "104018.737500", "104020.237500", "104021.737500", "104023.237500", "104024.737500", "104026.237500", "104027.737500", "104029.237500", "104030.737500", "104032.237500", "104033.737500", "104035.237500", "104036.737500", "104038.237500", "104039.737500", "104041.237500", "104042.737500", "104044.237500", "104045.737500", "104047.237500", "104048.737500", "104050.237500", "104051.737500", "104053.237500", "104054.737500", "104056.237500", "104057.737500", "104059.237500", "104100.737500", "104102.237500", "104103.737500", "104105.237500", "104106.737500", "104108.237500", "104109.737500", "104111.237500", "104112.737500", "104114.237500", "104115.737500", "104117.237500", "104118.737500", "104120.237500", "104121.737500", "104123.237500", "104124.737500", "104126.237500", "104127.737500", "104129.237500", "104130.737500", "104132.237500", "104133.737500", "104135.237500", "104136.737500", "104138.237500", "104139.737500", "104141.237500", "104142.737500", "104144.237500", "104145.737500", "104147.237500", "104148.737500", "104150.237500", "104151.737500", "104153.237500", "104154.737500", "104