{
  "AcquisitionMatrixPE": 106,
  "AcquisitionNumber": 1,
  "AcquisitionTime": "10:58:6.260000",
  "BandwidthPerPixelPhaseEncode": 16.846,
  "BaseResolution": 106,
  "BodyPartExamined": "BRAIN",
  "CoilCombinationMethod": "Sum of Squares",
  "ConsistencyInfo": "N4_VE11C_LATEST_20160120",
  "ConversionSoftware": "dcm2niix",
  "ConversionSoftwareVersion": "v1.0.20220720",
  "DerivedVendorReportedEchoSpacing": 0.000560012,
  "DeviceSerialNumber": "166108",
  "DwellTime": 1.8e-06,
  "EchoTime": 0.0352,
  "EchoTrainLength": 106,
  "EffectiveEchoSpacing": 0.000560012,
  "FlipAngle": 60,
  "HeudiconvVersion": "1.3.0",
  "ImageComments": "Unaliased MB4/PE3/LB",
  "ImageOrientationPatientDICOM": [1, 0, 0, 0, 1, 0],
  "ImageOrientationText": "Tra",
  "ImageType": [
    "ORIGINAL",
    "PRIMARY",
    "M",
    "MB",
    "ND",
    "MOSAIC"
],
  "ImagingFrequency": 123.244,
  "InPlanePhaseEncodingDirectionDICOM": "COL",
  "InstitutionAddress": "Bedford Way 26,London,London,GB,WC1H 0AP",
  "InstitutionName": "University College",
  "InstitutionalDepartmentName": "Department",
  "MRAcquisitionType": "2D",
  "MagneticFieldStrength": 3,
  "Manufacturer": "Siemens",
  "ManufacturersModelName": "Prisma",
  "MatrixCoilMode": "SENSE",
  "Modality": "MR",
  "MultibandAccelerationFactor": 4,
  "NonlinearGradientCorrection": false,
  "PartialFourier": 1,
  "PatientPosition": "HFS",
  "PercentPhaseFOV": 100,
  "PercentSampling": 100,
  "PhaseEncodingDirection": "j-",
  "PhaseEncodingSteps": 106,
  "PhaseResolution": 1,
  "PixelBandwidth": 2620,
  "ProcedureStepDescription": "Egor^MovieProject2",
  "ProtocolName": "task-backtothefuture_run-3",
  "PulseSequenceDetails": "%CustomerSeq%\\cmrr_mbep2d_bold",
  "ReceiveCoilActiveElements": "HEA;HEP",
  "ReceiveCoilName": "Head_32",
  "ReconMatrixPE": 106,
  "RepetitionTime": 1.5,
  "SAR": 0.0828859,
  "ScanOptions": "FS\\EXT",
  "ScanningSequence": "EP",
  "SequenceName": "epfid2d1_106",
  "SequenceVariant": "SK\\SS",
  "SeriesDescription": "task-backtothefuture_run-3",
  "SeriesNumber": 11,
  "ShimSetting": [-1562, 576, 7425, 428, -91, -38, 140, -17],
  "SliceThickness": 2,
  "SliceTiming": [0, 1.07, 0.6575, 0.2475, 1.315, 0.905, 0.4925, 0.0825, 1.1525, 0.74, 0.33, 1.3975, 0.9875, 0.575, 0.165, 1.2325, 0.8225, 0.4125, 0, 1.07, 0.6575, 0.2475, 1.315, 0.905, 0.4925, 0.0825, 1.1525, 0.74, 0.33, 1.3975, 0.9875, 0.575, 0.165, 1.2325, 0.8225, 0.4125, 0, 1.07, 0.6575, 0.2475, 1.315, 0.905, 0.4925, 0.0825, 1.1525, 0.74, 0.33, 1.3975, 0.9875, 0.575, 0.165, 1.2325, 0.8225, 0.4125, 0, 1.07, 0.6575, 0.2475, 1.315, 0.905, 0.4925, 0.0825, 1.1525, 0.74, 0.33, 1.3975, 0.9875, 0.575, 0.165, 1.2325, 0.8225, 0.4125],
  "SoftwareVersions": "syngo MR E11",
  "SpacingBetweenSlices": 2,
  "StationName": "AWP166108",
  "TaskName": "backtothefuture",
  "TotalReadoutTime": 0.0588013,
  "TxRefAmp": 231.137,
  "WipMemBlock": "463c58b2-f666-41f4-9fca-0cdd015462c7||Sequence: R016 ve11c/master r/e634e98; Dec 19 2017 11:00:25 by eja",
  "dcmmeta_affine": [
    [-2.0, 0.0, 0.0, 106.0],
    [0.0, 2.0, 0.0, -83.51807403564453],
    [0.0, 0.0, 2.0, -45.698795318603516],
    [0.0, 0.0, 0.0, 1.0]
],
  "dcmmeta_reorient_transform": [
    [0.0, -1.0, 0.0, 105.0],
    [1.0, 0.0, 0.0, 0.0],
    [0.0, 0.0, 1.0, 0.0],
    [0.0, 0.0, 0.0, 1.0]
],
  "dcmmeta_shape": [106, 106, 72, 1097],
  "dcmmeta_slice_dim": 2,
  "dcmmeta_version": 0.6,
  "global": {
    "const": {
      "AcquisitionMatrix": [106, 0, 0, 106],
      "AngioFlag": "N",
      "BitsAllocated": 16,
      "BitsStored": 16,
      "BodyPartExamined": "BRAIN",
      "CardiacNumberOfImages": 1,
      "Columns": 954,
      "EchoNumbers": 1,
      "EchoTime": 35.2,
      "EchoTrainLength": 106,
      "FlipAngle": 60.0,
      "HighBit": 15,
      "ImageOrientationPatient": [1.0, 0.0, 0.0, 0.0, 1.0, 0.0],
      "ImagePositionPatient": [-954.0, -974.4819278717, -45.698795318604],
      "ImageType": [
        "ORIGINAL",
        "PRIMARY",
        "M",
        "MB",
        "ND",
        "MOSAIC"
],
      "ImagedNucleus": "1H",
      "ImagingFrequency": 123.243701,
      "InPlanePhaseEncodingDirection": "COL",
      "MRAcquisitionType": "2D",
      "MagneticFieldStrength": 3.0,
      "Manufacturer": "SIEMENS",
      "ManufacturerModelName": "Prisma",
      "Modality": "MR",
      "NominalInterval": 0,
      "NumberOfAverages": 1.0,
      "NumberOfPhaseEncodingSteps": 106,
      "PercentPhaseFieldOfView": 100.0,
      "PercentSampling": 100.0,
      "PerformedProcedureStepStartTime": "091113.935000",
      "PhotometricInterpretation": "MONOCHROME2",
      "PixelBandwidth": 2620.0,
      "PixelRepresentation": 0,
      "PixelSpacing": [2.0, 2.0],
      "ProtocolName": "task-backtothefuture_run-3",
      "RepetitionTime": 1500.0,
      "Rows": 954,
      "SAR": 0.08288585980368,
      "SamplesPerPixel": 1,
      "ScanOptions": [
        "FS",
        "EXT"
],
      "ScanningSequence": "EP",
      "SequenceName": "epfid2d1_106",
      "SequenceVariant": [
        "SK",
        "SS"
],
      "SeriesDescription": "task-backtothefuture_run-3",
      "SeriesNumber": 11,
      "SeriesTime": "105857.456000",
      "SliceLocation": -45.698795318604,
      "SliceThickness": 2.0,
      "SmallestImagePixelValue": 0,
      "SoftwareVersions": "syngo MR E11",
      "SpacingBetweenSlices": 2.0000000537281,
      "SpecificCharacterSet": "ISO_IR 100",
      "StudyID": "1",
      "StudyTime": "091113.875000",
      "TransmitCoilName": "Body",
      "VariableFlipAngleFlag": "N",
      "WindowCenterWidthExplanation": "Algo1",
      "dBdt": 0.0},
    "slices": {}
  },
  "time": {
    "samples": {
      "AcquisitionNumber": [1, 2, 3, 4, 5, 6, 7, 8, 9, 10, 11, 12, 13, 14, 15, 16, 17, 18, 19, 20, 21, 22, 23, 24, 25, 26, 27, 28, 29, 30, 31, 32, 33, 34, 35, 36, 37, 38, 39, 40, 41, 42, 43, 44, 45, 46, 47, 48, 49, 50, 51, 52, 53, 54, 55, 56, 57, 58, 59, 60, 61, 62, 63, 64, 65, 66, 67, 68, 69, 70, 71, 72, 73, 74, 75, 76, 77, 78, 79, 80, 81, 82, 83, 84, 85, 86, 87, 88, 89, 90, 91, 92, 93, 94, 95, 96, 97, 98, 99, 100, 101, 102, 103, 104, 105, 106, 107, 108, 109, 110, 111, 112, 113, 114, 115, 116, 117, 118, 119, 120, 121, 122, 123, 124, 125, 126, 127, 128, 129, 130, 131, 132, 133, 134, 135, 136, 137, 138, 139, 140, 141, 142, 143, 144, 145, 146, 147, 148, 149, 150, 151, 152, 153, 154, 155, 156, 157, 158, 159, 160, 161, 162, 163, 164, 165, 166, 167, 168, 169, 170, 171, 172, 173, 174, 175, 176, 177, 178, 179, 180, 181, 182, 183, 184, 185, 186, 187, 188, 189, 190, 191, 192, 193, 194, 195, 196, 197, 198, 199, 200, 201, 202, 203, 204, 205, 206, 207, 208, 209, 210, 211, 212, 213, 214, 215, 216, 217, 218, 219, 220, 221, 222, 223, 224, 225, 226, 227, 228, 229, 230, 231, 232, 233, 234, 235, 236, 237, 238, 239, 240, 241, 242, 243, 244, 245, 246, 247, 248, 249, 250, 251, 252, 253, 254, 255, 256, 257, 258, 259, 260, 261, 262, 263, 264, 265, 266, 267, 268, 269, 270, 271, 272, 273, 274, 275, 276, 277, 278, 279, 280, 281, 282, 283, 284, 285, 286, 287, 288, 289, 290, 291, 292, 293, 294, 295, 296, 297, 298, 299, 300, 301, 302, 303, 304, 305, 306, 307, 308, 309, 310, 311, 312, 313, 314, 315, 316, 317, 318, 319, 320, 321, 322, 323, 324, 325, 326, 327, 328, 329, 330, 331, 332, 333, 334, 335, 336, 337, 338, 339, 340, 341, 342, 343, 344, 345, 346, 347, 348, 349, 350, 351, 352, 353, 354, 355, 356, 357, 358, 359, 360, 361, 362, 363, 364, 365, 366, 367, 368, 369, 370, 371, 372, 373, 374, 375, 376, 377, 378, 379, 380, 381, 382, 383, 384, 385, 386, 387, 388, 389, 390, 391, 392, 393, 394, 395, 396, 397, 398, 399, 400, 401, 402, 403, 404, 405, 406, 407, 408, 409, 410, 411, 412, 413, 414, 415, 416, 417, 418, 419, 420, 421, 422, 423, 424, 425, 426, 427, 428, 429, 430, 431, 432, 433, 434, 435, 436, 437, 438, 439, 440, 441, 442, 443, 444, 445, 446, 447, 448, 449, 450, 451, 452, 453, 454, 455, 456, 457, 458, 459, 460, 461, 462, 463, 464, 465, 466, 467, 468, 469, 470, 471, 472, 473, 474, 475, 476, 477, 478, 479, 480, 481, 482, 483, 484, 485, 486, 487, 488, 489, 490, 491, 492, 493, 494, 495, 496, 497, 498, 499, 500, 501, 502, 503, 504, 505, 506, 507, 508, 509, 510, 511, 512, 513, 514, 515, 516, 517, 518, 519, 520, 521, 522, 523, 524, 525, 526, 527, 528, 529, 530, 531, 532, 533, 534, 535, 536, 537, 538, 539, 540, 541, 542, 543, 544, 545, 546, 547, 548, 549, 550, 551, 552, 553, 554, 555, 556, 557, 558, 559, 560, 561, 562, 563, 564, 565, 566, 567, 568, 569, 570, 571, 572, 573, 574, 575, 576, 577, 578, 579, 580, 581, 582, 583, 584, 585, 586, 587, 588, 589, 590, 591, 592, 593, 594, 595, 596, 597, 598, 599, 600, 601, 602, 603, 604, 605, 606, 607, 608, 609, 610, 611, 612, 613, 614, 615, 616, 617, 618, 619, 620, 621, 622, 623, 624, 625, 626, 627, 628, 629, 630, 631, 632, 633, 634, 635, 636, 637, 638, 639, 640, 641, 642, 643, 644, 645, 646, 647, 648, 649, 650, 651, 652, 653, 654, 655, 656, 657, 658, 659, 660, 661, 662, 663, 664, 665, 666, 667, 668, 669, 670, 671, 672, 673, 674, 675, 676, 677, 678, 679, 680, 681, 682, 683, 684, 685, 686, 687, 688, 689, 690, 691, 692, 693, 694, 695, 696, 697, 698, 699, 700, 701, 702, 703, 704, 705, 706, 707, 708, 709, 710, 711, 712, 713, 714, 715, 716, 717, 718, 719, 720, 721, 722, 723, 724, 725, 726, 727, 728, 729, 730, 731, 732, 733, 734, 735, 736, 737, 738, 739, 740, 741, 742, 743, 744, 745, 746, 747, 748, 749, 750, 751, 752, 753, 754, 755, 756, 757, 758, 759, 760, 761, 762, 763, 764, 765, 766, 767, 768, 769, 770, 771, 772, 773, 774, 775, 776, 777, 778, 779, 780, 781, 782, 783, 784, 785, 786, 787, 788, 789, 790, 791, 792, 793, 794, 795, 796, 797, 798, 799, 800, 801, 802, 803, 804, 805, 806, 807, 808, 809, 810, 811, 812, 813, 814, 815, 816, 817, 818, 819, 820, 821, 822, 823, 824, 825, 826, 827, 828, 829, 830, 831, 832, 833, 834, 835, 836, 837, 838, 839, 840, 841, 842, 843, 844, 845, 846, 847, 848, 849, 850, 851, 852, 853, 854, 855, 856, 857, 858, 859, 860, 861, 862, 863, 864, 865, 866, 867, 868, 869, 870, 871, 872, 873, 874, 875, 876, 877, 878, 879, 880, 881, 882, 883, 884, 885, 886, 887, 888, 889, 890, 891, 892, 893, 894, 895, 896, 897, 898, 899, 900, 901, 902, 903, 904, 905, 906, 907, 908, 909, 910, 911, 912, 913, 914, 915, 916, 917, 918, 919, 920, 921, 922, 923, 924, 925, 926, 927, 928, 929, 930, 931, 932, 933, 934, 935, 936, 937, 938, 939, 940, 941, 942, 943, 944, 945, 946, 947, 948, 949, 950, 951, 952, 953, 954, 955, 956, 957, 958, 959, 960, 961, 962, 963, 964, 965, 966, 967, 968, 969, 970, 971, 972, 973, 974, 975, 976, 977, 978, 979, 980, 981, 982, 983, 984, 985, 986, 987, 988, 989, 990, 991, 992, 993, 994, 995, 996, 997, 998, 999, 1000, 1001, 1002, 1003, 1004, 1005, 1006, 1007, 1008, 1009, 1010, 1011, 1012, 1013, 1014, 1015, 1016, 1017, 1018, 1019, 1020, 1021, 1022, 1023, 1024, 1025, 1026, 1027, 1028, 1029, 1030, 1031, 1032, 1033, 1034, 1035, 1036, 1037, 1038, 1039, 1040, 1041, 1042, 1043, 1044, 1045, 1046, 1047, 1048, 1049, 1050, 1051, 1052, 1053, 1054, 1055, 1056, 1057, 1058, 1059, 1060, 1061, 1062, 1063, 1064, 1065, 1066, 1067, 1068, 1069, 1070, 1071, 1072, 1073, 1074, 1075, 1076, 1077, 1078, 1079, 1080, 1081, 1082, 1083, 1084, 1085, 1086, 1087, 1088, 1089, 1090, 1091, 1092, 1093, 1094, 1095, 1096, 1097],
      "AcquisitionTime": ["105806.260000", "105807.760000", "105809.260000", "105810.760000", "105812.260000", "105813.760000", "105815.260000", "105816.760000", "105818.260000", "105819.760000", "105821.260000", "105822.760000", "105824.260000", "105825.760000", "105827.260000", "105828.760000", "105830.260000", "105831.760000", "105833.260000", "105834.760000", "105836.260000", "105837.760000", "105839.260000", "105840.760000", "105842.260000", "105843.760000", "105845.260000", "105846.760000", "105848.260000", "105849.760000", "105851.260000", "105852.760000", "105854.260000", "105855.760000", "105857.260000", "105858.760000", "105900.260000", "105901.760000", "105903.260000", "105904.760000", "105906.260000", "105907.760000", "105909.260000", "105910.760000", "105912.260000", "105913.760000", "105915.260000", "105916.760000", "105918.260000", "105919.760000", "105921.260000", "105922.760000", "105924.260000", "105925.760000", "105927.260000", "105928.760000", "105930.260000", "105931.760000", "105933.260000", "105934.760000", "105936.260000", "105937.760000", "105939.260000", "105940.760000", "105942.260000", "105943.760000", "105945.260000", "105946.760000", "105948.260000", "105949.760000", "105951.260000", "105952.760000", "105954.260000", "105955.760000", "105957.260000", "105958.760000", "110000.260000", "110001.760000", "110003.260000", "110004.760000", "110006.260000", "110007.760000", "110009.260000", "110010.760000", "110012.260000", "110013.760000", "110015.260000", "110016.760000", "110018.260000", "110019.760000", "110021.260000", "110022.760000", "110024.260000", "110025.760000", "110027.260000", "110028.760000", "110030.260000", "110031.760000", "110033.260000", "110034.760000", "110036.260000", "110037.760000", "110039.260000", "110040.760000", "110042.260000", "110043.760000", "110045.260000", "110046.760000", "110048.260000", "110049.760000", "110051.260000", "110052.760000", "110054.260000", "110055.760000", "110057.260000", "110058.760000", "110100.260000", "110101.760000", "110103.260000", "110104.760000", "110106.260000", "110107.760000", "110109.260000", "110110.760000", "110112.260000", "110113.760000", "110115.260000", "110116.760000", "110118.260000", "110119.760000", "110121.260000", "110122.760000", "110124.260000", "110125.760000", "110127.260000", "110128.760000", "110130.260000", "110131.760000", "110133.260000", "110134.760000", "110136.260000", "110137.760000", "110139.260000", "110140.760000", "110142.260000", "110143.760000", "110145.260000", "110146.760000", "110148.260000", "110149.760000", "110151.260000", "110152.760000", "110154.260000", "110155.760000", "110157.260000", "110158.760000", "110200.260000", "110201.760000", "110203.260000", "110204.760000", "110206.260000", "110207.760000", "110209.260000", "110210.760000", "110212.260000", "110213.760000", "110215.260000", "110216.760000", "110218.260000", "110219.760000", "110221.260000", "110222.760000", "110224.260000", "110225.760000", "110227.260000", "110228.760000", "110230.260000", "110231.760000", "110233.260000", "110234.760000", "110236.260000", "110237.760000", "110239.260000", "110240.760000", "110242.260000", "110243.760000", "110245.260000", "110246.760000", "110248.260000", "110249.760000", "110251.260000", "110252.760000", "110254.260000", "110255.760000", "110257.260000", "110258.760000", "110300.260000", "110301.760000", "110303.260000", "110304.760000", "110306.260000", "110307.760000", "110309.260000", "110310.760000", "110312.260000", "110313.760000", "110315.260000", "110316.760000", "110318.260000", "110319.760000", "110321.260000", "110322.760000", "110324.260000", "110325.760000", "110327.260000", "110328.760000", "110330.260000", "110331.760000", "110333.260000", "110334.760000", "110336.260000", "110337.760000", "110339.260000", "110340.760000", "110342.260000", "110343.760000", "110345.260000", "110346.760000", "110348.260000", "110349.760000", "110351.260000", "110352.760000", "110354.260000", "110355.760000", "110357.260000", "110358.760000", "110400.260000", "110401.760000", "110403.260000", "110404.760000", "110406.260000", "110407.760000", "110409.260000", "110410.760000", "110412.260000", "110413.760000", "110415.260000", "110416.760000", "110418.260000", "110419.760000", "110421.260000", "110422.760000", "110424.260000", "110425.760000", "110427.260000", "110428.760000", "110430.260000", "110431.760000", "110433.260000", "110434.760000", "110436.260000", "110437.760000", "110439.260000", "110440.760000", "110442.260000", "110443.760000", "110445.260000", "110446.760000", "110448.260000", "110449.760000", "110451.260000", "110452.760000", "110454.260000", "110455.760000", "110457.260000", "110458.760000", "110500.260000", "110501.760000", "110503.260000", "110504.760000", "110506.260000", "110507.760000", "110509.260000", "110510.760000", "110512.260000", "110513.760000", "110515.260000", "110516.760000", "110518.260000", "110519.760000", "110521.260000", "110522.760000", "110524.260000", "110525.760000", "110527.260000", "110528.760000", "110530.260000", "110531.760000", "110533.260000", "110534.760000", "110536.260000", "110537.760000", "110539.260000", "110540.760000", "110542.260000", "110543.760000", "110545.260000", "110546.760000", "110548.260000", "110549.760000", "110551.260000", "110552.760000", "110554.260000", "110555.760000", "110557.260000", "110558.760000", "110600.260000", "110601.760000", "110603.260000", "110604.760000", "110606.260000", "110607.760000", "110609.260000", "110610.760000", "110612.260000", "110613.760000", "110615.260000", "110616.760000", "110618.260000", "110619.760000", "110621.260000", "110622.760000", "110624.260000", "110625.760000", "110627.260000", "110628.760000", "110630.260000", "110631.760000", "110633.260000", "110634.760000", "110636.260000", "110637.760000", "110639.260000", "110640.760000", "110642.260000", "110643.760000", "110645.260000", "110646.760000", "110648.260000", "110649.760000", "110651.260000", "110652.760000", "110654.260000", "110655.760000", "110657.260000", "110658.760000", "110700.260000", "110701.760000", "110703.260000", "110704.760000", "110706.260000", "110707.760000", "110709.260000", "110710.760000", "110712.260000", "110713.760000", "110715.260000", "110716.760000", "110718.260000", "110719.760000", "110721.260000", "110722.760000", "110724.260000", "110725.760000", "110727.260000", "110728.760000", "110730.260000", "110731.760000", "110733.260000", "110734.760000", "110736.260000", "110737.760000", "110739.260000", "110740.760000", "110742.260000", "110743.760000", "110745.260000", "110746.760000", "110748.260000", "110749.760000", "110751.260000", "110752.760000", "110754.260000", "110755.760000", "110757.260000", "110758.760000", "110800.260000", "110801.760000", "110803.260000", "110804.760000", "110806.260000", "110807.760000", "110809.260000", "110810.760000", "110812.260000", "110813.760000", "110815.260000", "110816.760000", "110818.260000", "110819.760000", "110821.260000", "110822.760000", "110824.260000", "110825.760000", "110827.260000", "110828.760000", "110830.260000", "110831.760000", "110833.260000", "110834.760000", "110836.260000", "110837.760000", "110839.260000", "110840.760000", "110842.260000", "110843.760000", "110845.260000", "110846.760000", "110848.260000", "110849.760000", "110851.260000", "110852.760000", "110854.260000", "110855.760000", "110857.260000", "110858.760000", "110900.260000", "110901.760000", "110903.260000", "110904.760000", "110906.260000", "110907.760000", "110909.260000", "110910.760000", "110912.260000", "110913.760000", "110915.260000", "110916.760000", "110918.260000", "110919.760000", "110921.260000", "110922.760000", "110924.260000", "110925.760000", "110927.260000", "110928.760000", "110930.260000", "110931.760000", "110933.260000", "110934.760000", "110936.260000", "110937.760000", "110939.260000", "110940.760000", "110942.260000", "110943.760000", "110945.260000", "110946.760000", "110948.260000", "110949.760000", "110951.260000", "110952.760000", "110954.260000", "110955.760000", "110957.260000", "110958.760000", "111000.260000", "111001.760000", "111003.260000", "111004.760000", "111006.260000", "111007.760000", "111009.260000", "111010.760000", "111012.260000", "111013.760000", "111015.260000", "111016.760000", "111018.260000", "111019.760000", "111021.260000", "111022.760000", "111024.260000", "111025.760000", "111027.260000", "111028.760000", "111030.260000", "111031.760000", "111033.260000", "111034.760000", "111036.260000", "111037.760000", "111039.260000", "111040.760000", "111042.260000", "111043.760000", "111045.260000", "111046.760000", "111048.260000", "111049.760000", "111051.260000", "111052.760000", "111054.260000", "111055.760000", "111057.260000", "111058.760000", "111100.260000", "111101.760000", "111103.260000", "111104.760000", "111106.260000", "111107.760000", "111109.260000", "111110.760000", "111112.260000", "111113.760000", "111115.260000", "111116.760000", "111118.260000", "111119.760000", "111121.260000", "111122.760000", "111124.260000", "111125.760000", "111127.260000", "111128.760000", "111130.260000", "111131.760000", "111133.260000", "111134.760000", "111136.260000", "111137.760000", "111139.260000", "111140.760000", "111142.260000", "111143.760000", "111145.260000", "111146.760000", "111148.260000", "111149.760000", "111151.260000", "111152.760000", "111154.260000", "111155.760000", "111157.260000", "111158.760000", "111200.260000", "111201.760000", "111203.260000", "111204.760000", "111206.260000", "111207.760000", "111209.260000", "111210.760000", "111212.260000", "111213.760000", "111215.260000", "111216.760000", "111218.260000", "111219.760000", "111221.260000", "111222.760000", "111224.260000", "111225.760000", "111227.260000", "111228.760000", "111230.260000", "111231.760000", "111233.260000", "111234.760000", "111236.260000", "111237.760000", "111239.260000", "111240.760000", "111242.260000", "111243.760000", "111245.260000", "111246.760000", "111248.260000", "111249.760000", "111251.260000", "111252.760000", "111254.260000", "111255.760000", "111257.260000", "111258.760000", "111300.260000", "111301.760000", "111303.260000", "111304.760000", "111306.260000", "111307.760000", "111309.260000", "111310.760000", "111312.260000", "111313.760000", "111315.260000", "111316.760000", "111318.260000", "111319.760000", "111321.260000", "111322.760000", "111324.260000", "111325.760000", "111327.260000", "111328.760000", "111330.260000", "111331.760000", "111333.260000", "111334.760000", "111336.260000", "111337.760000", "111339.260000", "111340.760000", "111342.260000", "111343.760000", "111345.260000", "111346.760000", "111348.260000", "111349.760000", "111351.260000", "111352.760000", "111354.260000", "111355.760000", "111357.260000", "111358.760000", "111400.260000", "111401.760000", "111403.260000", "111404.760000", "111406.260000", "111407.760000", "111409.260000", "111410.760000", "111412.260000", "111413.760000", "111415.260000", "111416.760000", "111418.260000", "111419.760000", "111421.260000", "111422.760000", "111424.260000", "111425.760000", "111427.260000", "111428.760000", "111430.260000", "111431.760000", "111433.260000", "111434.760000", "111436.260000", "111437.760000", "111439.260000", "111440.760000", "111442.260000", "111443.760000", "111445.260000", "111446.760000", "111448.260000", "111449.760000", "111451.260000", "111452.760000", "111454.260000", "111455.760000", "111457.260000", "111458.760000", "111500.260000", "111501.760000", "111503.260000", "111504.760000", "111506.260000", "111507.760000", "111509.260000", "111510.760000", "111512.260000", "111513.760000", "111515.260000", "111516.760000", "111518.260000", "111519.760000", "111521.260000", "111522.760000", "111524.260000", "111525.760000", "111527.260000", "111528.760000", "111530.260000", "111531.760000", "111533.260000", "111534.760000", "111536.260000", "111537.760000", "111539.260000", "111540.760000", "111542.260000", "111543.760000", "111545.260000", "111546.760000", "111548.260000", "111549.760000", "111551.260000", "111552.760000", "111554.260000", "111555.760000", "111557.260000", "111558.760000", "111600.260000", "111601.760000", "111603.260000", "111604.760000", "111606.260000", "111607.760000", "111609.260000", "111610.760000", "111612.260000", "111613.760000", "111615.260000", "111616.760000", "111618.260000", "111619.760000", "111621.260000", "111622.760000", "111624.260000", "111625.760000", "111627.260000", "111628.760000", "111630.260000", "111631.760000", "111633.260000", "111634.760000", "111636.260000", "111637.760000", "111639.260000", "111640.760000", "111642.260000", "111643.760000", "111645.260000", "111646.760000", "111648.260000", "111649.760000", "111651.260000", "111652.760000", "111654.260000", "111655.760000", "111657.260000", "111658.760000", "111700.260000", "111701.760000", "111703.260000", "111704.760000", "111706.260000", "111707.760000", "111709.260000", "111710.760000", "111712.260000", "111713.760000", "111715.260000", "111716.760000", "111718.260000", "111719.760000", "111721.260000", "111722.760000", "111724.260000", "111725.760000", "111727.260000", "111728.760000", "111730.260000", "111731.760000", "111733.260000", "111734.760000", "111736.260000", "111737.760000", "111739.260000", "111740.760000", "111742.260000", "111743.760000", "111745.260000", "111746.760000", "111748.260000", "111749.760000", "111751.260000", "111752.760000", "111754.260000", "111755.760000", "111757.260000", "111758.760000", "111800.260000", "111801.760000", "111803.260000", "111804.760000", "111806.260000", "111807.760000", "111809.260000", "111810.760000", "111812.260000", "111813.760000", "111815.260000", "111816.760000", "111818.260000", "111819.760000", "111821.260000", "111822.760000", "111824.260000", "111825.760000", "111827.260000", "111828.760000", "111830.260000", "111831.760000", "111833.260000", "111834.760000", "111836.260000", "111837.760000", "111839.260000", "111840.760000", "111842.260000", "111843.760000", "111845.260000", "111846.760000", "111848.260000", "111849.760000", "111851.260000", "111852.760000", "111854.260000", "111855.760000", "111857.260000", "111858.760000", "111900.260000", "111901.760000", "111903.260000", "111904.760000", "111906.260000", "111907.760000", "111909.260000", "111910.760000", "111912.260000", "111913.760000", "111915.260000", "111916.760000", "111918.260000", "111919.760000", "111921.260000", "111922.760000", "111924.260000", "111925.760000", "111927.260000", "111928.760000", "111930.260000", "111931.760000", "111933.260000", "111934.760000", "111936.260000", "111937.760000", "111939.260000", "111940.760000", "111942.260000", "111943.760000", "111945.260000", "111946.760000", "111948.260000", "111949.760000", "111951.260000", "111952.760000", "111954.260000", "111955.760000", "111957.260000", "111958.760000", "112000.260000", "112001.760000", "112003.260000", "112004.760000", "112006.260000", "112007.760000", "112009.260000", "112010.760000", "112012.260000", "112013.760000", "112015.260000", "112016.760000", "112018.260000", "112019.760000", "112021.260000", "112022.760000", "112024.260000", "112025.760000", "112027.260000", "112028.760000", "112030.260000", "112031.760000", "112033.260000", "112034.760000", "112036.260000", "112037.760000", "112039.260000", "112040.760000", "112042.260000", "112043.760000", "112045.260000", "112046.760000", "112048.260000", "112049.760000", "112051.260000", "112052.760000", "112054.260000", "112055.760000", "112057.260000", "112058.760000", "112100.260000", "112101.760000", "112103.260000", "112104.760000", "112106.260000", "112107.760000", "112109.260000", "112110.760000", "112112.260000", "112113.760000", "112115.260000", "112116.760000", "112118.260000", "112119.760000", "112121.260000", "112122.760000", "112124.260000", "112125.760000", "112127.260000", "112128.760000", "112130.260000", "112131.760000", "112133.260000", "112134.760000", "112136.260000", "112137.760000", "112139.260000", "112140.760000", "112142.260000", "112143.760000", "112145.260000", "112146.760000", "112148.260000", "112149.760000", "112151.260000", "112152.760000", "112154.260000", "112155.760000", "112157.260000", "112158.760000", "112200.260000", "112201.760000", "112203.260000", "112204.760000", "112206.260000", "112207.760000", "112209.260000", "112210.760000", "112212.260000", "112213.760000", "112215.260000", "112216.760000", "112218.260000", "112219.760000", "112221.260000", "112222.760000", "112224.260000", "112225.760000", "112227.260000", "112228.760000", "112230.260000", "112231.760000", "112233.260000", "112234.760000", "112236.260000", "112237.760000", "112239.260000", "112240.760000", "112242.260000", "112243.760000", "112245.260000", "112246.760000", "112248.260000", "112249.760000", "112251.260000", "112252.760000", "112254.260000", "112255.760000", "112257.260000", "112258.760000", "112300.260000", "112301.760000", "112303.260000", "112304.760000", "112306.260000", "112307.760000", "112309.260000", "112310.760000", "112312.260000", "112313.760000", "112315.260000", "112316.760000", "112318.260000", "112319.760000", "112321.260000", "112322.760000", "112324.260000", "112325.760000", "112327.260000", "112328.760000", "112330.260000", "112331.760000", "112333.260000", "112334.760000", "112336.260000", "112337.760000", "112339.260000", "112340.760000", "112342.260000", "112343.760000", "112345.260000", "112346.760000", "112348.260000", "112349.760000", "112351.260000", "112352.760000", "112354.260000", "112355.760000", "112357.260000", "112358.760000", "112400.260000", "112401.760000", "112403.260000", "112404.760000", "112406.260000", "112407.760000", "112409.260000", "112410.760000", "112412.260000", "112413.760000", "112415.260000", "112416.760000", "112418.260000", "112419.760000", "112421.260000", "112422.760000", "112424.260000", "112425.760000", "112427.260000", "112428.760000", "112430.260000", "112431.760000", "112433.260000", "112434.760000", "112436.260000", "112437.760000", "112439.260000", "112440.760000", "112442.260000", "112443.760000", "112445.260000", "112446.760000", "112448.260000", "112449.760000", "112451.260000", "112452.760000", "112454.260000", "112455.760000", "112457.260000", "112458.760000", "112500.260000", "112501.760000", "112503.260000", "112504.760000", "112506.260000", "112507.760000", "112509.260000", "112510.760000", "112512.260000", "112513.760000", "112515.260000", "112516.760000", "112518.260000", "112519.760000", "112521.260000", "112522.760000", "112524.260000", "112525.760000", "112527.260000", "112528.760000", "112530.260000"],
