{
  "AcquisitionMatrixPE": 106,
  "AcquisitionNumber": 1,
  "AcquisitionTime": "11:11:41.687500",
  "BandwidthPerPixelPhaseEncode": 16.846,
  "BaseResolution": 106,
  "BodyPartExamined": "BRAIN",
  "CoilCombinationMethod": "Sum of Squares",
  "ConsistencyInfo": "N4_VE11C_LATEST_20160120",
  "ConversionSoftware": "dcm2niix",
  "ConversionSoftwareVersion": "v1.0.20220720",
  "DerivedVendorReportedEchoSpacing": 0.000560012,
  "DeviceSerialNumber": "166108",
  "DwellTime": 1.8e-06,
  "EchoTime": 0.0352,
  "EchoTrainLength": 106,
  "EffectiveEchoSpacing": 0.000560012,
  "FlipAngle": 60,
  "HeudiconvVersion": "1.3.0",
  "ImageComments": "Unaliased MB4/PE3/LB",
  "ImageOrientationPatientDICOM": [1, 0, 0, 0, 0.940881, -0.338738],
  "ImageOrientationText": "Tra>Cor(-19.8)",
  "ImageType": [
    "ORIGINAL",
    "PRIMARY",
    "M",
    "MB",
    "ND",
    "MOSAIC"
],
  "ImagingFrequency": 123.244,
  "InPlanePhaseEncodingDirectionDICOM": "COL",
  "InstitutionAddress": "Bedford Way 26,London,London,GB,WC1H 0AP",
  "InstitutionName": "University College",
  "InstitutionalDepartmentName": "Department",
  "MRAcquisitionType": "2D",
  "MagneticFieldStrength": 3,
  "Manufacturer": "Siemens",
  "ManufacturersModelName": "Prisma",
  "MatrixCoilMode": "SENSE",
  "Modality": "MR",
  "MultibandAccelerationFactor": 4,
  "NonlinearGradientCorrection": false,
  "PartialFourier": 1,
  "PatientPosition": "HFS",
  "PercentPhaseFOV": 100,
  "PercentSampling": 100,
  "PhaseEncodingDirection": "j-",
  "PhaseEncodingSteps": 106,
  "PhaseResolution": 1,
  "PixelBandwidth": 2620,
  "ProcedureStepDescription": "Egor^MovieProject2",
  "ProtocolName": "func-bold_task-pRF_run-03",
  "PulseSequenceDetails": "%CustomerSeq%\\cmrr_mbep2d_bold",
  "ReceiveCoilActiveElements": "HEA;HEP",
  "ReceiveCoilName": "Head_32",
  "ReconMatrixPE": 106,
  "RepetitionTime": 1,
  "SAR": 0.0808283,
  "ScanOptions": "FS\\EXT",
  "ScanningSequence": "EP",
  "SequenceName": "epfid2d1_106",
  "SequenceVariant": "SK\\SS",
  "SeriesDescription": "func-bold_task-pRF_run-03",
  "SeriesNumber": 14,
  "ShimSetting": [-1504, 613, 7401, 212, 84, 163, 153, -72],
  "SliceThickness": 2,
  "SliceTiming": [0, 0.41, 0.8175, 0.245, 0.655, 0.0825, 0.49, 0.9, 0.3275, 0.735, 0.165, 0.5725, 0, 0.41, 0.8175, 0.245, 0.655, 0.0825, 0.49, 0.9, 0.3275, 0.735, 0.165, 0.5725, 0, 0.41, 0.8175, 0.245, 0.655, 0.0825, 0.49, 0.9, 0.3275, 0.735, 0.165, 0.5725, 0, 0.41, 0.8175, 0.245, 0.655, 0.0825, 0.49, 0.9, 0.3275, 0.735, 0.165, 0.5725],
  "SoftwareVersions": "syngo MR E11",
  "SpacingBetweenSlices": 2,
  "StationName": "AWP166108",
  "TaskName": "retinotopy",
  "TotalReadoutTime": 0.0588013,
  "TxRefAmp": 246.932,
  "WipMemBlock": "476bb87b-e885-4d91-8268-1a2fcbe7c929||Sequence: R016 ve11c/master r/e634e98; Dec 19 2017 11:00:25 by eja",
  "dcmmeta_affine": [
    [-2.0, 0.0, 0.0, 106.0],
    [0.0, 1.8817615509033203, -0.6774758100509644, -78.2297134399414],
    [0.0, 0.6774758696556091, 1.8817615509033203, -50.45737075805664],
    [0.0, 0.0, 0.0, 1.0]
],
  "dcmmeta_reorient_transform": [
    [0.0, -1.0, 0.0, 105.0],
    [1.0, 0.0, 0.0, 0.0],
    [0.0, 0.0, 1.0, 0.0],
    [0.0, 0.0, 0.0, 1.0]
],
  "dcmmeta_shape": [106, 106, 48, 356],
  "dcmmeta_slice_dim": 2,
  "dcmmeta_version": 0.6,
  "global": {
    "const": {
      "AcquisitionMatrix": [106, 0, 0, 106],
      "AngioFlag": "N",
      "BitsAllocated": 16,
      "BitsStored": 16,
      "BodyPartExamined": "BRAIN",
      "CardiacNumberOfImages": 1,
      "Columns": 742,
      "EchoNumbers": 1,
      "EchoTime": 35.2,
      "EchoTrainLength": 106,
      "FlipAngle": 60.0,
      "HighBit": 15,
      "ImageOrientationPatient": [1.0, 0.0, 0.0, 0.0, 0.94088076873196, -0.3387379208627],
      "ImagePositionPatient": [-742.0, -717.75541760615, 236.11491198255],
      "ImageType": [
        "ORIGINAL",
        "PRIMARY",
        "M",
        "MB",
        "ND",
        "MOSAIC"
],
      "ImagedNucleus": "1H",
      "ImagingFrequency": 123.243639,
      "InPlanePhaseEncodingDirection": "COL",
      "MRAcquisitionType": "2D",
      "MagneticFieldStrength": 3.0,
      "Manufacturer": "SIEMENS",
      "ManufacturerModelName": "Prisma",
      "Modality": "MR",
      "NominalInterval": 0,
      "NumberOfAverages": 1.0,
      "NumberOfPhaseEncodingSteps": 106,
      "PercentPhaseFieldOfView": 100.0,
      "PercentSampling": 100.0,
      "PerformedProcedureStepStartTime": "101111.426000",
      "PhotometricInterpretation": "MONOCHROME2",
      "PixelBandwidth": 2620.0,
      "PixelRepresentation": 0,
      "PixelSpacing": [2.0, 2.0],
      "ProtocolName": "func-bold_task-pRF_run-03",
      "RepetitionTime": 1000.0,
      "Rows": 742,
      "SAR": 0.08082828084005,
      "SamplesPerPixel": 1,
      "ScanOptions": [
        "FS",
        "EXT"
],
      "ScanningSequence": "EP",
      "SequenceName": "epfid2d1_106",
      "SequenceVariant": [
        "SK",
        "SS"
],
      "SeriesDescription": "func-bold_task-pRF_run-03",
      "SeriesNumber": 14,
      "SeriesTime": "111222.482000",
      "SliceLocation": -20.974997952598,
      "SliceThickness": 2.0,
      "SmallestImagePixelValue": 0,
      "SoftwareVersions": "syngo MR E11",
      "SpacingBetweenSlices": 1.999999957529,
      "SpecificCharacterSet": "ISO_IR 100",
      "StudyID": "1",
      "StudyTime": "101111.366000",
      "TransmitCoilName": "Body",
      "VariableFlipAngleFlag": "N",
      "WindowCenterWidthExplanation": "Algo1",
      "dBdt": 0.0},
    "slices": {}
  },
  "time": {
    "samples": {
      "AcquisitionNumber": [1, 2, 3, 4, 5, 6, 7, 8, 9, 10, 11, 12, 13, 14, 15, 16, 17, 18, 19, 20, 21, 22, 23, 24, 25, 26, 27, 28, 29, 30, 31, 32, 33, 34, 35, 36, 37, 38, 39, 40, 41, 42, 43, 44, 45, 46, 47, 48, 49, 50, 51, 52, 53, 54, 55, 56, 57, 58, 59, 60, 61, 62, 63, 64, 65, 66, 67, 68, 69, 70, 71, 72, 73, 74, 75, 76, 77, 78, 79, 80, 81, 82, 83, 84, 85, 86, 87, 88, 89, 90, 91, 92, 93, 94, 95, 96, 97, 98, 99, 100, 101, 102, 103, 104, 105, 106, 107, 108, 109, 110, 111, 112, 113, 114, 115, 116, 117, 118, 119, 120, 121, 122, 123, 124, 125, 126, 127, 128, 129, 130, 131, 132, 133, 134, 135, 136, 137, 138, 139, 140, 141, 142, 143, 144, 145, 146, 147, 148, 149, 150, 151, 152, 153, 154, 155, 156, 157, 158, 159, 160, 161, 162, 163, 164, 165, 166, 167, 168, 169, 170, 171, 172, 173, 174, 175, 176, 177, 178, 179, 180, 181, 182, 183, 184, 185, 186, 187, 188, 189, 190, 191, 192, 193, 194, 195, 196, 197, 198, 199, 200, 201, 202, 203, 204, 205, 206, 207, 208, 209, 210, 211, 212, 213, 214, 215, 216, 217, 218, 219, 220, 221, 222, 223, 224, 225, 226, 227, 228, 229, 230, 231, 232, 233, 234, 235, 236, 237, 238, 239, 240, 241, 242, 243, 244, 245, 246, 247, 248, 249, 250, 251, 252, 253, 254, 255, 256, 257, 258, 259, 260, 261, 262, 263, 264, 265, 266, 267, 268, 269, 270, 271, 272, 273, 274, 275, 276, 277, 278, 279, 280, 281, 282, 283, 284, 285, 286, 287, 288, 289, 290, 291, 292, 293, 294, 295, 296, 297, 298, 299, 300, 301, 302, 303, 304, 305, 306, 307, 308, 309, 310, 311, 312, 313, 314, 315, 316, 317, 318, 319, 320, 321, 322, 323, 324, 325, 326, 327, 328, 329, 330, 331, 332, 333, 334, 335, 336, 337, 338, 339, 340, 341, 342, 343, 344, 345, 346, 347, 348, 349, 350, 351, 352, 353, 354, 355, 356],
      "AcquisitionTime": ["111141.687500", "111142.687500", "111143.687500", "111144.687500", "111145.687500", "111146.687500", "111147.687500", "111148.687500", "111149.687500", "111150.687500", "111151.687500", "111152.687500", "111153.687500", "111154.687500", "111155.687500", "111156.687500", "111157.687500", "111158.687500", "111159.687500", "111200.687500", "111201.687500", "111202.687500", "111203.687500", "111204.687500", "111205.687500", "111206.687500", "111207.687500", "111208.687500", "111209.687500", "111210.687500", "111211.687500", "111212.687500", "111213.687500", "111214.687500", "111215.687500", "111216.687500", "111217.687500", "111218.687500", "111219.687500", "111220.687500", "111221.687500", "111222.687500", "111223.687500", "111224.687500", "111225.687500", "111226.687500", "111227.687500", "111228.687500", "111229.687500", "111230.687500", "111231.687500", "111232.687500", "111233.687500", "111234.687500", "111235.687500", "111236.687500", "111237.687500", "111238.687500", "111239.687500", "111240.687500", "111241.687500", "111242.687500", "111243.687500", "111244.687500", "111245.687500", "111246.687500", "111247.687500", "111248.687500", "111249.687500", "111250.687500", "111251.687500", "111252.687500", "111253.687500", "111254.687500", "111255.687500", "111256.687500", "111257.687500", "111258.687500", "111259.687500", "111300.687500", "111301.687500", "111302.687500", "111303.687500", "111304.687500", "111305.687500", "111306.687500", "111307.687500", "111308.687500", "111309.687500", "111310.687500", "111311.687500", "111312.687500", "111313.687500", "111314.687500", "111315.687500", "111316.687500", "111317.687500", "111318.687500", "111319.687500", "111320.687500", "111321.687500", "111322.687500", "111323.687500", "111324.687500", "111325.687500", "111326.687500", "111327.687500", "111328.687500", "111329.687500", "111330.687500", "111331.687500", "111332.687500", "111333.687500", "111334.687500", "111335.687500", "111336.687500", "111337.687500", "111338.687500", "111339.687500", "111340.687500", "111341.687500", "111342.687500", "111343.687500", "111344.687500", "111345.687500", "111346.687500", "111347.687500", "111348.687500", "111349.687500", "111350.687500", "111351.687500", "111352.687500", "111353.687500", "111354.687500", "111355.687500", "111356.687500", "111357.687500", "111358.687500", "111359.687500", "111400.687500", "111401.687500", "111402.687500", "111403.687500", "111404.687500", "111405.687500", "111406.687500", "111407.687500", "111408.687500", "111409.687500", "111410.687500", "111411.687500", "111412.687500", "111413.687500", "111414.687500", "111415.687500", "111416.687500", "111417.687500", "111418.687500", "111419.687500", "111420.687500", "111421.687500", "111422.687500", "111423.687500", "111424.687500", "111425.687500", "111426.687500", "111427.687500", "111428.687500", "111429.687500", "111430.687500", "111431.687500", "111432.687500", "111433.687500", "111434.687500", "111435.687500", "111436.687500", "111437.687500", "111438.687500", "111439.687500", "111440.687500", "111441.687500", "111442.687500", "111443.687500", "111444.687500", "111445.687500", "111446.687500", "111447.687500", "111448.687500", "111449.687500", "111450.687500", "111451.687500", "111452.687500", "111453.687500", "111454.687500", "111455.687500", "111456.687500", "111457.687500", "111458.687500", "111459.687500", "111500.687500", "111501.687500", "111502.687500", "111503.687500", "111504.687500", "111505.687500", "111506.687500", "111507.687500", "111508.687500", "111509.687500", "111510.687500", "111511.687500", "111512.687500", "111513.687500", "111514.687500", "111515.687500", "111516.687500", "111517.687500", "111518.687500", "111519.687500", "111520.687500", "111521.687500", "111522.687500", "111523.687500", "111524.687500", "111525.687500", "111526.687500", "111527.687500", "111528.687500", "111529.687500", "111530.687500", "111531.687500", "111532.687500", "111533.687500", "111534.687500", "111535.687500", "111536.687500", "111537.687500", "111538.687500", "111539.687500", "111540.687500", "111541.687500", "111542.687500", "111543.687500", "111544.687500", "111545.687500", "111546.687500", "111547.687500", "111548.687500", "111549.687500", "111550.687500", "111551.687500", "111552.687500", "111553.687500", "111554.687500", "111555.687500", "111556.687500", "111557.687500", "111558.687500", "111559.687500", "111600.687500", "111601.687500", "111602.687500", "111603.687500", "111604.687500", "111605.687500", "111606.687500", "111607.687500", "111608.687500", "111609.687500", "111610.687500", "111611.687500", "111612.687500", "111613.687500", "111614.687500", "111615.687500", "111616.687500", "111617.687500", "111618.687500", "111619.687500", "111620.687500", "111621.687500", "111622.687500", "111623.687500", "111624.687500", "111625.687500", "111626.687500", "111627.687500", "111628.687500", "111629.687500", "111630.687500", "111631.687500", "111632.687500", "111633.687500", "111634.687500", "111635.687500", "111636.687500", "111637.687500", "111638.687500", "111639.687500", "111640.687500", "111641.687500", "111642.687500", "111643.687500", "111644.687500", "111645.687500", "111646.687500", "111647.687500", "111648.687500", "111649.687500", "111650.687500", "111651.687500", "111652.687500", "111653.687500", "111654.687500", "111655.687500", "111656.687500", "111657.687500", "111658.687500", "111659.687500", "111700.687500", "111701.687500", "111702.687500", "111703.687500", "111704.687500", "111705.687500", "111706.687500", "111707.687500", "111708.687500", "111709.687500", "111710.687500", "111711.687500", "111712.687500", "111713.687500", "111714.687500", "111715.687500", "111716.687500", "111717.687500", "111718.687500", "111719.687500", "111720.687500", "111721.687500", "111722.687500", "111723.687500", "111724.687500", "111725.687500", "111726.687500", "111727.687500", "111728.687500", "111729.687500", "111730.687500", "111731.687500", "111732.687500", "111733.687500", "111734.687500", "111735.687500", "111736.687500"],
      "ContentTime": ["111222.484000", "111222.487000", "111222.490000", "111222.501000", "111222.504000", "111222.506000", "111222.509000", "111222.511000", "111222.514000", "111222.516000", "111222.518000", "111222.521000", "111222.523000", "111222.526000", "111222.529000", "111222.531000", "111222.534000", "111222.536000", "111222.539000", "111222.541000", "111222.543000", "111222.546000", "111222.548000", "111222.551000", "111222.553000", "111222.556000", "111222.558000", "111222.561000", "111222.563000", "111222.566000", "111222.568000", "111222.571000", "111222.581000", "111222.584000", "111222.586000", "111222.589000", "111222.591000", "111222.594000", "111222.596000", "111242.455000", "111242.457000", "111242.460000", "111242.462000", "111242.465000", "111242.467000", "111242.471000", "111242.473000", "111242.476000", "111242.478000", "111242.481000", "111242.483000", "111242.492000", "111242.495000", "111242.497000", "111242.500000", "111242.502000", "111242.505000", "111242.507000", "111242.510000", "111302.455000", "111302.457000", "111302.460000", "111302.462000", "111302.465000", "111302.467000", "111302.470000", "111302.473000", "111302.475000", "111302.478000", "111302.480000", "111302.483000", "111302.485000", "111302.488000", "111302.491000", "111302.493000", "111302.496000", "111302.498000", "111302.501000", "111302.503000", "111322.455000", "111322.457000", "111322.460000", "111322.462000", "111322.465000", "111322.478000", "111322.481000", "111322.484000", "111322.487000", "111322.489000", "111322.492000", "111322.494000", "111322.497000", "111322.500000", "111322.502000", "111322.505000", "111322.507000", "111322.510000", "111322.512000", "111322.514000", "111342.453000", "111342.456000", "111342.458000", "111342.461000", "111342.463000", "111342.466000", "111342.468000", "111342.471000", "111342.473000", "111342.487000", "111342.490000", "111342.493000", "111342.495000", "111342.498000", "111342.500000", "111342.503000", "111342.505000", "111342.508000", "111342.510000", "111342.512000", "111402.453000", "111402.456000", "111402.459000", "111402.461000", "111402.464000", "111402.466000", "111402.469000", "111402.471000", "111402.474000", "111402.476000", "111402.479000", "111402.481000", "111402.484000", "111402.487000", "111402.490000", "111402.492000", "111402.495000", "111402.497000", "111402.500000", "111402.502000", "111422.454000", "111422.457000", "111422.460000", "111422.462000", "111422.465000", "111422.467000", "111422.470000", "111422.473000", "111422.475000", "111422.477000", "111422.480000", "111422.482000", "111422.485000", "111422.488000", "111422.490000", "111422.493000", "111422.496000", "111422.499000", "111422.501000", "111422.504000", "111442.454000", "111442.457000", "111442.460000", "111442.462000", "111442.464000", "111442.467000", "111442.469000", "111442.472000", "111442.475000", "111442.478000", "111442.489000", "111442.491000", "111442.494000", "111442.496000", "111442.499000", "111442.501000", "111442.504000", "111442.506000", "111442.509000", "111442.511000", "111502.454000", "111502.457000", "111502.459000", "111502.462000", "111502.464000", "111502.467000", "111502.469000", "111502.472000", "111502.474000", "111502.477000", "111502.480000", "111502.482000", "111502.485000", "111502.487000", "111502.490000", "111502.494000", "111502.496000", "111502.499000", "111502.502000", "111502.504000", "111522.455000", "111522.457000", "111522.460000", "111522.462000", "111522.465000", "111522.467000", "111522.470000", "111522.472000", "111522.475000", "111522.478000", "111522.481000", "111522.484000", "111522.487000", "111522.489000", "111522.492000", "111522.495000", "111522.497000", "111522.499000", "111522.502000", "111522.505000", "111542.454000", "111542.457000", "111542.459000", "111542.462000", "111542.464000", "111542.467000", "111542.469000", "111542.472000", "111542.474000", "111542.477000", "111542.479000", "111542.482000", "111542.484000", "111542.487000", "111542.490000", "111542.492000", "111542.495000", "111542.497000", "111542.500000", "111542.502000", "111602.454000", "111602.456000", "111602.459000", "111602.461000", "111602.464000", "111602.466000", "111602.469000", "111602.471000", "111602.474000", "111602.477000", "111602.479000", "111602.482000", "111602.484000", "111602.487000", "111602.490000", "111602.492000", "111602.495000", "111602.498000", "111602.500000", "111602.502000", "111622.453000", "111622.456000", "111622.459000", "111622.461000", "111622.464000", "111622.466000", "111622.469000", "111622.471000", "111622.474000", "111622.477000", "111622.480000", "111622.483000", "111622.485000", "111622.488000", "111622.491000", "111622.493000", "111622.496000", "111622.498000", "111622.501000", "111622.503000", "111642.454000", "111642.457000", "111642.460000", "111642.462000", "111642.465000", "111642.467000", "111642.470000", "111642.472000", "111642.475000", "111642.477000", "111642.480000", "111642.483000", "111642.485000", "111642.488000", "111642.490000", "111642.493000", "111642.496000", "111642.498000", "111642.501000", "111642.503000", "111702.454000", "111702.457000", "111702.460000", "111702.462000", "111702.464000", "111702.467000", "111702.470000", "111702.472000", "111702.475000", "111702.478000", "111702.480000", "111702.483000", "111702.485000", "111702.488000", "111702.500000", "111702.503000", "111702.505000", "111702.508000", "111702.510000", "111702.513000", "111722.455000", "111722.457000", "111722.460000", "111722.462000", "111722.465000", "111722.468000", "111722.471000", "111722.473000", "111722.476000", "111722.479000", "111722.481000", "111722.483000", "111722.486000", "111722.489000", "111722.491000", "111722.494000", "111722.496000", "111722.499000", "111722.502000", "111722.504000", "111738.564000", "111738.567000", "111738.569000", "111738.572000", "111738.574000", "111738.577000", "111738.579000", "111738.582000", "111738.584000", "111738.587000", "111738.589000", "111738.592000", "111738.594000", "111738.596000", "111738.599000", "111738.601000", "111738.604000"],
      "InstanceCreationTime": ["111222.484000", "111222.487000", "111222.490000", "111222.501000", "111222.504000", "111222.506000", "111222.509000", "111222.511000", "111222.514000", "111222.516000", "111222.518000", "111222.521000", "111222.523000", "111222.526000", "111222.529000", "111222.531000", "111222.534000", "111222.536000", "111222.539000", "111222.541000", "111222.543000", "111222.546000", "111222.548000", "111222.551000", "111222.553000", "111222.556000", "111222.558000", "111222.561000", "111222.563000", "111222.566000", "111222.568000", "111222.571000", "111222.581000", "111222.584000", "111222.586000", "111222.589000", "111222.591000", "111222.594000", "111222.596000", "111242.455000", "111242.457000", "111242.460000", "111242.462000", "111242.465000", "111242.467000", "111242.471000", "111242.473000", "111242.476000", "111242.478000", "111242.481000", "111242.483000", "111242.492000", "111242.495000", "111242.497000", "111242.500000", "111242.502000", "111242.505000", "111242.507000", "111242.510000", "111302.455000", "111302.457000", "111302.460000", "111302.462000", "111302.465000", "111302.467000", "111302.470000", "111302.473000", "111302.475000", "111302.478000", "111302.480000", "111302.483000", "111302.485000", "111302.488000", "111302.491000", "111302.493000", "111302.496000", "111302.498000", "111302.501000", "111302.503000", "111322.455000", "111322.457000", "111322.460000", "111322.462000", "111322.465000", "111322.478000", "111322.481000", "111322.484000", "111322.487000", "111322.489000", "111322.492000", "111322.494000", "111322.497000", "111322.500000", "111322.502000", "111322.505000", "111322.507000", "111322.510000", "111322.512000", "111322.514000", "111342.453000", "111342.456000", "111342.458000", "111342.461000", "111342.463000", "111342.466000", "111342.468000", "111342.471000", "111342.473000", "111342.487000", "111342.490000", "111342.493000", "111342.495000", "111342.498000", "111342.500000", "111342.503000", "111342.505000", "111342.508000", "111342.510000", "111342.512000", "111402.453000", "111402.456000", "111402.459000", "111402.461000", "111402.464000", "111402.466000", "111402.469000", "111402.471000", "111402.474000", "111402.476000", "111402.479000", "111402.481000", "111402.484000", "111402.487000", "111402.490000", "111402.492000", "111402.495000", "111402.497000", "111402.500000", "111402.502000", "111422.454000", "111422.457000", "111422.460000", "111422.462000", "111422.465000", "111422.467000", "111422.470000", "111422.473000", "111422.475000", "111422.477000", "111422.480000", "111422.482000", "111422.485000", "111422.488000", "111422.490000", "111422.493000", "111422.496000", "111422.499000", "111422.501000", "111422.504000", "111442.454000", "111442.457000", "111442.460000", "111442.462000", "111442.464000", "111442.467000", "111442.469000", "111442.472000", "111442.475000", "111442.478000", "111442.489000", "111442.491000", "111442.494000", "111442.496000", "111442.499000", "111442.501000", "111442.504000", "111442.506000", "111442.509000", "111442.511000", "111502.454000", "111502.457000", "111502.459000", "111502.462000", "111502.464000", "111502.467000", "111502.469000", "111502.472000", "111502.474000", "111502.477000", "111502.480000", "111502.482000", "111502.485000", "111502.487000", "111502.490000", "111502.494000", "111502.496000", "111502.499000", "111502.502000", "111502.504000", "111522.455000", "111522.457000", "111522.460000", "111522.462000", "111522.465000", "111522.467000", "111522.470000", "111522.472000", "111522.475000", "111522.478000", "111522.481000", "111522.484000", "111522.487000", "111522.489000", "111522.492000", "111522.495000", "111522.497000", "111522.499000", "111522.502000", "111522.505000", "111542.454000", "111542.457000", "111542.459000", "111542.462000", "111542.464000", "111542.467000", "111542.469000", "111542.472000", "111542.474000", "111542.477000", "111542.479000", "111542.482000", "111542.484000", "111542.487000", "111542.490000", "111542.492000", "111542.495000", "111542.497000", "111542.500000", "111542.502000", "111602.454000", "111602.456000", "111602.459000", "111602.461000", "111602.464000", "111602.466000", "111602.469000", "111602.471000", "111602.474000", "111602.477000", "111602.479000", "111602.482000", "111602.484000", "111602.487000", "111602.490000", "111602.492000", "111602.495000", "111602.498000", "111602.500000", "111602.502000", "111622.453000", "111622.456000", "111622.459000", "111622.461000", "111622.464000", "111622.466000", "111622.469000", "111622.471000", "111622.474000", "111622.477000", "111622.480000", "111622.483000", "111622.485000", "111622.488000", "111622.491000", "111622.493000", "111622.496000", "111622.498000", "111622.501000", "111622.503000", "111642.454000", "111642.457000", "111642.460000", "111642.462000", "111642.465000", "111642.467000", "111642.470000", "111642.472000", "111642.475000", "111642.477000", "111642.480000", "111642.483000", "111642.485000", "111642.488000", "111642.490000", "111642.493000", "111642.496000", "111642.498000", "111642.501000", "111642.503000", "111702.454000", "111702.457000", "111702.460000", "111702.462000", "111702.464000", "111702.467000", "111702.470000", "111702.472000", "111702.475000", "111702.478000", "111702.480000", "111702.483000", "111702.485000", "111702.488000", "111702.500000", "111702.503000", "111702.505000", "111702.508000", "111702.510000", "111702.513000", "111722.455000", "111722.457000", "111722.460000", "111722.462000", "111722.465000", "111722.468000", "111722.471000", "111722.473000", "111722.476000", "111722.479000", "111722.481000", "111722.483000", "111722.486000", "111722.489000", "111722.491000", "111722.494000", "111722.496000", "111722.499000", "111722.502000", "111722.504000", "111738.564000", "111738.567000", "111738.569000", "111738.572000", "111738.574000", "111738.577000", "111738.579000", "111738.582000", "111738.584000", "111738.587000", "111738.589000", "111738.592000", "111738.594000", "111738.596000", "111738.599000", "111738.601000", "111738.604000"],
      "InstanceNumber": [1, 2, 3, 4, 5, 6, 7, 8, 9, 10, 11, 12, 13, 14, 15, 16, 17, 18, 19, 20, 21, 22, 23, 24, 25, 26, 27, 28, 29, 30, 31, 32, 33, 34, 35, 36, 37, 38, 39, 40, 41, 42, 43, 44, 45, 46, 47, 48, 49, 50, 51, 52, 53, 54, 55, 56, 57, 58, 59, 60, 61, 62, 63, 64, 65, 66, 67, 68, 69, 70, 71, 72, 73, 74, 75, 76, 77, 78, 79, 80, 81, 82, 83, 84, 85, 86, 87, 88, 89, 90, 91, 92, 93, 94, 95, 96, 97, 98, 99, 100, 101, 102, 103, 104, 105, 106, 107, 108, 109, 110, 111, 112, 113, 114, 115, 116, 117, 118, 119, 120, 121, 122, 123, 124, 125, 126, 127, 128, 129, 130, 131, 132, 133, 134, 135, 136, 137, 138, 139, 140, 141, 142, 143, 144, 145, 146, 147, 148, 149, 150, 151, 152, 153, 154, 155, 156, 157, 158, 159, 160, 161, 162, 163, 164, 165, 166, 167, 168, 169, 170, 171, 172, 173, 174, 175, 176, 177, 178, 179, 180, 181, 182, 183, 184, 185, 186, 187, 188, 189, 190, 191, 192, 193, 194, 195, 196, 197, 198, 199, 200, 201, 202, 203, 204, 205, 206, 207, 208, 209, 210, 211, 212, 213, 214, 215, 216, 217, 218, 219, 220, 221, 222, 223, 224, 225, 226, 227, 228, 229, 230, 231, 232, 233, 234, 235, 236, 237, 238, 239, 240, 241, 242, 243, 244, 245, 246, 247, 248, 249, 250, 251, 252, 253, 254, 255, 256, 257, 258, 259, 260, 261, 262, 263, 264, 265, 266, 267, 268, 269, 270, 271, 272, 273, 274, 275, 276, 277, 278, 279, 280, 281, 282, 283, 284, 285, 286, 287, 288, 289, 290, 291, 292, 293, 294, 295, 296, 297, 298, 299, 300, 301, 302, 303, 304, 305, 306, 307, 308, 309, 310, 311, 312, 313, 314, 315, 316, 317, 318, 319, 320, 321, 322, 323, 324, 325, 326, 327, 328, 329, 330, 331, 332, 333, 334, 335, 336, 337, 338, 339, 340, 341, 342, 343, 344, 345, 346, 347, 348, 349, 350, 351, 352, 353, 354, 355, 356],
      "LargestImagePixelValue": [12895, 12722, 12703, 12521, 12409, 12459, 12540, 12465, 12344, 12319, 12377, 12223, 12133, 12449, 12313, 12293, 12226, 12407, 12370, 12335, 12410, 12497, 12336, 12318, 12398, 12428, 12366, 12470, 12479, 12344, 12403, 12484, 12483, 12494, 12469, 12372, 12288, 12411, 12401, 12291, 12261, 12494, 12497, 12365, 12484, 12466, 12433, 12425, 12574, 12589, 12392, 12483, 12490, 12428, 12262, 12530, 12296, 12388, 12359, 12506, 12418, 12216, 12470, 12413, 12403, 12521, 12394, 12401, 12424, 12428, 12407, 12273, 12419, 12458, 12306, 12420, 12419, 12452, 12429, 12421, 12471, 12418, 12417, 12546, 12413, 12480, 12404, 12569, 12580, 12272, 12411, 12585, 12354, 12438, 12366, 12440, 12398, 12316, 12585, 12543, 12537, 12468, 12492, 12419, 12505, 12506, 12454, 12374, 12566, 12352, 12445, 12516, 12301, 12305, 12469, 12414, 12386, 12465, 12616, 12583, 12426, 12453, 12433, 12469, 12347, 12467, 12348, 12507, 12508, 12567, 12462, 12447, 12413, 12467, 12529, 12364, 12344, 12359, 12332, 12288, 12440, 12404, 12429, 12413, 12384, 12410, 12449, 12324, 12321, 12300, 12472, 12377, 12409, 12388, 12485, 12272, 12562, 12556, 12466, 12512, 12496, 12243, 12471, 12575, 12579, 12548, 12486, 12625, 12382, 12461, 12456, 12415, 12425, 12496, 12495, 12387, 12148, 12355, 11988, 11840, 11933, 12065, 12118, 12161, 12339, 12251, 12266, 12475, 12358, 12471, 12268, 12324, 12423, 12197, 12324, 12160, 12268, 12137, 12447, 12322, 12295, 12153, 12141, 12348, 12427, 12342, 12439, 12376, 12323, 12280, 12404, 12482, 12510, 12292, 12382, 12399, 12370, 12479, 12186, 12403, 12297, 12344, 12229, 12287, 12404, 12493, 12158, 12313, 12214, 12180, 12301, 12185, 12311, 12227, 12302, 12239, 11980, 12135, 12093, 12213, 12032, 12302, 12449, 12356, 12225, 12373, 12386, 12269, 12292, 12373, 12346, 12234, 12279, 12407, 12192, 12277, 12289, 12110, 12140, 12193, 12060, 12014, 11988, 11674, 12382, 11951, 11619, 11670, 11955, 12070, 12009, 12089, 12153, 12149, 11934, 11940, 12113, 11746, 11847, 11869, 11921, 11832, 11743, 11835, 12049, 11750, 11981, 12106, 12143, 12098, 12106, 12144, 11992, 12009, 12207, 11956, 11837, 11817, 11680, 12228, 12253, 12152, 12191, 12281, 12283, 12335, 12265, 12425, 12165, 12289, 12107, 12218, 12190, 12285, 12254, 12201, 12267, 12300, 12248, 12284, 12244, 12115, 12174, 12214, 12309, 12287, 12364, 12272, 12304, 12264, 12362, 12497, 12146, 12388, 12364, 12358, 12266, 12287, 12591, 12425, 12268, 12285, 12340, 12227, 12226, 12380, 12356, 12288, 12128, 12471, 12315, 12250, 12433, 12391, 12254, 11899],
