{
  "AcquisitionMatrixPE": 106,
  "AcquisitionNumber": 1,
  "AcquisitionTime": "10:32:52.790000",
  "BandwidthPerPixelPhaseEncode": 13.477,
  "BaseResolution": 106,
  "BodyPartExamined": "BRAIN",
  "CoilCombinationMethod": "Sum of Squares",
  "ConsistencyInfo": "N4_VE11C_LATEST_20160120",
  "ConversionSoftware": "dcm2niix",
  "ConversionSoftwareVersion": "v1.0.20220720",
  "DerivedVendorReportedEchoSpacing": 0.000700005,
  "DeviceSerialNumber": "166108",
  "DwellTime": 2.6e-06,
  "EchoTime": 0.03,
  "EchoTrainLength": 80,
  "EffectiveEchoSpacing": 0.000700005,
  "FlipAngle": 62,
  "HeudiconvVersion": "1.3.0",
  "ImageComments": "Unaliased MB4/PE3/LB",
  "ImageOrientationPatientDICOM": [1, 0, 0, 0, 0.996345, -0.0854169],
  "ImageOrientationText": "Tra>Cor(-4.9)",
  "ImageType": [
    "ORIGINAL",
    "PRIMARY",
    "M",
    "MB",
    "ND",
    "MOSAIC"
],
  "ImagingFrequency": 123.244,
  "InPlanePhaseEncodingDirectionDICOM": "COL",
  "InstitutionAddress": "Bedford Way 26,London,London,GB,WC1H 0AP",
  "InstitutionName": "University College",
  "InstitutionalDepartmentName": "Department",
  "MRAcquisitionType": "2D",
  "MagneticFieldStrength": 3,
  "Manufacturer": "Siemens",
  "ManufacturersModelName": "Prisma",
  "MatrixCoilMode": "SENSE",
  "Modality": "MR",
  "MultibandAccelerationFactor": 4,
  "NonlinearGradientCorrection": false,
  "PartialFourier": 0.75,
  "PatientPosition": "HFS",
  "PercentPhaseFOV": 100,
  "PercentSampling": 100,
  "PhaseEncodingDirection": "j-",
  "PhaseEncodingSteps": 80,
  "PhaseResolution": 1,
  "PixelBandwidth": 1815,
  "ProcedureStepDescription": "Egor^MovieProject2",
  "ProtocolName": "func-bold_task-motor_run-02",
  "PulseSequenceDetails": "%CustomerSeq%\\cmrr_mbep2d_bold",
  "ReceiveCoilActiveElements": "HEA;HEP",
  "ReceiveCoilName": "Head_32",
  "ReconMatrixPE": 106,
  "RepetitionTime": 1,
  "SAR": 0.0451237,
  "ScanOptions": "PFP\\FS\\EXT",
  "ScanningSequence": "EP",
  "SequenceName": "epfid2d1_106",
  "SequenceVariant": "SK\\SS",
  "SeriesDescription": "func-bold_task-motor_run-02",
  "SeriesNumber": 4,
  "ShimSetting": [-1498, 580, 7364, 41, 107, 52, 75, -70],
  "SliceThickness": 2,
  "SliceTiming": [0, 0.535, 0.09, 0.625, 0.1775, 0.7125, 0.2675, 0.8025, 0.3575, 0.89, 0.445, 0, 0.535, 0.09, 0.625, 0.1775, 0.7125, 0.2675, 0.8025, 0.3575, 0.89, 0.445, 0, 0.535, 0.09, 0.625, 0.1775, 0.7125, 0.2675, 0.8025, 0.3575, 0.89, 0.445, 0, 0.535, 0.09, 0.625, 0.1775, 0.7125, 0.2675, 0.8025, 0.3575, 0.89, 0.445],
  "SoftwareVersions": "syngo MR E11",
  "SpacingBetweenSlices": 2,
  "StationName": "AWP166108",
  "TaskName": "somatotopy",
  "TotalReadoutTime": 0.0735005,
  "TxRefAmp": 246.932,
  "WipMemBlock": "b80d1e08-64b7-409a-bb56-b6c0aba2726e||Sequence: R016 ve11c/master r/e634e98; Dec 19 2017 11:00:25 by eja",
  "dcmmeta_affine": [
    [-2.0, 0.0, 0.0, 106.0],
    [0.0, 1.9926905632019043, -0.17083384096622467, -102.47731018066406],
    [0.0, 0.17083384096622467, 1.9926905632019043, -10.685827255249023],
    [0.0, 0.0, 0.0, 1.0]
],
  "dcmmeta_reorient_transform": [
    [0.0, -1.0, 0.0, 105.0],
    [1.0, 0.0, 0.0, 0.0],
    [0.0, 0.0, 1.0, 0.0],
    [0.0, 0.0, 0.0, 1.0]
],
  "dcmmeta_shape": [106, 106, 44, 469],
  "dcmmeta_slice_dim": 2,
  "dcmmeta_version": 0.6,
  "global": {
    "const": {
      "AcquisitionMatrix": [106, 0, 0, 106],
      "AngioFlag": "N",
      "BitsAllocated": 16,
      "BitsStored": 16,
      "BodyPartExamined": "BRAIN",
      "CardiacNumberOfImages": 1,
      "Columns": 742,
      "EchoNumbers": 1,
      "EchoTime": 30.0,
      "EchoTrainLength": 80,
      "FlipAngle": 62.0,
      "HighBit": 15,
      "ImageOrientationPatient": [1.0, 0.0, 0.0, 0.0, 0.99634529631223, -0.0854169217223],
      "ImagePositionPatient": [-742.0, -740.43080706216, 61.576888571721],
      "ImageType": [
        "ORIGINAL",
        "PRIMARY",
        "M",
        "MB",
        "ND",
        "MOSAIC"
],
      "ImagedNucleus": "1H",
      "ImagingFrequency": 123.243652,
      "InPlanePhaseEncodingDirection": "COL",
      "MRAcquisitionType": "2D",
      "MagneticFieldStrength": 3.0,
      "Manufacturer": "SIEMENS",
      "ManufacturerModelName": "Prisma",
      "Modality": "MR",
      "NominalInterval": 0,
      "NumberOfAverages": 1.0,
      "NumberOfPhaseEncodingSteps": 80,
      "PercentPhaseFieldOfView": 100.0,
      "PercentSampling": 100.0,
      "PerformedProcedureStepStartTime": "101111.426000",
      "PhotometricInterpretation": "MONOCHROME2",
      "PixelBandwidth": 1815.0,
      "PixelRepresentation": 0,
      "PixelSpacing": [2.0, 2.0],
      "ProtocolName": "func-bold_task-motor_run-02",
      "RepetitionTime": 1000.0,
      "Rows": 742,
      "SAR": 0.04512367771721,
      "SamplesPerPixel": 1,
      "ScanOptions": [
        "PFP",
        "FS",
        "EXT"
],
      "ScanningSequence": "EP",
      "SequenceName": "epfid2d1_106",
      "SequenceVariant": [
        "SK",
        "SS"
],
      "SeriesDescription": "func-bold_task-motor_run-02",
      "SeriesNumber": 4,
      "SeriesTime": "103317.532000",
      "SliceLocation": -1.8934769975974,
      "SliceThickness": 2.0,
      "SmallestImagePixelValue": 0,
      "SoftwareVersions": "syngo MR E11",
      "SpacingBetweenSlices": 1.9999999153778,
      "SpecificCharacterSet": "ISO_IR 100",
      "StudyID": "1",
      "StudyTime": "101111.366000",
      "TransmitCoilName": "Body",
      "VariableFlipAngleFlag": "N",
      "WindowCenterWidthExplanation": "Algo1",
      "dBdt": 0.0},
    "slices": {}
  },
  "time": {
    "samples": {
      "AcquisitionNumber": [1, 2, 3, 4, 5, 6, 7, 8, 9, 10, 11, 12, 13, 14, 15, 16, 17, 18, 19, 20, 21, 22, 23, 24, 25, 26, 27, 28, 29, 30, 31, 32, 33, 34, 35, 36, 37, 38, 39, 40, 41, 42, 43, 44, 45, 46, 47, 48, 49, 50, 51, 52, 53, 54, 55, 56, 57, 58, 59, 60, 61, 62, 63, 64, 65, 66, 67, 68, 69, 70, 71, 72, 73, 74, 75, 76, 77, 78, 79, 80, 81, 82, 83, 84, 85, 86, 87, 88, 89, 90, 91, 92, 93, 94, 95, 96, 97, 98, 99, 100, 101, 102, 103, 104, 105, 106, 107, 108, 109, 110, 111, 112, 113, 114, 115, 116, 117, 118, 119, 120, 121, 122, 123, 124, 125, 126, 127, 128, 129, 130, 131, 132, 133, 134, 135, 136, 137, 138, 139, 140, 141, 142, 143, 144, 145, 146, 147, 148, 149, 150, 151, 152, 153, 154, 155, 156, 157, 158, 159, 160, 161, 162, 163, 164, 165, 166, 167, 168, 169, 170, 171, 172, 173, 174, 175, 176, 177, 178, 179, 180, 181, 182, 183, 184, 185, 186, 187, 188, 189, 190, 191, 192, 193, 194, 195, 196, 197, 198, 199, 200, 201, 202, 203, 204, 205, 206, 207, 208, 209, 210, 211, 212, 213, 214, 215, 216, 217, 218, 219, 220, 221, 222, 223, 224, 225, 226, 227, 228, 229, 230, 231, 232, 233, 234, 235, 236, 237, 238, 239, 240, 241, 242, 243, 244, 245, 246, 247, 248, 249, 250, 251, 252, 253, 254, 255, 256, 257, 258, 259, 260, 261, 262, 263, 264, 265, 266, 267, 268, 269, 270, 271, 272, 273, 274, 275, 276, 277, 278, 279, 280, 281, 282, 283, 284, 285, 286, 287, 288, 289, 290, 291, 292, 293, 294, 295, 296, 297, 298, 299, 300, 301, 302, 303, 304, 305, 306, 307, 308, 309, 310, 311, 312, 313, 314, 315, 316, 317, 318, 319, 320, 321, 322, 323, 324, 325, 326, 327, 328, 329, 330, 331, 332, 333, 334, 335, 336, 337, 338, 339, 340, 341, 342, 343, 344, 345, 346, 347, 348, 349, 350, 351, 352, 353, 354, 355, 356, 357, 358, 359, 360, 361, 362, 363, 364, 365, 366, 367, 368, 369, 370, 371, 372, 373, 374, 375, 376, 377, 378, 379, 380, 381, 382, 383, 384, 385, 386, 387, 388, 389, 390, 391, 392, 393, 394, 395, 396, 397, 398, 399, 400, 401, 402, 403, 404, 405, 406, 407, 408, 409, 410, 411, 412, 413, 414, 415, 416, 417, 418, 419, 420, 421, 422, 423, 424, 425, 426, 427, 428, 429, 430, 431, 432, 433, 434, 435, 436, 437, 438, 439, 440, 441, 442, 443, 444, 445, 446, 447, 448, 449, 450, 451, 452, 453, 454, 455, 456, 457, 458, 459, 460, 461, 462, 463, 464, 465, 466, 467, 468, 469],
      "AcquisitionTime": ["103252.790000", "103253.790000", "103254.790000", "103255.790000", "103256.790000", "103257.790000", "103258.790000", "103259.790000", "103300.790000", "103301.790000", "103302.790000", "103303.790000", "103304.790000", "103305.790000", "103306.790000", "103307.790000", "103308.790000", "103309.790000", "103310.790000", "103311.790000", "103312.790000", "103313.790000", "103314.790000", "103315.790000", "103316.790000", "103317.790000", "103318.790000", "103319.790000", "103320.790000", "103321.790000", "103322.790000", "103323.790000", "103324.790000", "103325.790000", "103326.790000", "103327.790000", "103328.790000", "103329.790000", "103330.790000", "103331.790000", "103332.790000", "103333.790000", "103334.790000", "103335.790000", "103336.790000", "103337.790000", "103338.790000", "103339.790000", "103340.790000", "103341.790000", "103342.790000", "103343.790000", "103344.790000", "103345.790000", "103346.790000", "103347.790000", "103348.790000", "103349.790000", "103350.790000", "103351.790000", "103352.790000", "103353.790000", "103354.790000", "103355.790000", "103356.790000", "103357.790000", "103358.790000", "103359.790000", "103400.790000", "103401.790000", "103402.790000", "103403.790000", "103404.790000", "103405.790000", "103406.790000", "103407.790000", "103408.790000", "103409.790000", "103410.790000", "103411.790000", "103412.790000", "103413.790000", "103414.790000", "103415.790000", "103416.790000", "103417.790000", "103418.790000", "103419.790000", "103420.790000", "103421.790000", "103422.790000", "103423.790000", "103424.790000", "103425.790000", "103426.790000", "103427.790000", "103428.790000", "103429.790000", "103430.790000", "103431.790000", "103432.790000", "103433.790000", "103434.790000", "103435.790000", "103436.790000", "103437.790000", "103438.790000", "103439.790000", "103440.790000", "103441.790000", "103442.790000", "103443.790000", "103444.790000", "103445.790000", "103446.790000", "103447.790000", "103448.790000", "103449.790000", "103450.790000", "103451.790000", "103452.790000", "103453.790000", "103454.790000", "103455.790000", "103456.790000", "103457.790000", "103458.790000", "103459.790000", "103500.790000", "103501.790000", "103502.790000", "103503.790000", "103504.790000", "103505.790000", "103506.790000", "103507.790000", "103508.790000", "103509.790000", "103510.790000", "103511.790000", "103512.790000", "103513.790000", "103514.790000", "103515.790000", "103516.790000", "103517.790000", "103518.790000", "103519.790000", "103520.790000", "103521.790000", "103522.790000", "103523.790000", "103524.790000", "103525.790000", "103526.790000", "103527.790000", "103528.790000", "103529.790000", "103530.790000", "103531.790000", "103532.790000", "103533.790000", "103534.790000", "103535.790000", "103536.790000", "103537.790000", "103538.790000", "103539.790000", "103540.790000", "103541.790000", "103542.790000", "103543.790000", "103544.790000", "103545.790000", "103546.790000", "103547.790000", "103548.790000", "103549.790000", "103550.790000", "103551.790000", "103552.790000", "103553.790000", "103554.790000", "103555.790000", "103556.790000", "103557.790000", "103558.790000", "103559.790000", "103600.790000", "103601.790000", "103602.790000", "103603.790000", "103604.790000", "103605.790000", "103606.790000", "103607.790000", "103608.790000", "103609.790000", "103610.790000", "103611.790000", "103612.790000", "103613.790000", "103614.790000", "103615.790000", "103616.790000", "103617.790000", "103618.790000", "103619.790000", "103620.790000", "103621.790000", "103622.790000", "103623.790000", "103624.790000", "103625.790000", "103626.790000", "103627.790000", "103628.790000", "103629.790000", "103630.790000", "103631.790000", "103632.790000", "103633.790000", "103634.790000", "103635.790000", "103636.790000", "103637.790000", "103638.790000", "103639.790000", "103640.790000", "103641.790000", "103642.790000", "103643.790000", "103644.790000", "103645.790000", "103646.790000", "103647.790000", "103648.790000", "103649.790000", "103650.790000", "103651.790000", "103652.790000", "103653.790000", "103654.790000", "103655.790000", "103656.790000", "103657.790000", "103658.790000", "103659.790000", "103700.790000", "103701.790000", "103702.790000", "103703.790000", "103704.790000", "103705.790000", "103706.790000", "103707.790000", "103708.790000", "103709.790000", "103710.790000", "103711.790000", "103712.790000", "103713.790000", "103714.790000", "103715.790000", "103716.790000", "103717.790000", "103718.790000", "103719.790000", "103720.790000", "103721.790000", "103722.790000", "103723.790000", "103724.790000", "103725.790000", "103726.790000", "103727.790000", "103728.790000", "103729.790000", "103730.790000", "103731.790000", "103732.790000", "103733.790000", "103734.790000", "103735.790000", "103736.790000", "103737.790000", "103738.790000", "103739.790000", "103740.790000", "103741.790000", "103742.790000", "103743.790000", "103744.790000", "103745.790000", "103746.790000", "103747.790000", "103748.790000", "103749.790000", "103750.790000", "103751.790000", "103752.790000", "103753.790000", "103754.790000", "103755.790000", "103756.790000", "103757.790000", "103758.790000", "103759.790000", "103800.790000", "103801.790000", "103802.790000", "103803.790000", "103804.790000", "103805.790000", "103806.790000", "103807.790000", "103808.790000", "103809.790000", "103810.790000", "103811.790000", "103812.790000", "103813.790000", "103814.790000", "103815.790000", "103816.790000", "103817.790000", "103818.790000", "103819.790000", "103820.790000", "103821.790000", "103822.790000", "103823.790000", "103824.790000", "103825.790000", "103826.790000", "103827.790000", "103828.790000", "103829.790000", "103830.790000", "103831.790000", "103832.790000", "103833.790000", "103834.790000", "103835.790000", "103836.790000", "103837.790000", "103838.790000", "103839.790000", "103840.790000", "103841.790000", "103842.790000", "103843.790000", "103844.790000", "103845.790000", "103846.790000", "103847.790000", "103848.790000", "103849.790000", "103850.790000", "103851.790000", "103852.790000", "103853.790000", "103854.790000", "103855.790000", "103856.790000", "103857.790000", "103858.790000", "103859.790000", "103900.790000", "103901.790000", "103902.790000", "103903.790000", "103904.790000", "103905.790000", "103906.790000", "103907.790000", "103908.790000", "103909.790000", "103910.790000", "103911.790000", "103912.790000", "103913.790000", "103914.790000", "103915.790000", "103916.790000", "103917.790000", "103918.790000", "103919.790000", "103920.790000", "103921.790000", "103922.790000", "103923.790000", "103924.790000", "103925.790000", "103926.790000", "103927.790000", "103928.790000", "103929.790000", "103930.790000", "103931.790000", "103932.790000", "103933.790000", "103934.790000", "103935.790000", "103936.790000", "103937.790000", "103938.790000", "103939.790000", "103940.790000", "103941.790000", "103942.790000", "103943.790000", "103944.790000", "103945.790000", "103946.790000", "103947.790000", "103948.790000", "103949.790000", "103950.790000", "103951.790000", "103952.790000", "103953.790000", "103954.790000", "103955.790000", "103956.790000", "103957.790000", "103958.790000", "103959.790000", "104000.790000", "104001.790000", "104002.790000", "104003.790000", "104004.790000", "104005.790000", "104006.790000", "104007.790000", "104008.790000", "104009.790000", "104010.790000", "104011.790000", "104012.790000", "104013.790000", "104014.790000", "104015.790000", "104016.790000", "104017.790000", "104018.790000", "104019.790000", "104020.790000", "104021.790000", "104022.790000", "104023.790000", "104024.790000", "104025.790000", "104026.790000", "104027.790000", "104028.790000", "104029.790000", "104030.790000", "104031.790000", "104032.790000", "104033.790000", "104034.790000", "104035.790000", "104036.790000", "104037.790000", "104038.790000", "104039.790000", "104040.790000"],
      "ContentTime": ["103317.534000", "103317.537000", "103317.539000", "103317.542000", "103317.544000", "103317.547000", "103317.549000", "103317.559000", "103317.570000", "103317.572000", "103317.575000", "103317.577000", "103317.580000", "103317.582000", "103317.585000", "103317.587000", "103317.589000", "103317.592000", "103317.594000", "103317.597000", "103317.599000", "103317.601000", "103317.604000", "103317.606000", "103337.503000", "103337.506000", "103337.508000", "103337.511000", "103337.513000", "103337.516000", "103337.518000", "103337.520000", "103337.523000", "103337.525000", "103337.528000", "103337.530000", "103337.533000", "103337.535000", "103337.537000", "103337.540000", "103337.542000", "103337.545000", "103337.547000", "103337.550000", "103357.503000", "103357.506000", "103357.508000", "103357.511000", "103357.513000", "103357.516000", "103357.518000", "103357.527000", "103357.529000", "103357.532000", "103357.534000", "103357.537000", "103357.539000", "103357.541000", "103357.544000", "103357.546000", "103357.549000", "103357.551000", "103357.553000", "103357.556000", "103417.503000", "103417.506000", "103417.509000", "103417.511000", "103417.513000", "103417.516000", "103417.518000", "103417.521000", "103417.523000", "103417.525000", "103417.528000", "103417.530000", "103417.533000", "103417.535000", "103417.537000", "103417.540000", "103417.542000", "103417.545000", "103417.547000", "103417.550000", "103437.502000", "103437.505000", "103437.507000", "103437.510000", "103437.512000", "103437.515000", "103437.517000", "103437.520000", "103437.522000", "103437.525000", "103437.527000", "103437.530000", "103437.532000", "103437.547000", "103437.550000", "103437.552000", "103437.555000", "103437.557000", "103437.559000", "103437.562000", "103457.502000", "103457.505000", "103457.508000", "103457.510000", "103457.513000", "103457.515000", "103457.518000", "103457.520000", "103457.523000", "103457.525000", "103457.528000", "103457.537000", "103457.543000", "103457.545000", "103457.548000", "103457.550000", "103457.553000", "103457.555000", "103457.557000", "103457.560000", "103517.502000", "103517.505000", "103517.507000", "103517.510000", "103517.512000", "103517.515000", "103517.517000", "103517.520000", "103517.522000", "103517.524000", "103517.527000", "103517.529000", "103517.532000", "103517.534000", "103517.537000", "103517.539000", "103517.542000", "103517.544000", "103517.546000", "103517.549000", "103537.503000", "103537.506000", "103537.508000", "103537.511000", "103537.513000", "103537.516000", "103537.518000", "103537.521000", "103537.523000", "103537.526000", "103537.528000", "103537.531000", "103537.533000", "103537.535000", "103537.538000", "103537.540000", "103537.543000", "103537.545000", "103537.548000", "103537.550000", "103557.503000", "103557.506000", "103557.508000", "103557.511000", "103557.513000", "103557.516000", "103557.518000", "103557.521000", "103557.523000", "103557.526000", "103557.528000", "103557.531000", "103557.533000", "103557.536000", "103557.538000", "103557.541000", "103557.543000", "103557.545000", "103557.548000", "103557.550000", "103617.503000", "103617.506000", "103617.508000", "103617.511000", "103617.513000", "103617.516000", "103617.518000", "103617.520000", "103617.523000", "103617.525000", "103617.528000", "103617.530000", "103617.533000", "103617.535000", "103617.538000", "103617.540000", "103617.542000", "103617.545000", "103617.547000", "103617.550000", "103637.503000", "103637.506000", "103637.508000", "103637.511000", "103637.513000", "103637.516000", "103637.518000", "103637.520000", "103637.523000", "103637.525000", "103637.528000", "103637.530000", "103637.533000", "103637.535000", "103637.537000", "103637.540000", "103637.543000", "103637.545000", "103637.548000", "103637.550000", "103657.502000", "103657.505000", "103657.508000", "103657.510000", "103657.512000", "103657.515000", "103657.517000", "103657.520000", "103657.522000", "103657.525000", "103657.527000", "103657.529000", "103657.532000", "103657.534000", "103657.537000", "103657.539000", "103657.542000", "103657.544000", "103657.547000", "103657.549000", "103717.502000", "103717.505000", "103717.507000", "103717.510000", "103717.512000", "103717.515000", "103717.517000", "103717.519000", "103717.522000", "103717.524000", "103717.527000", "103717.529000", "103717.532000", "103717.534000", "103717.537000", "103717.539000", "103717.542000", "103717.544000", "103717.547000", "103717.549000", "103737.502000", "103737.505000", "103737.507000", "103737.510000", "103737.512000", "103737.515000", "103737.517000", "103737.519000", "103737.522000", "103737.524000", "103737.527000", "103737.529000", "103737.531000", "103737.534000", "103737.537000", "103737.539000", "103737.542000", "103737.544000", "103737.546000", "103737.549000", "103757.504000", "103757.506000", "103757.509000", "103757.511000", "103757.514000", "103757.516000", "103757.519000", "103757.521000", "103757.524000", "103757.526000", "103757.528000", "103757.531000", "103757.533000", "103757.536000", "103757.538000", "103757.541000", "103757.543000", "103757.546000", "103757.548000", "103757.551000", "103817.503000", "103817.506000", "103817.509000", "103817.511000", "103817.514000", "103817.516000", "103817.519000", "103817.521000", "103817.524000", "103817.526000", "103817.528000", "103817.531000", "103817.533000", "103817.536000", "103817.539000", "103817.541000", "103817.544000", "103817.546000", "103817.549000", "103817.551000", "103837.503000", "103837.506000", "103837.508000", "103837.511000", "103837.517000", "103837.520000", "103837.522000", "103837.525000", "103837.527000", "103837.530000", "103837.532000", "103837.534000", "103837.537000", "103837.539000", "103837.542000", "103837.544000", "103837.547000", "103837.549000", "103837.552000", "103837.554000", "103857.503000", "103857.506000", "103857.509000", "103857.511000", "103857.513000", "103857.516000", "103857.518000", "103857.521000", "103857.523000", "103857.526000", "103857.528000", "103857.531000", "103857.533000", "103857.535000", "103857.538000", "103857.540000", "103857.543000", "103857.545000", "103857.548000", "103857.550000", "103917.503000", "103917.505000", "103917.508000", "103917.510000", "103917.513000", "103917.515000", "103917.518000", "103917.520000", "103917.523000", "103917.525000", "103917.527000", "103917.530000", "103917.532000", "103917.535000", "103917.538000", "103917.540000", "103917.543000", "103917.545000", "103917.548000", "103917.550000", "103937.502000", "103937.505000", "103937.507000", "103937.510000", "103937.512000", "103937.515000", "103937.517000", "103937.520000", "103937.522000", "103937.525000", "103937.527000", "103937.530000", "103937.532000", "103937.534000", "103937.537000", "103937.539000", "103937.542000", "103937.544000", "103937.547000", "103937.549000", "103957.502000", "103957.505000", "103957.507000", "103957.510000", "103957.512000", "103957.515000", "103957.517000", "103957.520000", "103957.522000", "103957.525000", "103957.527000", "103957.530000", "103957.532000", "103957.534000", "103957.537000", "103957.539000", "103957.542000", "103957.544000", "103957.547000", "103957.549000", "104017.503000", "104017.506000", "104017.509000", "104017.511000", "104017.514000", "104017.516000", "104017.527000", "104017.530000", "104017.532000", "104017.535000", "104017.537000", "104017.540000", "104017.542000", "104017.545000", "104017.547000", "104017.549000", "104017.552000", "104017.554000", "104017.557000", "104017.559000", "104037.503000", "104037.506000", "104037.508000", "104037.511000", "104037.513000", "104037.516000", "104037.518000", "104037.520000", "104037.523000", "104037.525000", "104037.528000", "104037.530000", "104037.533000", "104037.535000", "104037.538000", "104037.540000", "104037.543000", "104037.545000", "104037.547000", "104037.550000", "104042.505000", "104042.507000", "104042.510000", "104042.512000", "104042.515000"],
