{
  "AcquisitionMatrixPE": 106,
  "AcquisitionNumber": 1,
  "AcquisitionTime": "18:32:44.202500",
  "BandwidthPerPixelPhaseEncode": 16.846,
  "BaseResolution": 106,
  "BodyPartExamined": "BRAIN",
  "CoilCombinationMethod": "Sum of Squares",
  "ConsistencyInfo": "N4_VE11C_LATEST_20160120",
  "ConversionSoftware": "dcm2niix",
  "ConversionSoftwareVersion": "v1.0.20220720",
  "DerivedVendorReportedEchoSpacing": 0.000560012,
  "DeviceSerialNumber": "166108",
  "DwellTime": 1.8e-06,
  "EchoTime": 0.0352,
  "EchoTrainLength": 106,
  "EffectiveEchoSpacing": 0.000560012,
  "FlipAngle": 60,
  "HeudiconvVersion": "1.3.0",
  "ImageComments": "Unaliased MB4/PE3/LB",
  "ImageOrientationPatientDICOM": [1, 0, 0, 0, 1, 0],
  "ImageOrientationText": "Tra",
  "ImageType": [
    "ORIGINAL",
    "PRIMARY",
    "M",
    "MB",
    "ND",
    "MOSAIC"
],
  "ImagingFrequency": 123.244,
  "InPlanePhaseEncodingDirectionDICOM": "COL",
  "InstitutionAddress": "Bedford Way 26,London,London,GB,WC1H 0AP",
  "InstitutionName": "University College",
  "InstitutionalDepartmentName": "Department",
  "MRAcquisitionType": "2D",
  "MagneticFieldStrength": 3,
  "Manufacturer": "Siemens",
  "ManufacturersModelName": "Prisma",
  "MatrixCoilMode": "SENSE",
  "Modality": "MR",
  "MultibandAccelerationFactor": 4,
  "NonlinearGradientCorrection": false,
  "PartialFourier": 1,
  "PatientPosition": "HFS",
  "PercentPhaseFOV": 100,
  "PercentSampling": 100,
  "PhaseEncodingDirection": "j-",
  "PhaseEncodingSteps": 106,
  "PhaseResolution": 1,
  "PixelBandwidth": 2620,
  "ProcedureStepDescription": "Egor^MovieProject2",
  "ProtocolName": "task-backtothefuture_run-2",
  "PulseSequenceDetails": "%CustomerSeq%\\cmrr_mbep2d_bold",
  "ReceiveCoilActiveElements": "HEA;HEP",
  "ReceiveCoilName": "Head_32",
  "ReconMatrixPE": 106,
  "RepetitionTime": 1.5,
  "SAR": 0.0791366,
  "ScanOptions": "FS\\EXT",
  "ScanningSequence": "EP",
  "SequenceName": "epfid2d1_106",
  "SequenceVariant": "SK\\SS",
  "SeriesDescription": "task-backtothefuture_run-2",
  "SeriesNumber": 7,
  "ShimSetting": [-1571, 652, 7418, 536, -20, 101, 61, -51],
  "SliceThickness": 2,
  "SliceTiming": [0, 1.07, 0.6575, 0.2475, 1.315, 0.905, 0.4925, 0.0825, 1.1525, 0.74, 0.33, 1.3975, 0.9875, 0.575, 0.165, 1.2325, 0.8225, 0.4125, 0, 1.07, 0.6575, 0.2475, 1.315, 0.905, 0.4925, 0.0825, 1.1525, 0.74, 0.33, 1.3975, 0.9875, 0.575, 0.165, 1.2325, 0.8225, 0.4125, 0, 1.07, 0.6575, 0.2475, 1.315, 0.905, 0.4925, 0.0825, 1.1525, 0.74, 0.33, 1.3975, 0.9875, 0.575, 0.165, 1.2325, 0.8225, 0.4125, 0, 1.07, 0.6575, 0.2475, 1.315, 0.905, 0.4925, 0.0825, 1.1525, 0.74, 0.33, 1.3975, 0.9875, 0.575, 0.165, 1.2325, 0.8225, 0.4125],
  "SoftwareVersions": "syngo MR E11",
  "SpacingBetweenSlices": 2,
  "StationName": "AWP166108",
  "TaskName": "backtothefuture",
  "TotalReadoutTime": 0.0588013,
  "TxRefAmp": 233.997,
  "WipMemBlock": "93326c4e-f730-4226-8846-ae47c372552b||Sequence: R016 ve11c/master r/e634e98; Dec 19 2017 11:00:25 by eja",
  "dcmmeta_affine": [
    [-2.0, 0.0, 0.0, 106.0],
    [0.0, 2.0, 0.0, -84.72289276123047],
    [0.0, 0.0, 2.0, -49.31325149536133],
    [0.0, 0.0, 0.0, 1.0]
],
  "dcmmeta_reorient_transform": [
    [0.0, -1.0, 0.0, 105.0],
    [1.0, 0.0, 0.0, 0.0],
    [0.0, 0.0, 1.0, 0.0],
    [0.0, 0.0, 0.0, 1.0]
],
  "dcmmeta_shape": [106, 106, 72, 1522],
  "dcmmeta_slice_dim": 2,
  "dcmmeta_version": 0.6,
  "global": {
    "const": {
      "AcquisitionMatrix": [106, 0, 0, 106],
      "AngioFlag": "N",
      "BitsAllocated": 16,
      "BitsStored": 16,
      "BodyPartExamined": "BRAIN",
      "CardiacNumberOfImages": 1,
      "Columns": 954,
      "EchoNumbers": 1,
      "EchoTime": 35.2,
      "EchoTrainLength": 106,
      "FlipAngle": 60.0,
      "HighBit": 15,
      "ImageOrientationPatient": [1.0, 0.0, 0.0, 0.0, 1.0, 0.0],
      "ImagePositionPatient": [-954.0, -973.27710914612, -49.313251495361],
      "ImageType": [
        "ORIGINAL",
        "PRIMARY",
        "M",
        "MB",
        "ND",
        "MOSAIC"
],
      "ImagedNucleus": "1H",
      "ImagingFrequency": 123.243682,
      "InPlanePhaseEncodingDirection": "COL",
      "MRAcquisitionType": "2D",
      "MagneticFieldStrength": 3.0,
      "Manufacturer": "SIEMENS",
      "ManufacturerModelName": "Prisma",
      "Modality": "MR",
      "NominalInterval": 0,
      "NumberOfAverages": 1.0,
      "NumberOfPhaseEncodingSteps": 106,
      "PercentPhaseFieldOfView": 100.0,
      "PercentSampling": 100.0,
      "PerformedProcedureStepStartTime": "172512.196000",
      "PhotometricInterpretation": "MONOCHROME2",
      "PixelBandwidth": 2620.0,
      "PixelRepresentation": 0,
      "PixelSpacing": [2.0, 2.0],
      "ProtocolName": "task-backtothefuture_run-2",
      "RepetitionTime": 1500.0,
      "Rows": 954,
      "SAR": 0.07913658047912,
      "SamplesPerPixel": 1,
      "ScanOptions": [
        "FS",
        "EXT"
],
      "ScanningSequence": "EP",
      "SequenceName": "epfid2d1_106",
      "SequenceVariant": [
        "SK",
        "SS"
],
      "SeriesDescription": "task-backtothefuture_run-2",
      "SeriesNumber": 7,
      "SeriesTime": "183343.080000",
      "SliceLocation": -49.313251495361,
      "SliceThickness": 2.0,
      "SmallestImagePixelValue": 0,
      "SoftwareVersions": "syngo MR E11",
      "SpacingBetweenSlices": 1.9999999462719,
      "SpecificCharacterSet": "ISO_IR 100",
      "StudyID": "1",
      "StudyTime": "172512.136000",
      "TransmitCoilName": "Body",
      "VariableFlipAngleFlag": "N",
      "WindowCenterWidthExplanation": "Algo1",
      "dBdt": 0.0},
    "slices": {}
  },
  "time": {
    "samples": {
      "AcquisitionNumber": [1, 2, 3, 4, 5, 6, 7, 8, 9, 10, 11, 12, 13, 14, 15, 16, 17, 18, 19, 20, 21, 22, 23, 24, 25, 26, 27, 28, 29, 30, 31, 32, 33, 34, 35, 36, 37, 38, 39, 40, 41, 42, 43, 44, 45, 46, 47, 48, 49, 50, 51, 52, 53, 54, 55, 56, 57, 58, 59, 60, 61, 62, 63, 64, 65, 66, 67, 68, 69, 70, 71, 72, 73, 74, 75, 76, 77, 78, 79, 80, 81, 82, 83, 84, 85, 86, 87, 88, 89, 90, 91, 92, 93, 94, 95, 96, 97, 98, 99, 100, 101, 102, 103, 104, 105, 106, 107, 108, 109, 110, 111, 112, 113, 114, 115, 116, 117, 118, 119, 120, 121, 122, 123, 124, 125, 126, 127, 128, 129, 130, 131, 132, 133, 134, 135, 136, 137, 138, 139, 140, 141, 142, 143, 144, 145, 146, 147, 148, 149, 150, 151, 152, 153, 154, 155, 156, 157, 158, 159, 160, 161, 162, 163, 164, 165, 166, 167, 168, 169, 170, 171, 172, 173, 174, 175, 176, 177, 178, 179, 180, 181, 182, 183, 184, 185, 186, 187, 188, 189, 190, 191, 192, 193, 194, 195, 196, 197, 198, 199, 200, 201, 202, 203, 204, 205, 206, 207, 208, 209, 210, 211, 212, 213, 214, 215, 216, 217, 218, 219, 220, 221, 222, 223, 224, 225, 226, 227, 228, 229, 230, 231, 232, 233, 234, 235, 236, 237, 238, 239, 240, 241, 242, 243, 244, 245, 246, 247, 248, 249, 250, 251, 252, 253, 254, 255, 256, 257, 258, 259, 260, 261, 262, 263, 264, 265, 266, 267, 268, 269, 270, 271, 272, 273, 274, 275, 276, 277, 278, 279, 280, 281, 282, 283, 284, 285, 286, 287, 288, 289, 290, 291, 292, 293, 294, 295, 296, 297, 298, 299, 300, 301, 302, 303, 304, 305, 306, 307, 308, 309, 310, 311, 312, 313, 314, 315, 316, 317, 318, 319, 320, 321, 322, 323, 324, 325, 326, 327, 328, 329, 330, 331, 332, 333, 334, 335, 336, 337, 338, 339, 340, 341, 342, 343, 344, 345, 346, 347, 348, 349, 350, 351, 352, 353, 354, 355, 356, 357, 358, 359, 360, 361, 362, 363, 364, 365, 366, 367, 368, 369, 370, 371, 372, 373, 374, 375, 376, 377, 378, 379, 380, 381, 382, 383, 384, 385, 386, 387, 388, 389, 390, 391, 392, 393, 394, 395, 396, 397, 398, 399, 400, 401, 402, 403, 404, 405, 406, 407, 408, 409, 410, 411, 412, 413, 414, 415, 416, 417, 418, 419, 420, 421, 422, 423, 424, 425, 426, 427, 428, 429, 430, 431, 432, 433, 434, 435, 436, 437, 438, 439, 440, 441, 442, 443, 444, 445, 446, 447, 448, 449, 450, 451, 452, 453, 454, 455, 456, 457, 458, 459, 460, 461, 462, 463, 464, 465, 466, 467, 468, 469, 470, 471, 472, 473, 474, 475, 476, 477, 478, 479, 480, 481, 482, 483, 484, 485, 486, 487, 488, 489, 490, 491, 492, 493, 494, 495, 496, 497, 498, 499, 500, 501, 502, 503, 504, 505, 506, 507, 508, 509, 510, 511, 512, 513, 514, 515, 516, 517, 518, 519, 520, 521, 522, 523, 524, 525, 526, 527, 528, 529, 530, 531, 532, 533, 534, 535, 536, 537, 538, 539, 540, 541, 542, 543, 544, 545, 546, 547, 548, 549, 550, 551, 552, 553, 554, 555, 556, 557, 558, 559, 560, 561, 562, 563, 564, 565, 566, 567, 568, 569, 570, 571, 572, 573, 574, 575, 576, 577, 578, 579, 580, 581, 582, 583, 584, 585, 586, 587, 588, 589, 590, 591, 592, 593, 594, 595, 596, 597, 598, 599, 600, 601, 602, 603, 604, 605, 606, 607, 608, 609, 610, 611, 612, 613, 614, 615, 616, 617, 618, 619, 620, 621, 622, 623, 624, 625, 626, 627, 628, 629, 630, 631, 632, 633, 634, 635, 636, 637, 638, 639, 640, 641, 642, 643, 644, 645, 646, 647, 648, 649, 650, 651, 652, 653, 654, 655, 656, 657, 658, 659, 660, 661, 662, 663, 664, 665, 666, 667, 668, 669, 670, 671, 672, 673, 674, 675, 676, 677, 678, 679, 680, 681, 682, 683, 684, 685, 686, 687, 688, 689, 690, 691, 692, 693, 694, 695, 696, 697, 698, 699, 700, 701, 702, 703, 704, 705, 706, 707, 708, 709, 710, 711, 712, 713, 714, 715, 716, 717, 718, 719, 720, 721, 722, 723, 724, 725, 726, 727, 728, 729, 730, 731, 732, 733, 734, 735, 736, 737, 738, 739, 740, 741, 742, 743, 744, 745, 746, 747, 748, 749, 750, 751, 752, 753, 754, 755, 756, 757, 758, 759, 760, 761, 762, 763, 764, 765, 766, 767, 768, 769, 770, 771, 772, 773, 774, 775, 776, 777, 778, 779, 780, 781, 782, 783, 784, 785, 786, 787, 788, 789, 790, 791, 792, 793, 794, 795, 796, 797, 798, 799, 800, 801, 802, 803, 804, 805, 806, 807, 808, 809, 810, 811, 812, 813, 814, 815, 816, 817, 818, 819, 820, 821, 822, 823, 824, 825, 826, 827, 828, 829, 830, 831, 832, 833, 834, 835, 836, 837, 838, 839, 840, 841, 842, 843, 844, 845, 846, 847, 848, 849, 850, 851, 852, 853, 854, 855, 856, 857, 858, 859, 860, 861, 862, 863, 864, 865, 866, 867, 868, 869, 870, 871, 872, 873, 874, 875, 876, 877, 878, 879, 880, 881, 882, 883, 884, 885, 886, 887, 888, 889, 890, 891, 892, 893, 894, 895, 896, 897, 898, 899, 900, 901, 902, 903, 904, 905, 906, 907, 908, 909, 910, 911, 912, 913, 914, 915, 916, 917, 918, 919, 920, 921, 922, 923, 924, 925, 926, 927, 928, 929, 930, 931, 932, 933, 934, 935, 936, 937, 938, 939, 940, 941, 942, 943, 944, 945, 946, 947, 948, 949, 950, 951, 952, 953, 954, 955, 956, 957, 958, 959, 960, 961, 962, 963, 964, 965, 966, 967, 968, 969, 970, 971, 972, 973, 974, 975, 976, 977, 978, 979, 980, 981, 982, 983, 984, 985, 986, 987, 988, 989, 990, 991, 992, 993, 994, 995, 996, 997, 998, 999, 1000, 1001, 1002, 1003, 1004, 1005, 1006, 1007, 1008, 1009, 1010, 1011, 1012, 1013, 1014, 1015, 1016, 1017, 1018, 1019, 1020, 1021, 1022, 1023, 1024, 1025, 1026, 1027, 1028, 1029, 1030, 1031, 1032, 1033, 1034, 1035, 1036, 1037, 1038, 1039, 1040, 1041, 1042, 1043, 1044, 1045, 1046, 1047, 1048, 1049, 1050, 1051, 1052, 1053, 1054, 1055, 1056, 1057, 1058, 1059, 1060, 1061, 1062, 1063, 1064, 1065, 1066, 1067, 1068, 1069, 1070, 1071, 1072, 1073, 1074, 1075, 1076, 1077, 1078, 1079, 1080, 1081, 1082, 1083, 1084, 1085, 1086, 1087, 1088, 1089, 1090, 1091, 1092, 1093, 1094, 1095, 1096, 1097, 1098, 1099, 1100, 1101, 1102, 1103, 1104, 1105, 1106, 1107, 1108, 1109, 1110, 1111, 1112, 1113, 1114, 1115, 1116, 1117, 1118, 1119, 1120, 1121, 1122, 1123, 1124, 1125, 1126, 1127, 1128, 1129, 1130, 1131, 1132, 1133, 1134, 1135, 1136, 1137, 1138, 1139, 1140, 1141, 1142, 1143, 1144, 1145, 1146, 1147, 1148, 1149, 1150, 1151, 1152, 1153, 1154, 1155, 1156, 1157, 1158, 1159, 1160, 1161, 1162, 1163, 1164, 1165, 1166, 1167, 1168, 1169, 1170, 1171, 1172, 1173, 1174, 1175, 1176, 1177, 1178, 1179, 1180, 1181, 1182, 1183, 1184, 1185, 1186, 1187, 1188, 1189, 1190, 1191, 1192, 1193, 1194, 1195, 1196, 1197, 1198, 1199, 1200, 1201, 1202, 1203, 1204, 1205, 1206, 1207, 1208, 1209, 1210, 1211, 1212, 1213, 1214, 1215, 1216, 1217, 1218, 1219, 1220, 1221, 1222, 1223, 1224, 1225, 1226, 1227, 1228, 1229, 1230, 1231, 1232, 1233, 1234, 1235, 1236, 1237, 1238, 1239, 1240, 1241, 1242, 1243, 1244, 1245, 1246, 1247, 1248, 1249, 1250, 1251, 1252, 1253, 1254, 1255, 1256, 1257, 1258, 1259, 1260, 1261, 1262, 1263, 1264, 1265, 1266, 1267, 1268, 1269, 1270, 1271, 1272, 1273, 1274, 1275, 1276, 1277, 1278, 1279, 1280, 1281, 1282, 1283, 1284, 1285, 1286, 1287, 1288, 1289, 1290, 1291, 1292, 1293, 1294, 1295, 1296, 1297, 1298, 1299, 1300, 1301, 1302, 1303, 1304, 1305, 1306, 1307, 1308, 1309, 1310, 1311, 1312, 1313, 1314, 1315, 1316, 1317, 1318, 1319, 1320, 1321, 1322, 1323, 1324, 1325, 1326, 1327, 1328, 1329, 1330, 1331, 1332, 1333, 1334, 1335, 1336, 1337, 1338, 1339, 1340, 1341, 1342, 1343, 1344, 1345, 1346, 1347, 1348, 1349, 1350, 1351, 1352, 1353, 1354, 1355, 1356, 1357, 1358, 1359, 1360, 1361, 1362, 1363, 1364, 1365, 1366, 1367, 1368, 1369, 1370, 1371, 1372, 1373, 1374, 1375, 1376, 1377, 1378, 1379, 1380, 1381, 1382, 1383, 1384, 1385, 1386, 1387, 1388, 1389, 1390, 1391, 1392, 1393, 1394, 1395, 1396, 1397, 1398, 1399, 1400, 1401, 1402, 1403, 1404, 1405, 1406, 1407, 1408, 1409, 1410, 1411, 1412, 1413, 1414, 1415, 1416, 1417, 1418, 1419, 1420, 1421, 1422, 1423, 1424, 1425, 1426, 1427, 1428, 1429, 1430, 1431, 1432, 1433, 1434, 1435, 1436, 1437, 1438, 1439, 1440, 1441, 1442, 1443, 1444, 1445, 1446, 1447, 1448, 1449, 1450, 1451, 1452, 1453, 1454, 1455, 1456, 1457, 1458, 1459, 1460, 1461, 1462, 1463, 1464, 1465, 1466, 1467, 1468, 1469, 1470, 1471, 1472, 1473, 1474, 1475, 1476, 1477, 1478, 1479, 1480, 1481, 1482, 1483, 1484, 1485, 1486, 1487, 1488, 1489, 1490, 1491, 1492, 1493, 1494, 1495, 1496, 1497, 1498, 1499, 1500, 1501, 1502, 1503, 1504, 1505, 1506, 1507, 1508, 1509, 1510, 1511, 1512, 1513, 1514, 1515, 1516, 1517, 1518, 1519, 1520, 1521, 1522],
      "AcquisitionTime": ["183244.202500", "183245.702500", "183247.202500", "183248.702500", "183250.202500", "183251.702500", "183253.202500", "183254.702500", "183256.202500", "183257.702500", "183259.202500", "183300.702500", "183302.202500", "183303.702500", "183305.202500", "183306.702500", "183308.202500", "183309.702500", "183311.202500", "183312.702500", "183314.202500", "183315.702500", "183317.202500", "183318.702500", "183320.202500", "183321.702500", "183323.202500", "183324.702500", "183326.202500", "183327.702500", "183329.202500", "183330.702500", "183332.202500", "183333.702500", "183335.202500", "183336.702500", "183338.202500", "183339.702500", "183341.202500", "183342.702500", "183344.202500", "183345.702500", "183347.202500", "183348.702500", "183350.202500", "183351.702500", "183353.202500", "183354.702500", "183356.202500", "183357.702500", "183359.202500", "183400.702500", "183402.202500", "183403.702500", "183405.202500", "183406.702500", "183408.202500", "183409.702500", "183411.202500", "183412.702500", "183414.202500", "183415.702500", "183417.202500", "183418.702500", "183420.202500", "183421.702500", "183423.202500", "183424.702500", "183426.202500", "183427.702500", "183429.202500", "183430.702500", "183432.202500", "183433.702500", "183435.202500", "183436.702500", "183438.202500", "183439.702500", "183441.202500", "183442.702500", "183444.202500", "183445.702500", "183447.202500", "183448.702500", "183450.202500", "183451.702500", "183453.202500", "183454.702500", "183456.202500", "183457.702500", "183459.202500", "183500.702500", "183502.202500", "183503.702500", "183505.202500", "183506.702500", "183508.202500", "183509.702500", "183511.202500", "183512.702500", "183514.202500", "183515.702500", "183517.202500", "183518.702500", "183520.202500", "183521.702500", "183523.202500", "183524.702500", "183526.202500", "183527.702500", "183529.202500", "183530.702500", "183532.202500", "183533.702500", "183535.202500", "183536.702500", "183538.202500", "183539.702500", "183541.202500", "183542.702500", "183544.202500", "183545.702500", "183547.202500", "183548.702500", "183550.202500", "183551.702500", "183553.202500", "183554.702500", "183556.202500", "183557.702500", "183559.202500", "183600.702500", "183602.202500", "183603.702500", "183605.202500", "183606.702500", "183608.202500", "183609.702500", "183611.202500", "183612.702500", "183614.202500", "183615.702500", "183617.202500", "183618.702500", "183620.202500", "183621.702500", "183623.202500", "183624.702500", "183626.202500", "183627.702500", "183629.202500", "183630.702500", "183632.202500", "183633.702500", "183635.202500", "183636.702500", "183638.202500", "183639.702500", "183641.202500", "183642.702500", "183644.202500", "183645.702500", "183647.202500", "183648.702500", "183650.202500", "183651.702500", "183653.202500", "183654.702500", "183656.202500", "183657.702500", "183659.202500", "183700.702500", "183702.202500", "183703.702500", "183705.202500", "183706.702500", "183708.202500", "183709.702500", "183711.202500", "183712.702500", "183714.202500", "183715.702500", "183717.202500", "183718.702500", "183720.202500", "183721.702500", "183723.202500", "183724.702500", "183726.202500", "183727.702500", "183729.202500", "183730.702500", "183732.202500", "183733.702500", "183735.202500", "183736.702500", "183738.202500", "183739.702500", "183741.202500", "183742.702500", "183744.202500", "183745.702500", "183747.202500", "183748.702500", "183750.202500", "183751.702500", "183753.202500", "183754.702500", "183756.202500", "183757.702500", "183759.202500", "183800.702500", "183802.202500", "183803.702500", "183805.202500", "183806.702500", "183808.202500", "183809.702500", "183811.202500", "183812.702500", "183814.202500", "183815.702500", "183817.202500", "183818.702500", "183820.202500", "183821.702500", "183823.202500", "183824.702500", "183826.202500", "183827.702500", "183829.202500", "183830.702500", "183832.202500", "183833.702500", "183835.202500", "183836.702500", "183838.202500", "183839.702500", "183841.202500", "183842.702500", "183844.202500", "183845.702500", "183847.202500", "183848.702500", "183850.202500", "183851.702500", "183853.202500", "183854.702500", "183856.202500", "183857.702500", "183859.202500", "183900.702500", "183902.202500", "183903.702500", "183905.202500", "183906.702500", "183908.202500", "183909.702500", "183911.202500", "183912.702500", "183914.202500", "183915.702500", "183917.202500", "183918.702500", "183920.202500", "183921.702500", "183923.202500", "183924.702500", "183926.202500", "183927.702500", "183929.202500", "183930.702500", "183932.202500", "183933.702500", "183935.202500", "183936.702500", "183938.202500", "183939.702500", "183941.202500", "183942.702500", "183944.202500", "183945.702500", "183947.202500", "183948.702500", "183950.202500", "183951.702500", "183953.202500", "183954.702500", "183956.202500", "183957.702500", "183959.202500", "184000.702500", "184002.202500", "184003.702500", "184005.202500", "184006.702500", "184008.202500", "184009.702500", "184011.202500", "184012.702500", "184014.202500", "184015.702500", "184017.202500", "184018.702500", "184020.202500", "184021.702500", "184023.202500", "184024.702500", "184026.202500", "184027.702500", "184029.202500", "184030.702500", "184032.202500", "184033.702500", "184035.202500", "184036.702500", "184038.202500", "184039.702500", "184041.202500", "184042.702500", "184044.202500", "184045.702500", "184047.202500", "184048.702500", "184050.202500", "184051.702500", "184053.202500", "184054.702500", "184056.202500", "184057.702500", "184059.202500", "184100.702500", "184102.202500", "184103.702500", "184105.202500", "184106.702500", "184108.202500", "184109.702500", "184111.202500", "184112.702500", "184114.202500", "184115.702500", "184117.202500", "184118.702500", "184120.202500", "184121.702500", "184123.202500", "184124.702500", "184126.202500", "184127.702500", "184129.202500", "184130.702500", "184132.202500", "184133.702500", "184135.202500", "184136.702500", "184138.202500", "184139.702500", "184141.202500", "184142.702500", "184144.202500", "184145.702500", "184147.202500", "184148.702500", "184150.202500", "184151.702500", "184153.202500", "184154.702500", "184156.202500", "184157.702500", "184159.202500", "184200.702500", "184202.202500", "184203.702500", "184205.202500", "184206.702500", "184208.202500", "184209.702500", "184211.202500", "184212.702500", "184214.202500", "184215.702500", "184217.202500", "184218.702500", "184220.202500", "184221.702500", "184223.202500", "184224.702500", "184226.202500", "184227.702500", "184229.202500", "184230.702500", "184232.202500", "184233.702500", "184235.202500", "184236.702500", "184238.202500", "184239.702500", "184241.202500", "184242.702500", "184244.202500", "184245.702500", "184247.202500", "184248.702500", "184250.202500", "184251.702500", "184253.202500", "184254.702500", "184256.202500", "184257.702500", "184259.202500", "184300.702500", "184302.202500", "184303.702500", "184305.202500", "184306.702500", "184308.202500", "184309.702500", "184311.202500", "184312.702500", "184314.202500", "184315.702500", "184317.202500", "184318.702500", "184320.202500", "184321.702500", "184323.202500", "184324.702500", "184326.202500", "184327.702500", "184329.202500", "184330.702500", "184332.202500", "184333.702500", "184335.202500", "184336.702500", "184338.202500", "184339.702500", "184341.202500", "184342.702500", "184344.202500", "184345.702500", "184347.202500", "184348.702500", "184350.202500", "184351.702500", "184353.202500", "184354.702500", "184356.202500", "184357.702500", "184359.202500", "184400.702500", "184402.202500", "184403.702500", "184405.202500", "184406.702500", "184408.202500", "184409.702500", "184411.202500", "184412.702500", "184414.202500", "184415.702500", "184417.202500", "184418.702500", "184420.202500", "184421.702500", "184423.202500", "184424.702500", "184426.202500", "184427.702500", "184429.202500", "184430.702500", "184432.202500", "184433.702500", "184435.202500", "184436.702500", "184438.202500", "184439.702500", "184441.202500", "184442.702500", "184444.202500", "184445.702500", "184447.202500", "184448.702500", "184450.202500", "184451.702500", "184453.202500", "184454.702500", "184456.202500", "184457.702500", "184459.202500", "184500.702500", "184502.202500", "184503.702500", "184505.202500", "184506.702500", "184508.202500", "184509.702500", "184511.202500", "184512.702500", "184514.202500", "184515.702500", "184517.202500", "184518.702500", "184520.202500", "184521.702500", "184523.202500", "184524.702500", "184526.202500", "184527.702500", "184529.202500", "184530.702500", "184532.202500", "184533.702500", "184535.202500", "184536.702500", "184538.202500", "184539.702500", "184541.202500", "184542.702500", "184544.202500", "184545.702500", "184547.202500", "184548.702500", "184550.202500", "184551.702500", "184553.202500", "184554.702500", "184556.202500", "184557.702500", "184559.202500", "184600.702500", "184602.202500", "184603.702500", "184605.202500", "184606.702500", "184608.202500", "184609.702500", "184611.202500", "184612.702500", "184614.202500", "184615.702500", "184617.202500", "184618.702500", "184620.202500", "184621.702500", "184623.202500", "184624.702500", "184626.202500", "184627.702500", "184629.202500", "184630.702500", "184632.202500", "184633.702500", "184635.202500", "184636.702500", "184638.202500", "184639.702500", "184641.202500", "184642.702500", "184644.202500", "184645.702500", "184647.202500", "184648.702500", "184650.202500", "184651.702500", "184653.202500", "184654.702500", "184656.202500", "184657.702500", "184659.202500", "184700.702500", "184702.202500", "184703.702500", "184705.202500", "184706.702500", "184708.202500", "184709.702500", "184711.202500", "184712.702500", "184714.202500", "184715.702500", "184717.202500", "184718.702500", "184720.202500", "184721.702500", "184723.202500", "184724.702500", "184726.202500", "184727.702500", "184729.202500", "184730.702500", "184732.202500", "184733.702500", "184735.202500", "184736.702500", "184738.202500", "184739.702500", "184741.202500", "184742.702500", "184744.202500", "184745.702500", "184747.202500", "184748.702500", "184750.202500", "184751.702500", "184753.202500", "184754.702500", "184756.202500", "184757.702500", "184759.202500", "184800.702500", "184802.202500", "184803.702500", "184805.202500", "184806.702500", "184808.202500", "184809.702500", "184811.202500", "184812.702500", "184814.202500", "184815.702500", "184817.202500", "184818.702500", "184820.202500", "184821.702500", "184823.202500", "184824.702500", "184826.202500", "184827.702500", "184829.202500", "184830.702500", "184832.202500", "184833.702500", "184835.202500", "184836.702500", "184838.202500", "184839.702500", "184841.202500", "184842.702500", "184844.202500", "184845.702500", "184847.202500", "184848.702500", "184850.202500", "184851.702500", "184853.202500", "184854.702500", "184856.202500", "184857.702500", "184859.202500", "184900.702500", "184902.202500", "184903.702500", "184905.202500", "184906.702500", "184908.202500", "184909.702500", "184911.202500", "184912.702500", "184914.202500", "184915.702500", "184917.202500", "184918.702500", "184920.202500", "184921.702500", "184923.202500", "184924.702500", "184926.202500", "184927.702500", "184929.202500", "184930.702500", "184932.202500", "184933.702500", "184935.202500", "184936.702500", "184938.202500", "184939.702500", "184941.202500", "184942.702500", "184944.202500", "184945.702500", "184947.202500", "184948.702500", "184950.202500", "184951.702500", "184953.202500", "184954.702500", "184956.202500", "184957.702500", "184959.202500", "185000.702500", "185002.202500", "185003.702500", "185005.202500", "185006.702500", "185008.202500", "185009.702500", "185011.202500", "185012.702500", "185014.202500", "185015.702500", "185017.202500", "185018.702500", "185020.202500", "185021.702500", "185023.202500", "185024.702500", "185026.202500", "185027.702500", "185029.202500", "185030.702500", "185032.202500", "185033.702500", "185035.202500", "185036.702500", "185038.202500", "185039.702500", "185041.202500", "185042.702500", "185044.202500", "185045.702500", "185047.202500", "185048.702500", "185050.202500", "185051.702500", "185053.202500", "185054.702500", "185056.202500", "185057.702500", "185059.202500", "185100.702500", "185102.202500", "185103.702500", "185105.202500", "185106.702500", "185108.202500", "185109.702500", "185111.202500", "185112.702500", "185114.202500", "185115.702500", "185117.202500", "185118.702500", "185120.202500", "185121.702500", "185123.202500", "185124.702500", "185126.202500", "185127.702500", "185129.202500", "185130.702500", "185132.202500", "185133.702500", "185135.202500", "185136.702500", "185138.202500", "185139.702500", "185141.202500", "185142.702500", "185144.202500", "185145.702500", "185147.202500", "185148.702500", "185150.202500", "185151.702500", "185153.202500", "185154.702500", "185156.202500", "185157.702500", "185159.202500", "185200.702500", "185202.202500", "185203.702500", "185205.202500", "185206.702500", "185208.202500", "185209.702500", "185211.202500", "185212.702500", "185214.202500", "185215.702500", "185217.202500", "185218.702500", "185220.202500", "185221.702500", "185223.202500", "185224.702500", "185226.202500", "185227.702500", "185229.202500", "185230.702500", "185232.202500", "185233.702500", "185235.202500", "185236.702500", "185238.202500", "185239.702500", "185241.202500", "185242.702500", "185244.202500", "185245.702500", "185247.202500", "185248.702500", "185250.202500", "185251.702500", "185253.202500", "185254.702500", "185256.202500", "185257.702500", "185259.202500", "185300.702500", "185302.202500", "185303.702500", "185305.202500", "185306.702500", "185308.202500", "185309.702500", "185311.202500", "185312.702500", "185314.202500", "185315.702500", "185317.202500", "185318.702500", "185320.202500", "185321.702500", "185323.202500", "185324.702500", "185326.202500", "185327.702500", "185329.202500", "185330.702500", "185332.202500", "185333.702500", "185335.202500", "185336.702500", "185338.202500", "185339.702500", "185341.202500", "185342.702500", "185344.202500", "185345.702500", "185347.202500", "185348.702500", "185350.202500", "185351.702500", "185353.202500", "185354.702500", "185356.202500", "185357.702500", "185359.202500", "185400.702500", "185402.202500", "185403.702500", "185405.202500", "185406.702500", "185408.202500", "185409.702500", "185411.202500", "185412.702500", "185414.202500", "185415.702500", "185417.202500", "185418.702500", "185420.202500", "185421.702500", "185423.202500", "185424.702500", "185426.202500", "185427.702500", "185429.202500", "185430.702500", "185432.202500", "185433.702500", "185435.202500", "185436.702500", "185438.202500", "185439.702500", "185441.202500", "185442.702500", "185444.202500", "185445.702500", "185447.202500", "185448.702500", "185450.202500", "185451.702500", "185453.202500", "185454.702500", "185456.202500", "185457.702500", "185459.202500", "185500.702500", "185502.202500", "185503.702500", "185505.202500", "185506.702500", "185508.202500", "185509.702500", "185511.202500", "185512.702500", "185514.202500", "185515.702500", "185517.202500", "185518.702500", "185520.202500", "185521.702500", "185523.202500", "185524.702500", "185526.202500", "185527.702500", "185529.202500", "185530.702500", "185532.202500", "185533.702500", "185535.202500", "185536.702500", "185538.202500", "185539.702500", "185541.202500", "185542.702500", "185544.202500", "185545.702500", "185547.202500", "185548.702500", "185550.202500", "185551.702500", "185553.202500", "185554.702500", "185556.202500", "185557.702500", "185559.202500", "185600.702500", "185602.202500", "185603.702500", "185605.202500", "185606.702500", "185608.202500", "185609.702500", "185611.202500", "185612.702500", "185614.202500", "185615.702500", "185617.202500", "185618.702500", "185620.202500", "185621.702500", "185623.202500", "185624.702500", "185626.202500", "185627.702500", "185629.202500", "185630.702500", "185632.202500", "185633.702500", "185635.202500", "185636.702500", "185638.202500", "185639.702500", "185641.202500", "185642.702500