{
  "AcquisitionMatrixPE": 106,
  "AcquisitionNumber": 1,
  "AcquisitionTime": "17:55:55.630000",
  "BandwidthPerPixelPhaseEncode": 16.846,
  "BaseResolution": 106,
  "BodyPartExamined": "BRAIN",
  "CoilCombinationMethod": "Sum of Squares",
  "ConsistencyInfo": "N4_VE11C_LATEST_20160120",
  "ConversionSoftware": "dcm2niix",
  "ConversionSoftwareVersion": "v1.0.20220720",
  "DerivedVendorReportedEchoSpacing": 0.000560012,
  "DeviceSerialNumber": "166108",
  "DwellTime": 1.8e-06,
  "EchoTime": 0.0352,
  "EchoTrainLength": 106,
  "EffectiveEchoSpacing": 0.000560012,
  "FlipAngle": 60,
  "HeudiconvVersion": "1.3.0",
  "ImageComments": "Unaliased MB4/PE3/LB",
  "ImageOrientationPatientDICOM": [1, 0, 0, 0, 1, 0],
  "ImageOrientationText": "Tra",
  "ImageType": [
    "ORIGINAL",
    "PRIMARY",
    "M",
    "MB",
    "ND",
    "MOSAIC"
],
  "ImagingFrequency": 123.244,
  "InPlanePhaseEncodingDirectionDICOM": "COL",
  "InstitutionAddress": "Bedford Way 26,London,London,GB,WC1H 0AP",
  "InstitutionName": "University College",
  "InstitutionalDepartmentName": "Department",
  "MRAcquisitionType": "2D",
  "MagneticFieldStrength": 3,
  "Manufacturer": "Siemens",
  "ManufacturersModelName": "Prisma",
  "MatrixCoilMode": "SENSE",
  "Modality": "MR",
  "MultibandAccelerationFactor": 4,
  "NonlinearGradientCorrection": false,
  "PartialFourier": 1,
  "PatientPosition": "HFS",
  "PercentPhaseFOV": 100,
  "PercentSampling": 100,
  "PhaseEncodingDirection": "j-",
  "PhaseEncodingSteps": 106,
  "PhaseResolution": 1,
  "PixelBandwidth": 2620,
  "ProcedureStepDescription": "Egor^MovieProject2",
  "ProtocolName": "task-backtothefuture_run-1",
  "PulseSequenceDetails": "%CustomerSeq%\\cmrr_mbep2d_bold",
  "ReceiveCoilActiveElements": "HEA;HEP",
  "ReceiveCoilName": "Head_32",
  "ReconMatrixPE": 106,
  "RepetitionTime": 1.5,
  "SAR": 0.0791215,
  "ScanOptions": "FS\\EXT",
  "ScanningSequence": "EP",
  "SequenceName": "epfid2d1_106",
  "SequenceVariant": "SK\\SS",
  "SeriesDescription": "task-backtothefuture_run-1",
  "SeriesNumber": 3,
  "ShimSetting": [-1571, 652, 7418, 536, -20, 101, 61, -51],
  "SliceThickness": 2,
  "SliceTiming": [0, 1.0675, 0.6575, 0.245, 1.315, 0.9025, 0.4925, 0.0825, 1.15, 0.74, 0.3275, 1.3975, 0.985, 0.575, 0.1625, 1.2325, 0.8225, 0.41, 0, 1.0675, 0.6575, 0.245, 1.315, 0.9025, 0.4925, 0.0825, 1.15, 0.74, 0.3275, 1.3975, 0.985, 0.575, 0.1625, 1.2325, 0.8225, 0.41, 0, 1.0675, 0.6575, 0.245, 1.315, 0.9025, 0.4925, 0.0825, 1.15, 0.74, 0.3275, 1.3975, 0.985, 0.575, 0.1625, 1.2325, 0.8225, 0.41, 0, 1.0675, 0.6575, 0.245, 1.315, 0.9025, 0.4925, 0.0825, 1.15, 0.74, 0.3275, 1.3975, 0.985, 0.575, 0.1625, 1.2325, 0.8225, 0.41],
  "SoftwareVersions": "syngo MR E11",
  "SpacingBetweenSlices": 2,
  "StationName": "AWP166108",
  "TaskName": "backtothefuture",
  "TotalReadoutTime": 0.0588013,
  "TxRefAmp": 233.997,
  "WipMemBlock": "86ec2ebc-de33-42c5-b9d3-dfa61241a028||Sequence: R016 ve11c/master r/e634e98; Dec 19 2017 11:00:25 by eja",
  "dcmmeta_affine": [
    [-2.0, 0.0, 0.0, 106.0],
    [0.0, 2.0, 0.0, -84.72289276123047],
    [0.0, 0.0, 2.0, -49.31325149536133],
    [0.0, 0.0, 0.0, 1.0]
],
  "dcmmeta_reorient_transform": [
    [0.0, -1.0, 0.0, 105.0],
    [1.0, 0.0, 0.0, 0.0],
    [0.0, 0.0, 1.0, 0.0],
    [0.0, 0.0, 0.0, 1.0]
],
  "dcmmeta_shape": [106, 106, 72, 1360],
  "dcmmeta_slice_dim": 2,
  "dcmmeta_version": 0.6,
  "global": {
    "const": {
      "AcquisitionMatrix": [106, 0, 0, 106],
      "AngioFlag": "N",
      "BitsAllocated": 16,
      "BitsStored": 16,
      "BodyPartExamined": "BRAIN",
      "CardiacNumberOfImages": 1,
      "Columns": 954,
      "EchoNumbers": 1,
      "EchoTime": 35.2,
      "EchoTrainLength": 106,
      "FlipAngle": 60.0,
      "HighBit": 15,
      "ImageOrientationPatient": [1.0, 0.0, 0.0, 0.0, 1.0, 0.0],
      "ImagePositionPatient": [-954.0, -973.27710914612, -49.313251495361],
      "ImageType": [
        "ORIGINAL",
        "PRIMARY",
        "M",
        "MB",
        "ND",
        "MOSAIC"
],
      "ImagedNucleus": "1H",
      "ImagingFrequency": 123.243654,
      "InPlanePhaseEncodingDirection": "COL",
      "MRAcquisitionType": "2D",
      "MagneticFieldStrength": 3.0,
      "Manufacturer": "SIEMENS",
      "ManufacturerModelName": "Prisma",
      "Modality": "MR",
      "NominalInterval": 0,
      "NumberOfAverages": 1.0,
      "NumberOfPhaseEncodingSteps": 106,
      "PercentPhaseFieldOfView": 100.0,
      "PercentSampling": 100.0,
      "PerformedProcedureStepStartTime": "172512.196000",
      "PhotometricInterpretation": "MONOCHROME2",
      "PixelBandwidth": 2620.0,
      "PixelRepresentation": 0,
      "PixelSpacing": [2.0, 2.0],
      "ProtocolName": "task-backtothefuture_run-1",
      "RepetitionTime": 1500.0,
      "Rows": 954,
      "SAR": 0.07912145285766,
      "SamplesPerPixel": 1,
      "ScanOptions": [
        "FS",
        "EXT"
],
      "ScanningSequence": "EP",
      "SequenceName": "epfid2d1_106",
      "SequenceVariant": [
        "SK",
        "SS"
],
      "SeriesDescription": "task-backtothefuture_run-1",
      "SeriesNumber": 3,
      "SeriesTime": "175643.135000",
      "SliceLocation": -49.313251495361,
      "SliceThickness": 2.0,
      "SmallestImagePixelValue": 0,
      "SoftwareVersions": "syngo MR E11",
      "SpacingBetweenSlices": 1.9999999462719,
      "SpecificCharacterSet": "ISO_IR 100",
      "StudyID": "1",
      "StudyTime": "172512.136000",
      "TransmitCoilName": "Body",
      "VariableFlipAngleFlag": "N",
      "WindowCenterWidthExplanation": "Algo1",
      "dBdt": 0.0},
    "slices": {}
  },
  "time": {
    "samples": {
      "AcquisitionNumber": [1, 2, 3, 4, 5, 6, 7, 8, 9, 10, 11, 12, 13, 14, 15, 16, 17, 18, 19, 20, 21, 22, 23, 24, 25, 26, 27, 28, 29, 30, 31, 32, 33, 34, 35, 36, 37, 38, 39, 40, 41, 42, 43, 44, 45, 46, 47, 48, 49, 50, 51, 52, 53, 54, 55, 56, 57, 58, 59, 60, 61, 62, 63, 64, 65, 66, 67, 68, 69, 70, 71, 72, 73, 74, 75, 76, 77, 78, 79, 80, 81, 82, 83, 84, 85, 86, 87, 88, 89, 90, 91, 92, 93, 94, 95, 96, 97, 98, 99, 100, 101, 102, 103, 104, 105, 106, 107, 108, 109, 110, 111, 112, 113, 114, 115, 116, 117, 118, 119, 120, 121, 122, 123, 124, 125, 126, 127, 128, 129, 130, 131, 132, 133, 134, 135, 136, 137, 138, 139, 140, 141, 142, 143, 144, 145, 146, 147, 148, 149, 150, 151, 152, 153, 154, 155, 156, 157, 158, 159, 160, 161, 162, 163, 164, 165, 166, 167, 168, 169, 170, 171, 172, 173, 174, 175, 176, 177, 178, 179, 180, 181, 182, 183, 184, 185, 186, 187, 188, 189, 190, 191, 192, 193, 194, 195, 196, 197, 198, 199, 200, 201, 202, 203, 204, 205, 206, 207, 208, 209, 210, 211, 212, 213, 214, 215, 216, 217, 218, 219, 220, 221, 222, 223, 224, 225, 226, 227, 228, 229, 230, 231, 232, 233, 234, 235, 236, 237, 238, 239, 240, 241, 242, 243, 244, 245, 246, 247, 248, 249, 250, 251, 252, 253, 254, 255, 256, 257, 258, 259, 260, 261, 262, 263, 264, 265, 266, 267, 268, 269, 270, 271, 272, 273, 274, 275, 276, 277, 278, 279, 280, 281, 282, 283, 284, 285, 286, 287, 288, 289, 290, 291, 292, 293, 294, 295, 296, 297, 298, 299, 300, 301, 302, 303, 304, 305, 306, 307, 308, 309, 310, 311, 312, 313, 314, 315, 316, 317, 318, 319, 320, 321, 322, 323, 324, 325, 326, 327, 328, 329, 330, 331, 332, 333, 334, 335, 336, 337, 338, 339, 340, 341, 342, 343, 344, 345, 346, 347, 348, 349, 350, 351, 352, 353, 354, 355, 356, 357, 358, 359, 360, 361, 362, 363, 364, 365, 366, 367, 368, 369, 370, 371, 372, 373, 374, 375, 376, 377, 378, 379, 380, 381, 382, 383, 384, 385, 386, 387, 388, 389, 390, 391, 392, 393, 394, 395, 396, 397, 398, 399, 400, 401, 402, 403, 404, 405, 406, 407, 408, 409, 410, 411, 412, 413, 414, 415, 416, 417, 418, 419, 420, 421, 422, 423, 424, 425, 426, 427, 428, 429, 430, 431, 432, 433, 434, 435, 436, 437, 438, 439, 440, 441, 442, 443, 444, 445, 446, 447, 448, 449, 450, 451, 452, 453, 454, 455, 456, 457, 458, 459, 460, 461, 462, 463, 464, 465, 466, 467, 468, 469, 470, 471, 472, 473, 474, 475, 476, 477, 478, 479, 480, 481, 482, 483, 484, 485, 486, 487, 488, 489, 490, 491, 492, 493, 494, 495, 496, 497, 498, 499, 500, 501, 502, 503, 504, 505, 506, 507, 508, 509, 510, 511, 512, 513, 514, 515, 516, 517, 518, 519, 520, 521, 522, 523, 524, 525, 526, 527, 528, 529, 530, 531, 532, 533, 534, 535, 536, 537, 538, 539, 540, 541, 542, 543, 544, 545, 546, 547, 548, 549, 550, 551, 552, 553, 554, 555, 556, 557, 558, 559, 560, 561, 562, 563, 564, 565, 566, 567, 568, 569, 570, 571, 572, 573, 574, 575, 576, 577, 578, 579, 580, 581, 582, 583, 584, 585, 586, 587, 588, 589, 590, 591, 592, 593, 594, 595, 596, 597, 598, 599, 600, 601, 602, 603, 604, 605, 606, 607, 608, 609, 610, 611, 612, 613, 614, 615, 616, 617, 618, 619, 620, 621, 622, 623, 624, 625, 626, 627, 628, 629, 630, 631, 632, 633, 634, 635, 636, 637, 638, 639, 640, 641, 642, 643, 644, 645, 646, 647, 648, 649, 650, 651, 652, 653, 654, 655, 656, 657, 658, 659, 660, 661, 662, 663, 664, 665, 666, 667, 668, 669, 670, 671, 672, 673, 674, 675, 676, 677, 678, 679, 680, 681, 682, 683, 684, 685, 686, 687, 688, 689, 690, 691, 692, 693, 694, 695, 696, 697, 698, 699, 700, 701, 702, 703, 704, 705, 706, 707, 708, 709, 710, 711, 712, 713, 714, 715, 716, 717, 718, 719, 720, 721, 722, 723, 724, 725, 726, 727, 728, 729, 730, 731, 732, 733, 734, 735, 736, 737, 738, 739, 740, 741, 742, 743, 744, 745, 746, 747, 748, 749, 750, 751, 752, 753, 754, 755, 756, 757, 758, 759, 760, 761, 762, 763, 764, 765, 766, 767, 768, 769, 770, 771, 772, 773, 774, 775, 776, 777, 778, 779, 780, 781, 782, 783, 784, 785, 786, 787, 788, 789, 790, 791, 792, 793, 794, 795, 796, 797, 798, 799, 800, 801, 802, 803, 804, 805, 806, 807, 808, 809, 810, 811, 812, 813, 814, 815, 816, 817, 818, 819, 820, 821, 822, 823, 824, 825, 826, 827, 828, 829, 830, 831, 832, 833, 834, 835, 836, 837, 838, 839, 840, 841, 842, 843, 844, 845, 846, 847, 848, 849, 850, 851, 852, 853, 854, 855, 856, 857, 858, 859, 860, 861, 862, 863, 864, 865, 866, 867, 868, 869, 870, 871, 872, 873, 874, 875, 876, 877, 878, 879, 880, 881, 882, 883, 884, 885, 886, 887, 888, 889, 890, 891, 892, 893, 894, 895, 896, 897, 898, 899, 900, 901, 902, 903, 904, 905, 906, 907, 908, 909, 910, 911, 912, 913, 914, 915, 916, 917, 918, 919, 920, 921, 922, 923, 924, 925, 926, 927, 928, 929, 930, 931, 932, 933, 934, 935, 936, 937, 938, 939, 940, 941, 942, 943, 944, 945, 946, 947, 948, 949, 950, 951, 952, 953, 954, 955, 956, 957, 958, 959, 960, 961, 962, 963, 964, 965, 966, 967, 968, 969, 970, 971, 972, 973, 974, 975, 976, 977, 978, 979, 980, 981, 982, 983, 984, 985, 986, 987, 988, 989, 990, 991, 992, 993, 994, 995, 996, 997, 998, 999, 1000, 1001, 1002, 1003, 1004, 1005, 1006, 1007, 1008, 1009, 1010, 1011, 1012, 1013, 1014, 1015, 1016, 1017, 1018, 1019, 1020, 1021, 1022, 1023, 1024, 1025, 1026, 1027, 1028, 1029, 1030, 1031, 1032, 1033, 1034, 1035, 1036, 1037, 1038, 1039, 1040, 1041, 1042, 1043, 1044, 1045, 1046, 1047, 1048, 1049, 1050, 1051, 1052, 1053, 1054, 1055, 1056, 1057, 1058, 1059, 1060, 1061, 1062, 1063, 1064, 1065, 1066, 1067, 1068, 1069, 1070, 1071, 1072, 1073, 1074, 1075, 1076, 1077, 1078, 1079, 1080, 1081, 1082, 1083, 1084, 1085, 1086, 1087, 1088, 1089, 1090, 1091, 1092, 1093, 1094, 1095, 1096, 1097, 1098, 1099, 1100, 1101, 1102, 1103, 1104, 1105, 1106, 1107, 1108, 1109, 1110, 1111, 1112, 1113, 1114, 1115, 1116, 1117, 1118, 1119, 1120, 1121, 1122, 1123, 1124, 1125, 1126, 1127, 1128, 1129, 1130, 1131, 1132, 1133, 1134, 1135, 1136, 1137, 1138, 1139, 1140, 1141, 1142, 1143, 1144, 1145, 1146, 1147, 1148, 1149, 1150, 1151, 1152, 1153, 1154, 1155, 1156, 1157, 1158, 1159, 1160, 1161, 1162, 1163, 1164, 1165, 1166, 1167, 1168, 1169, 1170, 1171, 1172, 1173, 1174, 1175, 1176, 1177, 1178, 1179, 1180, 1181, 1182, 1183, 1184, 1185, 1186, 1187, 1188, 1189, 1190, 1191, 1192, 1193, 1194, 1195, 1196, 1197, 1198, 1199, 1200, 1201, 1202, 1203, 1204, 1205, 1206, 1207, 1208, 1209, 1210, 1211, 1212, 1213, 1214, 1215, 1216, 1217, 1218, 1219, 1220, 1221, 1222, 1223, 1224, 1225, 1226, 1227, 1228, 1229, 1230, 1231, 1232, 1233, 1234, 1235, 1236, 1237, 1238, 1239, 1240, 1241, 1242, 1243, 1244, 1245, 1246, 1247, 1248, 1249, 1250, 1251, 1252, 1253, 1254, 1255, 1256, 1257, 1258, 1259, 1260, 1261, 1262, 1263, 1264, 1265, 1266, 1267, 1268, 1269, 1270, 1271, 1272, 1273, 1274, 1275, 1276, 1277, 1278, 1279, 1280, 1281, 1282, 1283, 1284, 1285, 1286, 1287, 1288, 1289, 1290, 1291, 1292, 1293, 1294, 1295, 1296, 1297, 1298, 1299, 1300, 1301, 1302, 1303, 1304, 1305, 1306, 1307, 1308, 1309, 1310, 1311, 1312, 1313, 1314, 1315, 1316, 1317, 1318, 1319, 1320, 1321, 1322, 1323, 1324, 1325, 1326, 1327, 1328, 1329, 1330, 1331, 1332, 1333, 1334, 1335, 1336, 1337, 1338, 1339, 1340, 1341, 1342, 1343, 1344, 1345, 1346, 1347, 1348, 1349, 1350, 1351, 1352, 1353, 1354, 1355, 1356, 1357, 1358, 1359, 1360],
      "AcquisitionTime": ["175555.630000", "175557.130000", "175558.630000", "175600.130000", "175601.630000", "175603.130000", "175604.630000", "175606.130000", "175607.630000", "175609.130000", "175610.630000", "175612.130000", "175613.630000", "175615.130000", "175616.630000", "175618.130000", "175619.630000", "175621.130000", "175622.630000", "175624.130000", "175625.630000", "175627.130000", "175628.630000", "175630.130000", "175631.630000", "175633.130000", "175634.630000", "175636.130000", "175637.630000", "175639.130000", "175640.630000", "175642.130000", "175643.630000", "175645.130000", "175646.630000", "175648.130000", "175649.630000", "175651.130000", "175652.630000", "175654.130000", "175655.630000", "175657.130000", "175658.630000", "175700.130000", "175701.630000", "175703.130000", "175704.630000", "175706.130000", "175707.630000", "175709.130000", "175710.630000", "175712.130000", "175713.630000", "175715.130000", "175716.630000", "175718.130000", "175719.630000", "175721.130000", "175722.630000", "175724.130000", "175725.630000", "175727.130000", "175728.630000", "175730.130000", "175731.630000", "175733.130000", "175734.630000", "175736.130000", "175737.630000", "175739.130000", "175740.630000", "175742.130000", "175743.630000", "175745.130000", "175746.630000", "175748.130000", "175749.630000", "175751.130000", "175752.630000", "175754.130000", "175755.630000", "175757.130000", "175758.630000", "175800.130000", "175801.630000", "175803.130000", "175804.630000", "175806.130000", "175807.630000", "175809.130000", "175810.630000", "175812.130000", "175813.630000", "175815.130000", "175816.630000", "175818.130000", "175819.630000", "175821.130000", "175822.630000", "175824.130000", "175825.630000", "175827.130000", "175828.630000", "175830.130000", "175831.630000", "175833.130000", "175834.630000", "175836.130000", "175837.630000", "175839.130000", "175840.630000", "175842.130000", "175843.630000", "175845.130000", "175846.630000", "175848.130000", "175849.630000", "175851.130000", "175852.630000", "175854.130000", "175855.630000", "175857.130000", "175858.630000", "175900.130000", "175901.630000", "175903.130000", "175904.630000", "175906.130000", "175907.630000", "175909.130000", "175910.630000", "175912.130000", "175913.630000", "175915.130000", "175916.630000", "175918.130000", "175919.630000", "175921.130000", "175922.630000", "175924.130000", "175925.630000", "175927.130000", "175928.630000", "175930.130000", "175931.630000", "175933.130000", "175934.630000", "175936.130000", "175937.630000", "175939.130000", "175940.630000", "175942.130000", "175943.630000", "175945.130000", "175946.630000", "175948.130000", "175949.630000", "175951.130000", "175952.630000", "175954.130000", "175955.630000", "175957.130000", "175958.630000", "180000.130000", "180001.630000", "180003.130000", "180004.630000", "180006.130000", "180007.630000", "180009.130000", "180010.630000", "180012.130000", "180013.630000", "180015.130000", "180016.630000", "180018.130000", "180019.630000", "180021.130000", "180022.630000", "180024.130000", "180025.630000", "180027.130000", "180028.630000", "180030.130000", "180031.630000", "180033.130000", "180034.630000", "180036.130000", "180037.630000", "180039.130000", "180040.630000", "180042.130000", "180043.630000", "180045.130000", "180046.630000", "180048.130000", "180049.630000", "180051.130000", "180052.630000", "180054.130000", "180055.630000", "180057.130000", "180058.630000", "180100.130000", "180101.630000", "180103.130000", "180104.630000", "180106.130000", "180107.630000", "180109.130000", "180110.630000", "180112.130000", "180113.630000", "180115.130000", "180116.630000", "180118.130000", "180119.630000", "180121.130000", "180122.630000", "180124.130000", "180125.630000", "180127.130000", "180128.630000", "180130.130000", "180131.630000", "180133.130000", "180134.630000", "180136.130000", "180137.630000", "180139.130000", "180140.630000", "180142.130000", "180143.630000", "180145.130000", "180146.630000", "180148.130000", "180149.630000", "180151.130000", "180152.630000", "180154.130000", "180155.630000", "180157.130000", "180158.630000", "180200.130000", "180201.630000", "180203.130000", "180204.630000", "180206.130000", "180207.630000", "180209.130000", "180210.630000", "180212.130000", "180213.630000", "180215.130000", "180216.630000", "180218.130000", "180219.630000", "180221.130000", "180222.630000", "180224.130000", "180225.630000", "180227.130000", "180228.630000", "180230.130000", "180231.630000", "180233.130000", "180234.630000", "180236.130000", "180237.630000", "180239.130000", "180240.630000", "180242.130000", "180243.630000", "180245.130000", "180246.630000", "180248.130000", "180249.630000", "180251.130000", "180252.630000", "180254.130000", "180255.630000", "180257.130000", "180258.630000", "180300.130000", "180301.630000", "180303.130000", "180304.630000", "180306.130000", "180307.630000", "180309.130000", "180310.630000", "180312.130000", "180313.630000", "180315.130000", "180316.630000", "180318.130000", "180319.630000", "180321.130000", "180322.630000", "180324.130000", "180325.630000", "180327.130000", "180328.630000", "180330.130000", "180331.630000", "180333.130000", "180334.630000", "180336.130000", "180337.630000", "180339.130000", "180340.630000", "180342.130000", "180343.630000", "180345.130000", "180346.630000", "180348.130000", "180349.630000", "180351.130000", "180352.630000", "180354.130000", "180355.630000", "180357.130000", "180358.630000", "180400.130000", "180401.630000", "180403.130000", "180404.630000", "180406.130000", "180407.630000", "180409.130000", "180410.630000", "180412.130000", "180413.630000", "180415.130000", "180416.630000", "180418.130000", "180419.630000", "180421.130000", "180422.630000", "180424.130000", "180425.630000", "180427.130000", "180428.630000", "180430.130000", "180431.630000", "180433.130000", "180434.630000", "180436.130000", "180437.630000", "180439.130000", "180440.630000", "180442.130000", "180443.630000", "180445.130000", "180446.630000", "180448.130000", "180449.630000", "180451.130000", "180452.630000", "180454.130000", "180455.630000", "180457.130000", "180458.630000", "180500.130000", "180501.630000", "180503.130000", "180504.630000", "180506.130000", "180507.630000", "180509.130000", "180510.630000", "180512.130000", "180513.630000", "180515.130000", "180516.630000", "180518.130000", "180519.630000", "180521.130000", "180522.630000", "180524.130000", "180525.630000", "180527.130000", "180528.630000", "180530.130000", "180531.630000", "180533.130000", "180534.630000", "180536.130000", "180537.630000", "180539.130000", "180540.630000", "180542.130000", "180543.630000", "180545.130000", "180546.630000", "180548.130000", "180549.630000", "180551.130000", "180552.630000", "180554.130000", "180555.630000", "180557.130000", "180558.630000", "180600.130000", "180601.630000", "180603.130000", "180604.630000", "180606.130000", "180607.630000", "180609.130000", "180610.630000", "180612.130000", "180613.630000", "180615.130000", "180616.630000", "180618.130000", "180619.630000", "180621.130000", "180622.630000", "180624.130000", "180625.630000", "180627.130000", "180628.630000", "180630.130000", "180631.630000", "180633.130000", "180634.630000", "180636.130000", "180637.630000", "180639.130000", "180640.630000", "180642.130000", "180643.630000", "180645.130000", "180646.630000", "180648.130000", "180649.630000", "180651.130000", "180652.630000", "180654.130000", "180655.630000", "180657.130000", "180658.630000", "180700.130000", "180701.630000", "180703.130000", "180704.630000", "180706.130000", "180707.630000", "180709.130000", "180710.630000", "180712.130000", "180713.630000", "180715.130000", "180716.630000", "180718.130000", "180719.630000", "180721.130000", "180722.630000", "180724.130000", "180725.630000", "180727.130000", "180728.630000", "180730.130000", "180731.630000", "180733.130000", "180734.630000", "180736.130000", "180737.630000", "180739.130000", "180740.630000", "180742.130000", "180743.630000", "180745.130000", "180746.630000", "180748.130000", "180749.630000", "180751.130000", "180752.630000", "180754.130000", "180755.630000", "180757.130000", "180758.630000", "180800.130000", "180801.630000", "180803.130000", "180804.630000", "180806.130000", "180807.630000", "180809.130000", "180810.630000", "180812.130000", "180813.630000", "180815.130000", "180816.630000", "180818.130000", "180819.630000", "180821.130000", "180822.630000", "180824.130000", "180825.630000", "180827.130000", "180828.630000", "180830.130000", "180831.630000", "180833.130000", "180834.630000", "180836.130000", "180837.630000", "180839.130000", "180840.630000", "180842.130000", "180843.630000", "180845.130000", "180846.630000", "180848.130000", "180849.630000", "180851.130000", "180852.630000", "180854.130000", "180855.630000", "180857.130000", "180858.630000", "180900.130000", "180901.630000", "180903.130000", "180904.630000", "180906.130000", "180907.630000", "180909.130000", "180910.630000", "180912.130000", "180913.630000", "180915.130000", "180916.630000", "180918.130000", "180919.630000", "180921.130000", "180922.630000", "180924.130000", "180925.630000", "180927.130000", "180928.630000", "180930.130000", "180931.630000", "180933.130000", "180934.630000", "180936.130000", "180937.630000", "180939.130000", "180940.630000", "180942.130000", "180943.630000", "180945.130000", "180946.630000", "180948.130000", "180949.630000", "180951.130000", "180952.630000", "180954.130000", "180955.630000", "180957.130000", "180958.630000", "181000.130000", "181001.630000", "181003.130000", "181004.630000", "181006.130000", "181007.630000", "181009.130000", "181010.630000", "181012.130000", "181013.630000", "181015.130000", "181016.630000", "181018.130000", "181019.630000", "181021.130000", "181022.630000", "181024.130000", "181025.630000", "181027.130000", "181028.630000", "181030.130000", "181031.630000", "181033.130000", "181034.630000", "181036.130000", "181037.630000", "181039.130000", "181040.630000", "181042.130000", "181043.630000", "181045.130000", "181046.630000", "181048.130000", "181049.630000", "181051.130000", "181052.630000", "181054.130000", "181055.630000", "181057.130000", "181058.630000", "181100.130000", "181101.630000", "181103.130000", "181104.630000", "181106.130000", "181107.630000", "181109.130000", "181110.630000", "181112.130000", "181113.630000", "181115.130000", "181116.630000", "181118.130000", "181119.630000", "181121.130000", "181122.630000", "181124.130000", "181125.630000", "181127.130000", "181128.630000", "181130.130000", "181131.630000", "181133.130000", "181134.630000", "181136.130000", "181137.630000", "181139.130000", "181140.630000", "181142.130000", "181143.630000", "181145.130000", "181146.630000", "181148.130000", "181149.630000", "181151.130000", "181152.630000", "181154.130000", "181155.630000", "181157.130000", "181158.630000", "181200.130000", "181201.630000", "181203.130000", "181204.630000", "181206.130000", "181207.630000", "181209.130000", "181210.630000", "181212.130000", "181213.630000", "181215.130000", "181216.630000", "181218.130000", "181219.630000", "181221.130000", "181222.630000", "181224.130000", "181225.630000", "181227.130000", "181228.630000", "181230.130000", "181231.630000", "181233.130000", "181234.630000", "181236.130000", "181237.630000", "181239.130000", "181240.630000", "181242.130000", "181243.630000", "181245.130000", "181246.630000", "181248.130000", "181249.630000", "181251.130000", "181252.630000", "181254.130000", "181255.630000", "181257.130000", "181258.630000", "181300.130000", "181301.630000", "181303.130000", "181304.630000", "181306.130000", "181307.630000", "181309.130000", "181310.630000", "181312.130000", "181313.630000", "181315.130000", "181316.630000", "181318.130000", "181319.630000", "181321.130000", "181322.630000", "181324.130000", "181325.630000", "181327.130000", "181328.630000", "181330.130000", "181331.630000", "181333.130000", "181334.630000", "181336.130000", "181337.630000", "181339.130000", "181340.630000", "181342.130000", "181343.630000", "181345.130000", "181346.630000", "181348.130000", "181349.630000", "181351.130000", "181352.630000", "181354.130000", "181355.630000", "181357.130000", "181358.630000", "181400.130000", "181401.630000", "181403.130000", "181404.630000", "181406.130000", "181407.630000", "181409.130000", "181410.630000", "181412.130000", "181413.630000", "181415.130000", "181416.630000", "181418.130000", "181419.630000", "181421.130000", "181422.630000", "181424.130000", "181425.630000", "181427.130000", "181428.630000", "181430.130000", "181431.630000", "181433.130000", "181434.630000", "181436.130000", "181437.630000", "181439.130000", "181440.630000", "181442.130000", "181443.630000", "181445.130000", "181446.630000", "181448.130000", "181449.630000", "181451.130000", "181452.630000", "181454.130000", "181455.630000", "181457.130000", "181458.630000", "181500.130000", "181501.630000", "181503.130000", "181504.630000", "181506.130000", "181507.630000", "181509.130000", "181510.630000", "181512.130000", "181513.630000", "181515.130000", "181516.630000", "181518.130000", "181519.630000", "181521.130000", "181522.630000", "181524.130000", "181525.630000", "181527.130000", "181528.630000", "181530.130000", "181531.630000", "181533.130000", "181534.630000", "181536.130000", "181537.630000", "181539.130000", "181540.630000", "181542.130000", "181543.630000", "181545.130000", "181546.630000", "181548.130000", "181549.630000", "181551.130000", "181552.630000", "181554.130000", "181555.630000", "181557.130000", "181558.630000", "181600.130000", "181601.630000", "181603.130000", "181604.630000", "181606.130000", "181607.630000", "181609.130000", "181610.630000", "181612.130000", "181613.630000", "181615.130000", "181616.630000", "181618.130000", "181619.630000", "181621.130000", "181622.630000", "181624.130000", "181625.630000", "181627.130000", "181628.630000", "181630.130000", "181631.630000", "181633.130000", "181634.630000", "181636.130000", "181637.630000", "181639.130000", "181640.630000", "181642.130000", "181643.630000", "181645.130000", "181646.630000", "181648.130000", "181649.630000", "181651.130000", "181652.630000", "181654.130000", "181655.630000", "181657.130000", "181658.630000", "181700.130000", "181701.630000", "181703.130000", "181704.630000", "181706.130000", "181707.630000", "181709.130000", "181710.630000", "181712.130000", "181713.630000", "181715.130000", "181716.630000", "181718.130000", "181719.630000", "181721.130000", "181722.630000", "181724.130000", "181725.630000", "181727.130000", "181728.630000", "181730.130000", "181731.630000", "181733.130000", "181734.630000", "181736.130000", "181737.630000", "181739.130000", "181740.630000", "181742.130000", "181743.630000", "181745.130000", "181746.630000", "181748.130000", "181749.630000", "181751.130000", "181752.630000", "181754.130000", "181755.630000", "181757.130000", "181758.630000", "181800.130000", "181801.630000", "181803.130000", "181804.630000", "181806.130000", "181807.630000", "181809.130000", "181810.630000", "181812.130000", "181813.630000", "181815.130000", "181816.630000", "181818.130000", "181819.630000", "181821.130000", "181822.630000", "181824.130000", "181825.630000", "181827.130000", "181828.630000", "181830.130000", "181831.630000", "181833.130000", "181834.630000", "181836.130000", "181837.630000", "181839.130000", "181840.630000", "181842.130000", "181843.630000", "181845.130000", "181846.630000", "181848.130000", "181849.630000", "181851.130000", "181852.630000", "181854.130000", "181855.630000", "181857.130000", "181858.630000", "181900.130000", "181901.630000", "181903.130000", "181904.630000", "181906.130000", "181907.630000", "181909.130000", "181910.630000", "181912.130000", "181913.630000", "181915.130000", "181916.630000", "181918.130000", "181919.630000", "181921.130000", "181922.630000", "181924.130000", "181925.630000", "181927.130000", "181928.630000", "181930.130000", "181931.630000", "181933.130000", "181934.630000", "181936.130000", "181937.630000", "181939.130000", "181940.630000", "181942.130000", "181943.630000", "181945.130000", "181946.630000", "181948.130000", "181949.630000", "181951.130000", "181952.630000", "181954.130000", "181955.630000", "181957.130000", "181958.630000", "182000.130000", "182001.630000", "182003.130000", "182004.630000", "182006.130000", "182007.630000", "182009.130000", "182010.630000", "182012.130000", "182013.630000", "182015.130000", "182016.630000", "182018.130000", "182019.630000", "182021.130000", "182022.630000", "182024.130000", "182025.630000", "182027.130000", "182028.630000", "182030.130000", "182031.630000", "182033.130000", "182034.630000", "182036.130000", "182037.630000", "182039.130000", "182040.630000", "182042.130000", "182043.630000", "182045.130000", "182046.630000", "182048.130000", "182049.630000", "182051.130000", "182052.630000", "182054.130000", "182055.630000", "182057.130000", "182058.630000", "182100.130000", "182101.630000", "182103.130000", "182104.630000", "182106.130000", "182107.630000", "182109.130000", "182110.630000", "182112.130000", "182113.630000", "182115.130000", "182116.630000", "182118.130000", "182119.630000", 