{
  "AcquisitionMatrixPE": 106,
  "AcquisitionNumber": 1,
  "AcquisitionTime": "19:14:23.480000",
  "BandwidthPerPixelPhaseEncode": 16.846,
  "BaseResolution": 106,
  "BodyPartExamined": "BRAIN",
  "CoilCombinationMethod": "Sum of Squares",
  "ConsistencyInfo": "N4_VE11C_LATEST_20160120",
  "ConversionSoftware": "dcm2niix",
  "ConversionSoftwareVersion": "v1.0.20220720",
  "DerivedVendorReportedEchoSpacing": 0.000560012,
  "DeviceSerialNumber": "166108",
  "DwellTime": 1.8e-06,
  "EchoTime": 0.0352,
  "EchoTrainLength": 106,
  "EffectiveEchoSpacing": 0.000560012,
  "FlipAngle": 60,
  "HeudiconvVersion": "1.3.0",
  "ImageComments": "Unaliased MB4/PE3/LB",
  "ImageOrientationPatientDICOM": [1, 0, 0, 0, 1, 0],
  "ImageOrientationText": "Tra",
  "ImageType": [
    "ORIGINAL",
    "PRIMARY",
    "M",
    "MB",
    "ND",
    "MOSAIC"
],
  "ImagingFrequency": 123.244,
  "InPlanePhaseEncodingDirectionDICOM": "COL",
  "InstitutionAddress": "Bedford Way 26,London,London,GB,WC1H 0AP",
  "InstitutionName": "University College",
  "InstitutionalDepartmentName": "Department",
  "MRAcquisitionType": "2D",
  "MagneticFieldStrength": 3,
  "Manufacturer": "Siemens",
  "ManufacturersModelName": "Prisma",
  "MatrixCoilMode": "SENSE",
  "Modality": "MR",
  "MultibandAccelerationFactor": 4,
  "NonlinearGradientCorrection": false,
  "PartialFourier": 1,
  "PatientPosition": "HFS",
  "PercentPhaseFOV": 100,
  "PercentSampling": 100,
  "PhaseEncodingDirection": "j-",
  "PhaseEncodingSteps": 106,
  "PhaseResolution": 1,
  "PixelBandwidth": 2620,
  "ProcedureStepDescription": "Egor^MovieProject2",
  "ProtocolName": "task-backtothefuture_run-3",
  "PulseSequenceDetails": "%CustomerSeq%\\cmrr_mbep2d_bold",
  "ReceiveCoilActiveElements": "HEA;HEP",
  "ReceiveCoilName": "Head_32",
  "ReconMatrixPE": 106,
  "RepetitionTime": 1.5,
  "SAR": 0.0791434,
  "ScanOptions": "FS\\EXT",
  "ScanningSequence": "EP",
  "SequenceName": "epfid2d1_106",
  "SequenceVariant": "SK\\SS",
  "SeriesDescription": "task-backtothefuture_run-3",
  "SeriesNumber": 11,
  "ShimSetting": [-1571, 652, 7418, 536, -20, 101, 61, -51],
  "SliceThickness": 2,
  "SliceTiming": [0, 1.07, 0.6575, 0.2475, 1.3175, 0.905, 0.495, 0.0825, 1.1525, 0.74, 0.33, 1.3975, 0.9875, 0.5775, 0.165, 1.235, 0.8225, 0.4125, 0, 1.07, 0.6575, 0.2475, 1.3175, 0.905, 0.495, 0.0825, 1.1525, 0.74, 0.33, 1.3975, 0.9875, 0.5775, 0.165, 1.235, 0.8225, 0.4125, 0, 1.07, 0.6575, 0.2475, 1.3175, 0.905, 0.495, 0.0825, 1.1525, 0.74, 0.33, 1.3975, 0.9875, 0.5775, 0.165, 1.235, 0.8225, 0.4125, 0, 1.07, 0.6575, 0.2475, 1.3175, 0.905, 0.495, 0.0825, 1.1525, 0.74, 0.33, 1.3975, 0.9875, 0.5775, 0.165, 1.235, 0.8225, 0.4125],
  "SoftwareVersions": "syngo MR E11",
  "SpacingBetweenSlices": 2,
  "StationName": "AWP166108",
  "TaskName": "backtothefuture",
  "TotalReadoutTime": 0.0588013,
  "TxRefAmp": 233.997,
  "WipMemBlock": "8017eb60-bfd2-4406-9225-d2002d890f11||Sequence: R016 ve11c/master r/e634e98; Dec 19 2017 11:00:25 by eja",
  "dcmmeta_affine": [
    [-2.0, 0.0, 0.0, 106.0],
    [0.0, 2.0, 0.0, -84.72289276123047],
    [0.0, 0.0, 2.0, -49.31325149536133],
    [0.0, 0.0, 0.0, 1.0]
],
  "dcmmeta_reorient_transform": [
    [0.0, -1.0, 0.0, 105.0],
    [1.0, 0.0, 0.0, 0.0],
    [0.0, 0.0, 1.0, 0.0],
    [0.0, 0.0, 0.0, 1.0]
],
  "dcmmeta_shape": [106, 106, 72, 1608],
  "dcmmeta_slice_dim": 2,
  "dcmmeta_version": 0.6,
  "global": {
    "const": {
      "AcquisitionMatrix": [106, 0, 0, 106],
      "AngioFlag": "N",
      "BitsAllocated": 16,
      "BitsStored": 16,
      "BodyPartExamined": "BRAIN",
      "CardiacNumberOfImages": 1,
      "Columns": 954,
      "EchoNumbers": 1,
      "EchoTime": 35.2,
      "EchoTrainLength": 106,
      "FlipAngle": 60.0,
      "HighBit": 15,
      "ImageOrientationPatient": [1.0, 0.0, 0.0, 0.0, 1.0, 0.0],
      "ImagePositionPatient": [-954.0, -973.27710914612, -49.313251495361],
      "ImageType": [
        "ORIGINAL",
        "PRIMARY",
        "M",
        "MB",
        "ND",
        "MOSAIC"
],
      "ImagedNucleus": "1H",
      "ImagingFrequency": 123.243698,
      "InPlanePhaseEncodingDirection": "COL",
      "MRAcquisitionType": "2D",
      "MagneticFieldStrength": 3.0,
      "Manufacturer": "SIEMENS",
      "ManufacturerModelName": "Prisma",
      "Modality": "MR",
      "NominalInterval": 0,
      "NumberOfAverages": 1.0,
      "NumberOfPhaseEncodingSteps": 106,
      "PercentPhaseFieldOfView": 100.0,
      "PercentSampling": 100.0,
      "PerformedProcedureStepStartTime": "172512.196000",
      "PhotometricInterpretation": "MONOCHROME2",
      "PixelBandwidth": 2620.0,
      "PixelRepresentation": 0,
      "PixelSpacing": [2.0, 2.0],
      "ProtocolName": "task-backtothefuture_run-3",
      "RepetitionTime": 1500.0,
      "Rows": 954,
      "SAR": 0.07914339367414,
      "SamplesPerPixel": 1,
      "ScanOptions": [
        "FS",
        "EXT"
],
      "ScanningSequence": "EP",
      "SequenceName": "epfid2d1_106",
      "SequenceVariant": [
        "SK",
        "SS"
],
      "SeriesDescription": "task-backtothefuture_run-3",
      "SeriesNumber": 11,
      "SeriesTime": "191500.549000",
      "SliceLocation": -49.313251495361,
      "SliceThickness": 2.0,
      "SmallestImagePixelValue": 0,
      "SoftwareVersions": "syngo MR E11",
      "SpacingBetweenSlices": 1.9999999462719,
      "SpecificCharacterSet": "ISO_IR 100",
      "StudyID": "1",
      "StudyTime": "172512.136000",
      "TransmitCoilName": "Body",
      "VariableFlipAngleFlag": "N",
      "WindowCenterWidthExplanation": "Algo1",
      "dBdt": 0.0},
    "slices": {}
  },
  "time": {
    "samples": {
      "AcquisitionNumber": [1, 2, 3, 4, 5, 6, 7, 8, 9, 10, 11, 12, 13, 14, 15, 16, 17, 18, 19, 20, 21, 22, 23, 24, 25, 26, 27, 28, 29, 30, 31, 32, 33, 34, 35, 36, 37, 38, 39, 40, 41, 42, 43, 44, 45, 46, 47, 48, 49, 50, 51, 52, 53, 54, 55, 56, 57, 58, 59, 60, 61, 62, 63, 64, 65, 66, 67, 68, 69, 70, 71, 72, 73, 74, 75, 76, 77, 78, 79, 80, 81, 82, 83, 84, 85, 86, 87, 88, 89, 90, 91, 92, 93, 94, 95, 96, 97, 98, 99, 100, 101, 102, 103, 104, 105, 106, 107, 108, 109, 110, 111, 112, 113, 114, 115, 116, 117, 118, 119, 120, 121, 122, 123, 124, 125, 126, 127, 128, 129, 130, 131, 132, 133, 134, 135, 136, 137, 138, 139, 140, 141, 142, 143, 144, 145, 146, 147, 148, 149, 150, 151, 152, 153, 154, 155, 156, 157, 158, 159, 160, 161, 162, 163, 164, 165, 166, 167, 168, 169, 170, 171, 172, 173, 174, 175, 176, 177, 178, 179, 180, 181, 182, 183, 184, 185, 186, 187, 188, 189, 190, 191, 192, 193, 194, 195, 196, 197, 198, 199, 200, 201, 202, 203, 204, 205, 206, 207, 208, 209, 210, 211, 212, 213, 214, 215, 216, 217, 218, 219, 220, 221, 222, 223, 224, 225, 226, 227, 228, 229, 230, 231, 232, 233, 234, 235, 236, 237, 238, 239, 240, 241, 242, 243, 244, 245, 246, 247, 248, 249, 250, 251, 252, 253, 254, 255, 256, 257, 258, 259, 260, 261, 262, 263, 264, 265, 266, 267, 268, 269, 270, 271, 272, 273, 274, 275, 276, 277, 278, 279, 280, 281, 282, 283, 284, 285, 286, 287, 288, 289, 290, 291, 292, 293, 294, 295, 296, 297, 298, 299, 300, 301, 302, 303, 304, 305, 306, 307, 308, 309, 310, 311, 312, 313, 314, 315, 316, 317, 318, 319, 320, 321, 322, 323, 324, 325, 326, 327, 328, 329, 330, 331, 332, 333, 334, 335, 336, 337, 338, 339, 340, 341, 342, 343, 344, 345, 346, 347, 348, 349, 350, 351, 352, 353, 354, 355, 356, 357, 358, 359, 360, 361, 362, 363, 364, 365, 366, 367, 368, 369, 370, 371, 372, 373, 374, 375, 376, 377, 378, 379, 380, 381, 382, 383, 384, 385, 386, 387, 388, 389, 390, 391, 392, 393, 394, 395, 396, 397, 398, 399, 400, 401, 402, 403, 404, 405, 406, 407, 408, 409, 410, 411, 412, 413, 414, 415, 416, 417, 418, 419, 420, 421, 422, 423, 424, 425, 426, 427, 428, 429, 430, 431, 432, 433, 434, 435, 436, 437, 438, 439, 440, 441, 442, 443, 444, 445, 446, 447, 448, 449, 450, 451, 452, 453, 454, 455, 456, 457, 458, 459, 460, 461, 462, 463, 464, 465, 466, 467, 468, 469, 470, 471, 472, 473, 474, 475, 476, 477, 478, 479, 480, 481, 482, 483, 484, 485, 486, 487, 488, 489, 490, 491, 492, 493, 494, 495, 496, 497, 498, 499, 500, 501, 502, 503, 504, 505, 506, 507, 508, 509, 510, 511, 512, 513, 514, 515, 516, 517, 518, 519, 520, 521, 522, 523, 524, 525, 526, 527, 528, 529, 530, 531, 532, 533, 534, 535, 536, 537, 538, 539, 540, 541, 542, 543, 544, 545, 546, 547, 548, 549, 550, 551, 552, 553, 554, 555, 556, 557, 558, 559, 560, 561, 562, 563, 564, 565, 566, 567, 568, 569, 570, 571, 572, 573, 574, 575, 576, 577, 578, 579, 580, 581, 582, 583, 584, 585, 586, 587, 588, 589, 590, 591, 592, 593, 594, 595, 596, 597, 598, 599, 600, 601, 602, 603, 604, 605, 606, 607, 608, 609, 610, 611, 612, 613, 614, 615, 616, 617, 618, 619, 620, 621, 622, 623, 624, 625, 626, 627, 628, 629, 630, 631, 632, 633, 634, 635, 636, 637, 638, 639, 640, 641, 642, 643, 644, 645, 646, 647, 648, 649, 650, 651, 652, 653, 654, 655, 656, 657, 658, 659, 660, 661, 662, 663, 664, 665, 666, 667, 668, 669, 670, 671, 672, 673, 674, 675, 676, 677, 678, 679, 680, 681, 682, 683, 684, 685, 686, 687, 688, 689, 690, 691, 692, 693, 694, 695, 696, 697, 698, 699, 700, 701, 702, 703, 704, 705, 706, 707, 708, 709, 710, 711, 712, 713, 714, 715, 716, 717, 718, 719, 720, 721, 722, 723, 724, 725, 726, 727, 728, 729, 730, 731, 732, 733, 734, 735, 736, 737, 738, 739, 740, 741, 742, 743, 744, 745, 746, 747, 748, 749, 750, 751, 752, 753, 754, 755, 756, 757, 758, 759, 760, 761, 762, 763, 764, 765, 766, 767, 768, 769, 770, 771, 772, 773, 774, 775, 776, 777, 778, 779, 780, 781, 782, 783, 784, 785, 786, 787, 788, 789, 790, 791, 792, 793, 794, 795, 796, 797, 798, 799, 800, 801, 802, 803, 804, 805, 806, 807, 808, 809, 810, 811, 812, 813, 814, 815, 816, 817, 818, 819, 820, 821, 822, 823, 824, 825, 826, 827, 828, 829, 830, 831, 832, 833, 834, 835, 836, 837, 838, 839, 840, 841, 842, 843, 844, 845, 846, 847, 848, 849, 850, 851, 852, 853, 854, 855, 856, 857, 858, 859, 860, 861, 862, 863, 864, 865, 866, 867, 868, 869, 870, 871, 872, 873, 874, 875, 876, 877, 878, 879, 880, 881, 882, 883, 884, 885, 886, 887, 888, 889, 890, 891, 892, 893, 894, 895, 896, 897, 898, 899, 900, 901, 902, 903, 904, 905, 906, 907, 908, 909, 910, 911, 912, 913, 914, 915, 916, 917, 918, 919, 920, 921, 922, 923, 924, 925, 926, 927, 928, 929, 930, 931, 932, 933, 934, 935, 936, 937, 938, 939, 940, 941, 942, 943, 944, 945, 946, 947, 948, 949, 950, 951, 952, 953, 954, 955, 956, 957, 958, 959, 960, 961, 962, 963, 964, 965, 966, 967, 968, 969, 970, 971, 972, 973, 974, 975, 976, 977, 978, 979, 980, 981, 982, 983, 984, 985, 986, 987, 988, 989, 990, 991, 992, 993, 994, 995, 996, 997, 998, 999, 1000, 1001, 1002, 1003, 1004, 1005, 1006, 1007, 1008, 1009, 1010, 1011, 1012, 1013, 1014, 1015, 1016, 1017, 1018, 1019, 1020, 1021, 1022, 1023, 1024, 1025, 1026, 1027, 1028, 1029, 1030, 1031, 1032, 1033, 1034, 1035, 1036, 1037, 1038, 1039, 1040, 1041, 1042, 1043, 1044, 1045, 1046, 1047, 1048, 1049, 1050, 1051, 1052, 1053, 1054, 1055, 1056, 1057, 1058, 1059, 1060, 1061, 1062, 1063, 1064, 1065, 1066, 1067, 1068, 1069, 1070, 1071, 1072, 1073, 1074, 1075, 1076, 1077, 1078, 1079, 1080, 1081, 1082, 1083, 1084, 1085, 1086, 1087, 1088, 1089, 1090, 1091, 1092, 1093, 1094, 1095, 1096, 1097, 1098, 1099, 1100, 1101, 1102, 1103, 1104, 1105, 1106, 1107, 1108, 1109, 1110, 1111, 1112, 1113, 1114, 1115, 1116, 1117, 1118, 1119, 1120, 1121, 1122, 1123, 1124, 1125, 1126, 1127, 1128, 1129, 1130, 1131, 1132, 1133, 1134, 1135, 1136, 1137, 1138, 1139, 1140, 1141, 1142, 1143, 1144, 1145, 1146, 1147, 1148, 1149, 1150, 1151, 1152, 1153, 1154, 1155, 1156, 1157, 1158, 1159, 1160, 1161, 1162, 1163, 1164, 1165, 1166, 1167, 1168, 1169, 1170, 1171, 1172, 1173, 1174, 1175, 1176, 1177, 1178, 1179, 1180, 1181, 1182, 1183, 1184, 1185, 1186, 1187, 1188, 1189, 1190, 1191, 1192, 1193, 1194, 1195, 1196, 1197, 1198, 1199, 1200, 1201, 1202, 1203, 1204, 1205, 1206, 1207, 1208, 1209, 1210, 1211, 1212, 1213, 1214, 1215, 1216, 1217, 1218, 1219, 1220, 1221, 1222, 1223, 1224, 1225, 1226, 1227, 1228, 1229, 1230, 1231, 1232, 1233, 1234, 1235, 1236, 1237, 1238, 1239, 1240, 1241, 1242, 1243, 1244, 1245, 1246, 1247, 1248, 1249, 1250, 1251, 1252, 1253, 1254, 1255, 1256, 1257, 1258, 1259, 1260, 1261, 1262, 1263, 1264, 1265, 1266, 1267, 1268, 1269, 1270, 1271, 1272, 1273, 1274, 1275, 1276, 1277, 1278, 1279, 1280, 1281, 1282, 1283, 1284, 1285, 1286, 1287, 1288, 1289, 1290, 1291, 1292, 1293, 1294, 1295, 1296, 1297, 1298, 1299, 1300, 1301, 1302, 1303, 1304, 1305, 1306, 1307, 1308, 1309, 1310, 1311, 1312, 1313, 1314, 1315, 1316, 1317, 1318, 1319, 1320, 1321, 1322, 1323, 1324, 1325, 1326, 1327, 1328, 1329, 1330, 1331, 1332, 1333, 1334, 1335, 1336, 1337, 1338, 1339, 1340, 1341, 1342, 1343, 1344, 1345, 1346, 1347, 1348, 1349, 1350, 1351, 1352, 1353, 1354, 1355, 1356, 1357, 1358, 1359, 1360, 1361, 1362, 1363, 1364, 1365, 1366, 1367, 1368, 1369, 1370, 1371, 1372, 1373, 1374, 1375, 1376, 1377, 1378, 1379, 1380, 1381, 1382, 1383, 1384, 1385, 1386, 1387, 1388, 1389, 1390, 1391, 1392, 1393, 1394, 1395, 1396, 1397, 1398, 1399, 1400, 1401, 1402, 1403, 1404, 1405, 1406, 1407, 1408, 1409, 1410, 1411, 1412, 1413, 1414, 1415, 1416, 1417, 1418, 1419, 1420, 1421, 1422, 1423, 1424, 1425, 1426, 1427, 1428, 1429, 1430, 1431, 1432, 1433, 1434, 1435, 1436, 1437, 1438, 1439, 1440, 1441, 1442, 1443, 1444, 1445, 1446, 1447, 1448, 1449, 1450, 1451, 1452, 1453, 1454, 1455, 1456, 1457, 1458, 1459, 1460, 1461, 1462, 1463, 1464, 1465, 1466, 1467, 1468, 1469, 1470, 1471, 1472, 1473, 1474, 1475, 1476, 1477, 1478, 1479, 1480, 1481, 1482, 1483, 1484, 1485, 1486, 1487, 1488, 1489, 1490, 1491, 1492, 1493, 1494, 1495, 1496, 1497, 1498, 1499, 1500, 1501, 1502, 1503, 1504, 1505, 1506, 1507, 1508, 1509, 1510, 1511, 1512, 1513, 1514, 1515, 1516, 1517, 1518, 1519, 1520, 1521, 1522, 1523, 1524, 1525, 1526, 1527, 1528, 1529, 1530, 1531, 1532, 1533, 1534, 1535, 1536, 1537, 1538, 1539, 1540, 1541, 1542, 1543, 1544, 1545, 1546, 1547, 1548, 1549, 1550, 1551, 1552, 1553, 1554, 1555, 1556, 1557, 1558, 1559, 1560, 1561, 1562, 1563, 1564, 1565, 1566, 1567, 1568, 1569, 1570, 1571, 1572, 1573, 1574, 1575, 1576, 1577, 1578, 1579, 1580, 1581, 1582, 1583, 1584, 1585, 1586, 1587, 1588, 1589, 1590, 1591, 1592, 1593, 1594, 1595, 1596, 1597, 1598, 1599, 1600, 1601, 1602, 1603, 1604, 1605, 1606, 1607, 1608],
      "AcquisitionTime": ["191423.480000", "191424.980000", "191426.480000", "191427.980000", "191429.480000", "191430.980000", "191432.480000", "191433.980000", "191435.480000", "191436.980000", "191438.480000", "191439.980000", "191441.480000", "191442.980000", "191444.480000", "191445.980000", "191447.480000", "191448.980000", "191450.480000", "191451.980000", "191453.480000", "191454.980000", "191456.480000", "191457.980000", "191459.480000", "191500.980000", "191502.480000", "191503.980000", "191505.480000", "191506.980000", "191508.480000", "191509.980000", "191511.480000", "191512.980000", "191514.480000", "191515.980000", "191517.480000", "191518.980000", "191520.480000", "191521.980000", "191523.480000", "191524.980000", "191526.480000", "191527.980000", "191529.480000", "191530.980000", "191532.480000", "191533.980000", "191535.480000", "191536.980000", "191538.480000", "191539.980000", "191541.480000", "191542.980000", "191544.480000", "191545.980000", "191547.480000", "191548.980000", "191550.480000", "191551.980000", "191553.480000", "191554.980000", "191556.480000", "191557.980000", "191559.480000", "191600.980000", "191602.480000", "191603.980000", "191605.480000", "191606.980000", "191608.480000", "191609.980000", "191611.480000", "191612.980000", "191614.480000", "191615.980000", "191617.480000", "191618.980000", "191620.480000", "191621.980000", "191623.480000", "191624.980000", "191626.480000", "191627.980000", "191629.480000", "191630.980000", "191632.480000", "191633.980000", "191635.480000", "191636.980000", "191638.480000", "191639.980000", "191641.480000", "191642.980000", "191644.480000", "191645.980000", "191647.480000", "191648.980000", "191650.480000", "191651.980000", "191653.480000", "191654.980000", "191656.480000", "191657.980000", "191659.480000", "191700.980000", "191702.480000", "191703.980000", "191705.480000", "191706.980000", "191708.480000", "191709.980000", "191711.480000", "191712.980000", "191714.480000", "191715.980000", "191717.480000", "191718.980000", "191720.480000", "191721.980000", "191723.480000", "191724.980000", "191726.480000", "191727.980000", "191729.480000", "191730.980000", "191732.480000", "191733.980000", "191735.480000", "191736.980000", "191738.480000", "191739.980000", "191741.480000", "191742.980000", "191744.480000", "191745.980000", "191747.480000", "191748.980000", "191750.480000", "191751.980000", "191753.480000", "191754.980000", "191756.480000", "191757.980000", "191759.480000", "191800.980000", "191802.480000", "191803.980000", "191805.480000", "191806.980000", "191808.480000", "191809.980000", "191811.480000", "191812.980000", "191814.480000", "191815.980000", "191817.480000", "191818.980000", "191820.480000", "191821.980000", "191823.480000", "191824.980000", "191826.480000", "191827.980000", "191829.480000", "191830.980000", "191832.480000", "191833.980000", "191835.480000", "191836.980000", "191838.480000", "191839.980000", "191841.480000", "191842.980000", "191844.480000", "191845.980000", "191847.480000", "191848.980000", "191850.480000", "191851.980000", "191853.480000", "191854.980000", "191856.480000", "191857.980000", "191859.480000", "191900.980000", "191902.480000", "191903.980000", "191905.480000", "191906.980000", "191908.480000", "191909.980000", "191911.480000", "191912.980000", "191914.480000", "191915.980000", "191917.480000", "191918.980000", "191920.480000", "191921.980000", "191923.480000", "191924.980000", "191926.480000", "191927.980000", "191929.480000", "191930.980000", "191932.480000", "191933.980000", "191935.480000", "191936.980000", "191938.480000", "191939.980000", "191941.480000", "191942.980000", "191944.480000", "191945.980000", "191947.480000", "191948.980000", "191950.480000", "191951.980000", "191953.480000", "191954.980000", "191956.480000", "191957.980000", "191959.480000", "192000.980000", "192002.480000", "192003.980000", "192005.480000", "192006.980000", "192008.480000", "192009.980000", "192011.480000", "192012.980000", "192014.480000", "192015.980000", "192017.480000", "192018.980000", "192020.480000", "192021.980000", "192023.480000", "192024.980000", "192026.480000", "192027.980000", "192029.480000", "192030.980000", "192032.480000", "192033.980000", "192035.480000", "192036.980000", "192038.480000", "192039.980000", "192041.480000", "192042.980000", "192044.480000", "192045.980000", "192047.480000", "192048.980000", "192050.480000", "192051.980000", "192053.480000", "192054.980000", "192056.480000", "192057.980000", "192059.480000", "192100.980000", "192102.480000", "192103.980000", "192105.480000", "192106.980000", "192108.480000", "192109.980000", "192111.480000", "192112.980000", "192114.480000", "192115.980000", "192117.480000", "192118.980000", "192120.480000", "192121.980000", "192123.480000", "192124.980000", "192126.480000", "192127.980000", "192129.480000", "192130.980000", "192132.480000", "192133.980000", "192135.480000", "192136.980000", "192138.480000", "192139.980000", "192141.480000", "192142.980000", "192144.480000", "192145.980000", "192147.480000", "192148.980000", "192150.480000", "192151.980000", "192153.480000", "192154.980000", "192156.480000", "192157.980000", "192159.480000", "192200.980000", "192202.480000", "192203.980000", "192205.480000", "192206.980000", "192208.480000", "192209.980000", "192211.480000", "192212.980000", "192214.480000", "192215.980000", "192217.480000", "192218.980000", "192220.480000", "192221.980000", "192223.480000", "192224.980000", "192226.480000", "192227.980000", "192229.480000", "192230.980000", "192232.480000", "192233.980000", "192235.480000", "192236.980000", "192238.480000", "192239.980000", "192241.480000", "192242.980000", "192244.480000", "192245.980000", "192247.480000", "192248.980000", "192250.480000", "192251.980000", "192253.480000", "192254.980000", "192256.480000", "192257.980000", "192259.480000", "192300.980000", "192302.480000", "192303.980000", "192305.480000", "192306.980000", "192308.480000", "192309.980000", "192311.480000", "192312.980000", "192314.480000", "192315.980000", "192317.480000", "192318.980000", "192320.480000", "192321.980000", "192323.480000", "192324.980000", "192326.480000", "192327.980000", "192329.480000", "192330.980000", "192332.480000", "192333.980000", "192335.480000", "192336.980000", "192338.480000", "192339.980000", "192341.480000", "192342.980000", "192344.480000", "192345.980000", "192347.480000", "192348.980000", "192350.480000", "192351.980000", "192353.480000", "192354.980000", "192356.480000", "192357.980000", "192359.480000", "192400.980000", "192402.480000", "192403.980000", "192405.480000", "192406.980000", "192408.480000", "192409.980000", "192411.480000", "192412.980000", "192414.480000", "192415.980000", "192417.480000", "192418.980000", "192420.480000", "192421.980000", "192423.480000", "192424.980000", "192426.480000", "192427.980000", "192429.480000", "192430.980000", "192432.480000", "192433.980000", "192435.480000", "192436.980000", "192438.480000", "192439.980000", "192441.480000", "192442.980000", "192444.480000", "192445.980000", "192447.480000", "192448.980000", "192450.480000", "192451.980000", "192453.480000", "192454.980000", "192456.480000", "192457.980000", "192459.480000", "192500.980000", "192502.480000", "192503.980000", "192505.480000", "192506.980000", "192508.480000", "192509.980000", "192511.480000", "192512.980000", "192514.480000", "192515.980000", "192517.480000", "192518.980000", "192520.480000", "192521.980000", "192523.480000", "192524.980000", "192526.480000", "192527.980000", "192529.480000", "192530.980000", "192532.480000", "192533.980000", "192535.480000", "192536.980000", "192538.480000", "192539.980000", "192541.480000", "192542.980000", "192544.480000", "192545.980000", "192547.480000", "192548.980000", "192550.480000", "192551.980000", "192553.480000", "192554.980000", "192556.480000", "192557.980000", "192559.480000", "192600.980000", "192602.480000", "192603.980000", "192605.480000", "192606.980000", "192608.480000", "192609.980000", "192611.480000", "192612.980000", "192614.480000", "192615.980000", "192617.480000", "192618.980000", "192620.480000", "192621.980000", "192623.480000", "192624.980000", "192626.480000", "192627.980000", "192629.480000", "192630.980000", "192632.480000", "192633.980000", "192635.480000", "192636.980000", "192638.480000", "192639.980000", "192641.480000", "192642.980000", "192644.480000", "192645.980000", "192647.480000", "192648.980000", "192650.480000", "192651.980000", "192653.480000", "192654.980000", "192656.480000", "192657.980000", "192659.480000", "192700.980000", "192702.480000", "192703.980000", "192705.480000", "192706.980000", "192708.480000", "192709.980000", "192711.480000", "192712.980000", "192714.480000", "192715.980000", "192717.480000", "192718.980000", "192720.480000", "192721.980000", "192723.480000", "192724.980000", "192726.480000", "192727.980000", "192729.480000", "192730.980000", "192732.480000", "192733.980000", "192735.480000", "192736.980000", "192738.480000", "192739.980000", "192741.480000", "192742.980000", "192744.480000", "192745.980000", "192747.480000", "192748.980000", "192750.480000", "192751.980000", "192753.480000", "192754.980000", "192756.480000", "192757.980000", "192759.480000", "192800.980000", "192802.480000", "192803.980000", "192805.480000", "192806.980000", "192808.480000", "192809.980000", "192811.480000", "192812.980000", "192814.480000", "192815.980000", "192817.480000", "192818.980000", "192820.480000", "192821.980000", "192823.480000", "192824.980000", "192826.480000", "192827.980000", "192829.480000", "192830.980000", "192832.480000", "192833.980000", "192835.480000", "192836.980000", "192838.480000", "192839.980000", "192841.480000", "192842.980000", "192844.480000", "192845.980000", "192847.480000", "192848.980000", "192850.480000", "192851.980000", "192853.480000", "192854.980000", "192856.480000", "192857.980000", "192859.480000", "192900.980000", "192902.480000", "192903.980000", "192905.480000", "192906.980000", "192908.480000", "192909.980000", "192911.480000", "192912.980000", "192914.480000", "192915.980000", "192917.480000", "192918.980000", "192920.480000", "192921.980000", "192923.480000", "192924.980000", "192926.480000", "192927.980000", "192929.480000", "192930.980000", "192932.480000", "192933.980000", "192935.480000", "192936.980000", "192938.480000", "192939.980000", "192941.480000", "192942.980000", "192944.480000", "192945.980000", "192947.480000", "192948.980000", "192950.480000", "192951.980000", "192953.480000", "192954.980000", "192956.480000", "192957.980000", "192959.480000", "193000.980000", "193002.480000", "193003.980000", "193005.480000", "193006.980000", "193008.480000", "193009.980000", "193011.480000", "193012.980000", "193014.480000", "193015.980000", "193017.480000", "193018.980000", "193020.480000", "193021.980000", "193023.480000", "193024.980000", "193026.480000", "193027.980000", "193029.480000", "193030.980000", "193032.480000", "193033.980000", "193035.480000", "193036.980000", "193038.480000", "193039.980000", "193041.480000", "193042.980000", "193044.480000", "193045.980000", "193047.480000", "193048.980000", "193050.480000", "193051.980000", "193053.480000", "193054.980000", "193056.480000", "193057.980000", "193059.480000", "193100.980000", "193102.480000", "193103.980000", "193105.480000", "193106.980000", "193108.480000", "193109.980000", "193111.480000", "193112.980000", "193114.480000", "193115.980000", "193117.480000", "193118.980000", "193120.480000", "193121.980000", "193123.480000", "193124.980000", "193126.480000", "193127.980000", "193129.480000", "193130.980000", "193132.480000", "193133.980000", "193135.480000", "193136.980000", "193138.480000", "193139.980000", "193141.480000", "193142.980000", "193144.480000", "193145.980000", "193147.480000", "193148.980000", "193150.480000", "193151.980000", "193153.480000", "193154.980000", "193156.480000", "193157.980000", "193159.480000", "193200.980000", "193202.480000", "193203.980000", "193205.480000", "193206.980000", "193208.480000", "193209.980000", "193211.480000", "193212.980000", "193214.480000", "193215.980000", "193217.480000", "193218.980000", "193220.480000", "193221.980000", "193223.480000", "193224.980000", "193226.480000", "193227.980000", "193229.480000", "193230.980000", "193232.480000", "193233.980000", "193235.480000", "193236.980000", "193238.480000", "193239.980000", "193241.480000", "193242.980000", "193244.480000", "193245.980000", "193247.480000", "193248.980000", "193250.480000", "193251.980000", "193253.480000", "193254.980000", "193256.480000", "193257.980000", "193259.480000", "193300.980000", "193302.480000", "193303.980000", "193305.480000", "193306.980000", "193308.480000", "193309.980000", "193311.480000", "193312.980000", "193314.480000", "193315.980000", "193317.480000", "193318.980000", "193320.480000", "193321.980000", "193323.480000", "193324.980000", "193326.480000", "193327.980000", "193329.480000", "193330.980000", "193332.480000", "193333.980000", "193335.480000", "193336.980000", "193338.480000", "193339.980000", "193341.480000", "193342.980000", "193344.480000", "193345.980000", "193347.480000", "193348.980000", "193350.480000", "193351.980000", "193353.480000", "193354.980000", "193356.480000", "193357.980000", "193359.480000", "193400.980000", "193402.480000", "193403.980000", "193405.480000", "193406.980000", "193408.480000", "193409.980000", "193411.480000", "193412.980000", "193414.480000", "193415.980000", "193417.480000", "193418.980000", "193420.480000", "193421.980000", "193423.480000", "193424.980000", "193426.480000", "193427.980000", "193429.480000", "193430.980000", "193432.480000", "193433.980000", "193435.480000", "193436.980000", "193438.480000", "193439.980000", "193441.480000", "193442.980000", "193444.480000", "193445.980000", "193447.480000", "193448.980000", "193450.480000", "193451.980000", "193453.480000", "193454.980000", "193456.480000", "193457.980000", "193459.480000", "193500.980000", "193502.480000", "193503.980000", "193505.480000", "193506.980000", "193508.480000", "193509.980000", "193511.480000", "193512.980000", "193514.480000", "193515.980000", "193517.480000", "193518.980000", "193520.480000", "193521.980000", "193523.480000", "193524.980000", "193526.480000", "193527.980000", "193529.480000", "193530.980000", "193532.480000", "193533.980000", "193535.480000", "193536.980000", "193538.480000", "193539.980000", "193541.480000", "193542.980000", "193544.480000", "193545.980000", "193547.480000", "193548.980000", "193550.480000", "193551.980000", "193553.480000", "193554.980000", "193556.480000", "193557.980000", "193559.480000", "193600.980000", "193602.480000", "193603.980000", "193605.480000", "193606.980000", "193608.480000", "193609.980000", "193611.480000", "193612.980000", "193614.480000", "193615.980000", "193617.480000", "193618.980000", "193620.480000", "193621.980000", "193623.480000", "193624.980000", "193626.480000", "193627.980000", "193629.480000", "193630.980000", "193632.480000", "193633.980000", "193635.480000", "193636.980000", "193638.480000", "193639.980000", "193641.480000", "193642.980000", "193644.480000", "193645.980000", "193647.480000", "193648.980000", "193650.480000", "193651.980000", "193653.480000", "193654.980000", "193656.480000", "193657.980000", "193659.480000", "193700.980000", "193702.480000", "193703.980000", "193705.480000", "193706.980000", "193708.480000", "193709.980000", "193711.480000", "193712.980000", "193714.480000", "193715.980000", "193717.480000", "193718.980000", "193720.480000", "193721.980000", "193723.480000", "193724.980000", "193726.480000", "193727.980000", "193729.480000", "193730.980000", "193732.480000", "193733.980000", "193735.480000", "19373