{
  "AcquisitionMatrixPE": 106,
  "AcquisitionNumber": 1,
  "AcquisitionTime": "16:56:41.702500",
  "BandwidthPerPixelPhaseEncode": 16.846,
  "BaseResolution": 106,
  "BodyPartExamined": "BRAIN",
  "CoilCombinationMethod": "Sum of Squares",
  "ConsistencyInfo": "N4_VE11C_LATEST_20160120",
  "ConversionSoftware": "dcm2niix",
  "ConversionSoftwareVersion": "v1.0.20220720",
  "DerivedVendorReportedEchoSpacing": 0.000560012,
  "DeviceSerialNumber": "166108",
  "DwellTime": 1.8e-06,
  "EchoTime": 0.0352,
  "EchoTrainLength": 106,
  "EffectiveEchoSpacing": 0.000560012,
  "FlipAngle": 60,
  "HeudiconvVersion": "1.3.0",
  "ImageComments": "Unaliased MB4/PE3/LB",
  "ImageOrientationPatientDICOM": [1, 0, 0, 0, 0.943223, -0.332161],
  "ImageOrientationText": "Tra>Cor(-19.4)",
  "ImageType": [
    "ORIGINAL",
    "PRIMARY",
    "M",
    "MB",
    "ND",
    "MOSAIC"
],
  "ImagingFrequency": 123.244,
  "InPlanePhaseEncodingDirectionDICOM": "COL",
  "InstitutionAddress": "Bedford Way 26,London,London,GB,WC1H 0AP",
  "InstitutionName": "University College",
  "InstitutionalDepartmentName": "Department",
  "MRAcquisitionType": "2D",
  "MagneticFieldStrength": 3,
  "Manufacturer": "Siemens",
  "ManufacturersModelName": "Prisma",
  "MatrixCoilMode": "SENSE",
  "Modality": "MR",
  "MultibandAccelerationFactor": 4,
  "NonlinearGradientCorrection": false,
  "PartialFourier": 1,
  "PatientPosition": "HFS",
  "PercentPhaseFOV": 100,
  "PercentSampling": 100,
  "PhaseEncodingDirection": "j-",
  "PhaseEncodingSteps": 106,
  "PhaseResolution": 1,
  "PixelBandwidth": 2620,
  "ProcedureStepDescription": "Egor^MovieProject2",
  "ProtocolName": "func-bold_task-pRF_run-03",
  "PulseSequenceDetails": "%CustomerSeq%\\cmrr_mbep2d_bold",
  "ReceiveCoilActiveElements": "HEA;HEP",
  "ReceiveCoilName": "Head_32",
  "ReconMatrixPE": 106,
  "RepetitionTime": 1,
  "SAR": 0.0871302,
  "ScanOptions": "FS\\EXT",
  "ScanningSequence": "EP",
  "SequenceName": "epfid2d1_106",
  "SequenceVariant": "SK\\SS",
  "SeriesDescription": "func-bold_task-pRF_run-03",
  "SeriesNumber": 14,
  "ShimSetting": [-1510, 601, 7447, 263, 45, 6, 85, -104],
  "SliceThickness": 2,
  "SliceTiming": [0, 0.4075, 0.815, 0.245, 0.6525, 0.08, 0.49, 0.8975, 0.325, 0.735, 0.1625, 0.57, 0, 0.4075, 0.815, 0.245, 0.6525, 0.08, 0.49, 0.8975, 0.325, 0.735, 0.1625, 0.57, 0, 0.4075, 0.815, 0.245, 0.6525, 0.08, 0.49, 0.8975, 0.325, 0.735, 0.1625, 0.57, 0, 0.4075, 0.815, 0.245, 0.6525, 0.08, 0.49, 0.8975, 0.325, 0.735, 0.1625, 0.57],
  "SoftwareVersions": "syngo MR E11",
  "SpacingBetweenSlices": 2,
  "StationName": "AWP166108",
  "TaskName": "retinotopy",
  "TotalReadoutTime": 0.0588013,
  "TxRefAmp": 265.776,
  "WipMemBlock": "e8fbb2cf-f78f-4b04-bc1c-85a59f2feb36||Sequence: R016 ve11c/master r/e634e98; Dec 19 2017 11:00:25 by eja",
  "dcmmeta_affine": [
    [-2.0, 0.0, 0.0, 106.0],
    [0.0, 1.8864452838897705, -0.6643223166465759, -84.33418273925781],
    [0.0, 0.6643223166465759, 1.8864452838897705, -44.33164596557617],
    [0.0, 0.0, 0.0, 1.0]
],
  "dcmmeta_reorient_transform": [
    [0.0, -1.0, 0.0, 105.0],
    [1.0, 0.0, 0.0, 0.0],
    [0.0, 0.0, 1.0, 0.0],
    [0.0, 0.0, 0.0, 1.0]
],
  "dcmmeta_shape": [106, 106, 48, 356],
  "dcmmeta_slice_dim": 2,
  "dcmmeta_version": 0.6,
  "global": {
    "const": {
      "AcquisitionMatrix": [106, 0, 0, 106],
      "AngioFlag": "N",
      "BitsAllocated": 16,
      "BitsStored": 16,
      "BodyPartExamined": "BRAIN",
      "CardiacNumberOfImages": 1,
      "Columns": 742,
      "EchoNumbers": 1,
      "EchoTime": 35.2,
      "EchoTrainLength": 106,
      "FlipAngle": 60.0,
      "HighBit": 15,
      "ImageOrientationPatient": [1.0, 0.0, 0.0, 0.0, 0.94322265279987, -0.3321611465015],
      "ImagePositionPatient": [-742.0, -713.63217944684, 236.67668448888],
      "ImageType": [
        "ORIGINAL",
        "PRIMARY",
        "M",
        "MB",
        "ND",
        "MOSAIC"
],
      "ImagedNucleus": "1H",
      "ImagingFrequency": 123.24361,
      "InPlanePhaseEncodingDirection": "COL",
      "MRAcquisitionType": "2D",
      "MagneticFieldStrength": 3.0,
      "Manufacturer": "SIEMENS",
      "ManufacturerModelName": "Prisma",
      "Modality": "MR",
      "NominalInterval": 0,
      "NumberOfAverages": 1.0,
      "NumberOfPhaseEncodingSteps": 106,
      "PercentPhaseFieldOfView": 100.0,
      "PercentSampling": 100.0,
      "PerformedProcedureStepStartTime": "155015.145000",
      "PhotometricInterpretation": "MONOCHROME2",
      "PixelBandwidth": 2620.0,
      "PixelRepresentation": 0,
      "PixelSpacing": [2.0, 2.0],
      "ProtocolName": "func-bold_task-pRF_run-03",
      "RepetitionTime": 1000.0,
      "Rows": 742,
      "SAR": 0.08713015656672,
      "SamplesPerPixel": 1,
      "ScanOptions": [
        "FS",
        "EXT"
],
      "ScanningSequence": "EP",
      "SequenceName": "epfid2d1_106",
      "SequenceVariant": [
        "SK",
        "SS"
],
      "SeriesDescription": "func-bold_task-pRF_run-03",
      "SeriesNumber": 14,
      "SeriesTime": "165715.658000",
      "SliceLocation": -13.802072705925,
      "SliceThickness": 2.0,
      "SmallestImagePixelValue": 0,
      "SoftwareVersions": "syngo MR E11",
      "SpacingBetweenSlices": 2.0000000323066,
      "SpecificCharacterSet": "ISO_IR 100",
      "StudyID": "1",
      "StudyTime": "155015.036000",
      "TransmitCoilName": "Body",
      "VariableFlipAngleFlag": "N",
      "WindowCenterWidthExplanation": "Algo1",
      "dBdt": 0.0},
    "slices": {}
  },
  "time": {
    "samples": {
      "AcquisitionNumber": [1, 2, 3, 4, 5, 6, 7, 8, 9, 10, 11, 12, 13, 14, 15, 16, 17, 18, 19, 20, 21, 22, 23, 24, 25, 26, 27, 28, 29, 30, 31, 32, 33, 34, 35, 36, 37, 38, 39, 40, 41, 42, 43, 44, 45, 46, 47, 48, 49, 50, 51, 52, 53, 54, 55, 56, 57, 58, 59, 60, 61, 62, 63, 64, 65, 66, 67, 68, 69, 70, 71, 72, 73, 74, 75, 76, 77, 78, 79, 80, 81, 82, 83, 84, 85, 86, 87, 88, 89, 90, 91, 92, 93, 94, 95, 96, 97, 98, 99, 100, 101, 102, 103, 104, 105, 106, 107, 108, 109, 110, 111, 112, 113, 114, 115, 116, 117, 118, 119, 120, 121, 122, 123, 124, 125, 126, 127, 128, 129, 130, 131, 132, 133, 134, 135, 136, 137, 138, 139, 140, 141, 142, 143, 144, 145, 146, 147, 148, 149, 150, 151, 152, 153, 154, 155, 156, 157, 158, 159, 160, 161, 162, 163, 164, 165, 166, 167, 168, 169, 170, 171, 172, 173, 174, 175, 176, 177, 178, 179, 180, 181, 182, 183, 184, 185, 186, 187, 188, 189, 190, 191, 192, 193, 194, 195, 196, 197, 198, 199, 200, 201, 202, 203, 204, 205, 206, 207, 208, 209, 210, 211, 212, 213, 214, 215, 216, 217, 218, 219, 220, 221, 222, 223, 224, 225, 226, 227, 228, 229, 230, 231, 232, 233, 234, 235, 236, 237, 238, 239, 240, 241, 242, 243, 244, 245, 246, 247, 248, 249, 250, 251, 252, 253, 254, 255, 256, 257, 258, 259, 260, 261, 262, 263, 264, 265, 266, 267, 268, 269, 270, 271, 272, 273, 274, 275, 276, 277, 278, 279, 280, 281, 282, 283, 284, 285, 286, 287, 288, 289, 290, 291, 292, 293, 294, 295, 296, 297, 298, 299, 300, 301, 302, 303, 304, 305, 306, 307, 308, 309, 310, 311, 312, 313, 314, 315, 316, 317, 318, 319, 320, 321, 322, 323, 324, 325, 326, 327, 328, 329, 330, 331, 332, 333, 334, 335, 336, 337, 338, 339, 340, 341, 342, 343, 344, 345, 346, 347, 348, 349, 350, 351, 352, 353, 354, 355, 356],
      "AcquisitionTime": ["165641.702500", "165642.702500", "165643.702500", "165644.702500", "165645.702500", "165646.702500", "165647.702500", "165648.702500", "165649.702500", "165650.702500", "165651.702500", "165652.702500", "165653.702500", "165654.702500", "165655.702500", "165656.702500", "165657.702500", "165658.702500", "165659.702500", "165700.702500", "165701.702500", "165702.702500", "165703.702500", "165704.702500", "165705.702500", "165706.702500", "165707.702500", "165708.702500", "165709.702500", "165710.702500", "165711.702500", "165712.702500", "165713.702500", "165714.702500", "165715.702500", "165716.702500", "165717.702500", "165718.702500", "165719.702500", "165720.702500", "165721.702500", "165722.702500", "165723.702500", "165724.702500", "165725.702500", "165726.702500", "165727.702500", "165728.702500", "165729.702500", "165730.702500", "165731.702500", "165732.702500", "165733.702500", "165734.702500", "165735.702500", "165736.702500", "165737.702500", "165738.702500", "165739.702500", "165740.702500", "165741.702500", "165742.702500", "165743.702500", "165744.702500", "165745.702500", "165746.702500", "165747.702500", "165748.702500", "165749.702500", "165750.702500", "165751.702500", "165752.702500", "165753.702500", "165754.702500", "165755.702500", "165756.702500", "165757.702500", "165758.702500", "165759.702500", "165800.702500", "165801.702500", "165802.702500", "165803.702500", "165804.702500", "165805.702500", "165806.702500", "165807.702500", "165808.702500", "165809.702500", "165810.702500", "165811.702500", "165812.702500", "165813.702500", "165814.702500", "165815.702500", "165816.702500", "165817.702500", "165818.702500", "165819.702500", "165820.702500", "165821.702500", "165822.702500", "165823.702500", "165824.702500", "165825.702500", "165826.702500", "165827.702500", "165828.702500", "165829.702500", "165830.702500", "165831.702500", "165832.702500", "165833.702500", "165834.702500", "165835.702500", "165836.702500", "165837.702500", "165838.702500", "165839.702500", "165840.702500", "165841.702500", "165842.702500", "165843.702500", "165844.702500", "165845.702500", "165846.702500", "165847.702500", "165848.702500", "165849.702500", "165850.702500", "165851.702500", "165852.702500", "165853.702500", "165854.702500", "165855.702500", "165856.702500", "165857.702500", "165858.702500", "165859.702500", "165900.702500", "165901.702500", "165902.702500", "165903.702500", "165904.702500", "165905.702500", "165906.702500", "165907.702500", "165908.702500", "165909.702500", "165910.702500", "165911.702500", "165912.702500", "165913.702500", "165914.702500", "165915.702500", "165916.702500", "165917.702500", "165918.702500", "165919.702500", "165920.702500", "165921.702500", "165922.702500", "165923.702500", "165924.702500", "165925.702500", "165926.702500", "165927.702500", "165928.702500", "165929.702500", "165930.702500", "165931.702500", "165932.702500", "165933.702500", "165934.702500", "165935.702500", "165936.702500", "165937.702500", "165938.702500", "165939.702500", "165940.702500", "165941.702500", "165942.702500", "165943.702500", "165944.702500", "165945.702500", "165946.702500", "165947.702500", "165948.702500", "165949.702500", "165950.702500", "165951.702500", "165952.702500", "165953.702500", "165954.702500", "165955.702500", "165956.702500", "165957.702500", "165958.702500", "165959.702500", "170000.702500", "170001.702500", "170002.702500", "170003.702500", "170004.702500", "170005.702500", "170006.702500", "170007.702500", "170008.702500", "170009.702500", "170010.702500", "170011.702500", "170012.702500", "170013.702500", "170014.702500", "170015.702500", "170016.702500", "170017.702500", "170018.702500", "170019.702500", "170020.702500", "170021.702500", "170022.702500", "170023.702500", "170024.702500", "170025.702500", "170026.702500", "170027.702500", "170028.702500", "170029.702500", "170030.702500", "170031.702500", "170032.702500", "170033.702500", "170034.702500", "170035.702500", "170036.702500", "170037.702500", "170038.702500", "170039.702500", "170040.702500", "170041.702500", "170042.702500", "170043.702500", "170044.702500", "170045.702500", "170046.702500", "170047.702500", "170048.702500", "170049.702500", "170050.702500", "170051.702500", "170052.702500", "170053.702500", "170054.702500", "170055.702500", "170056.702500", "170057.702500", "170058.702500", "170059.702500", "170100.702500", "170101.702500", "170102.702500", "170103.702500", "170104.702500", "170105.702500", "170106.702500", "170107.702500", "170108.702500", "170109.702500", "170110.702500", "170111.702500", "170112.702500", "170113.702500", "170114.702500", "170115.702500", "170116.702500", "170117.702500", "170118.702500", "170119.702500", "170120.702500", "170121.702500", "170122.702500", "170123.702500", "170124.702500", "170125.702500", "170126.702500", "170127.702500", "170128.702500", "170129.702500", "170130.702500", "170131.702500", "170132.702500", "170133.702500", "170134.702500", "170135.702500", "170136.702500", "170137.702500", "170138.702500", "170139.702500", "170140.702500", "170141.702500", "170142.702500", "170143.702500", "170144.702500", "170145.702500", "170146.702500", "170147.702500", "170148.702500", "170149.702500", "170150.702500", "170151.702500", "170152.702500", "170153.702500", "170154.702500", "170155.702500", "170156.702500", "170157.702500", "170158.702500", "170159.702500", "170200.702500", "170201.702500", "170202.702500", "170203.702500", "170204.702500", "170205.702500", "170206.702500", "170207.702500", "170208.702500", "170209.702500", "170210.702500", "170211.702500", "170212.702500", "170213.702500", "170214.702500", "170215.702500", "170216.702500", "170217.702500", "170218.702500", "170219.702500", "170220.702500", "170221.702500", "170222.702500", "170223.702500", "170224.702500", "170225.702500", "170226.702500", "170227.702500", "170228.702500", "170229.702500", "170230.702500", "170231.702500", "170232.702500", "170233.702500", "170234.702500", "170235.702500", "170236.702500"],
      "ContentTime": ["165715.660000", "165715.663000", "165715.666000", "165715.668000", "165715.671000", "165715.673000", "165715.680000", "165715.683000", "165715.685000", "165715.688000", "165715.690000", "165715.693000", "165715.695000", "165715.698000", "165715.700000", "165715.704000", "165715.707000", "165715.709000", "165715.712000", "165715.717000", "165715.727000", "165715.729000", "165715.732000", "165715.734000", "165715.737000", "165715.739000", "165715.742000", "165715.744000", "165715.747000", "165715.749000", "165715.752000", "165715.754000", "165715.757000", "165735.634000", "165735.637000", "165735.640000", "165735.642000", "165735.645000", "165735.647000", "165735.650000", "165735.652000", "165735.654000", "165735.657000", "165735.659000", "165735.662000", "165735.683000", "165735.685000", "165735.688000", "165735.690000", "165735.692000", "165735.695000", "165735.697000", "165735.700000", "165755.635000", "165755.637000", "165755.640000", "165755.642000", "165755.645000", "165755.647000", "165755.650000", "165755.652000", "165755.655000", "165755.657000", "165755.663000", "165755.665000", "165755.668000", "165755.670000", "165755.673000", "165755.675000", "165755.677000", "165755.680000", "165755.683000", "165755.685000", "165815.635000", "165815.638000", "165815.641000", "165815.643000", "165815.646000", "165815.648000", "165815.651000", "165815.653000", "165815.656000", "165815.658000", "165815.660000", "165815.663000", "165815.665000", "165815.668000", "165815.670000", "165815.673000", "165815.675000", "165815.678000", "165815.680000", "165815.683000", "165835.635000", "165835.638000", "165835.641000", "165835.643000", "165835.646000", "165835.648000", "165835.651000", "165835.653000", "165835.656000", "165835.658000", "165835.660000", "165835.663000", "165835.665000", "165835.668000", "165835.670000", "165835.673000", "165835.675000", "165835.678000", "165835.680000", "165835.683000", "165855.634000", "165855.637000", "165855.639000", "165855.642000", "165855.644000", "165855.647000", "165855.653000", "165855.655000", "165855.658000", "165855.660000", "165855.662000", "165855.665000", "165855.667000", "165855.670000", "165855.672000", "165855.675000", "165855.677000", "165855.680000", "165855.682000", "165855.685000", "165915.634000", "165915.637000", "165915.640000", "165915.642000", "165915.644000", "165915.647000", "165915.649000", "165915.652000", "165915.654000", "165915.657000", "165915.659000", "165915.662000", "165915.664000", "165915.667000", "165915.669000", "165915.671000", "165915.674000", "165915.676000", "165915.679000", "165915.681000", "165935.635000", "165935.637000", "165935.640000", "165935.642000", "165935.645000", "165935.647000", "165935.650000", "165935.652000", "165935.655000", "165935.657000", "165935.660000", "165935.662000", "165935.664000", "165935.667000", "165935.670000", "165935.672000", "165935.675000", "165935.677000", "165935.679000", "165935.682000", "165955.634000", "165955.637000", "165955.640000", "165955.642000", "165955.645000", "165955.647000", "165955.650000", "165955.652000", "165955.655000", "165955.657000", "165955.659000", "165955.662000", "165955.664000", "165955.667000", "165955.669000", "165955.672000", "165955.674000", "165955.677000", "165955.679000", "165955.682000", "170015.634000", "170015.637000", "170015.639000", "170015.642000", "170015.644000", "170015.647000", "170015.649000", "170015.652000", "170015.654000", "170015.657000", "170015.659000", "170015.662000", "170015.664000", "170015.667000", "170015.669000", "170015.672000", "170015.674000", "170015.677000", "170015.679000", "170015.682000", "170035.635000", "170035.638000", "170035.641000", "170035.643000", "170035.646000", "170035.648000", "170035.651000", "170035.653000", "170035.656000", "170035.658000", "170035.661000", "170035.663000", "170035.666000", "170035.668000", "170035.670000", "170035.673000", "170035.676000", "170035.678000", "170035.680000", "170035.683000", "170055.635000", "170055.638000", "170055.640000", "170055.643000", "170055.645000", "170055.648000", "170055.650000", "170055.653000", "170055.655000", "170055.658000", "170055.660000", "170055.663000", "170055.665000", "170055.668000", "170055.670000", "170055.673000", "170055.675000", "170055.678000", "170055.680000", "170055.682000", "170115.634000", "170115.637000", "170115.639000", "170115.642000", "170115.644000", "170115.647000", "170115.649000", "170115.652000", "170115.654000", "170115.657000", "170115.659000", "170115.662000", "170115.664000", "170115.667000", "170115.669000", "170115.672000", "170115.674000", "170115.677000", "170115.679000", "170115.682000", "170135.634000", "170135.637000", "170135.639000", "170135.642000", "170135.653000", "170135.655000", "170135.658000", "170135.660000", "170135.662000", "170135.665000", "170135.667000", "170135.670000", "170135.672000", "170135.675000", "170135.677000", "170135.680000", "170135.682000", "170135.685000", "170135.687000", "170135.690000", "170155.635000", "170155.637000", "170155.640000", "170155.642000", "170155.645000", "170155.647000", "170155.650000", "170155.652000", "170155.655000", "170155.657000", "170155.660000", "170155.662000", "170155.665000", "170155.667000", "170155.669000", "170155.672000", "170155.674000", "170155.677000", "170155.679000", "170155.682000", "170215.634000", "170215.637000", "170215.640000", "170215.642000", "170215.644000", "170215.647000", "170215.649000", "170215.652000", "170215.654000", "170215.657000", "170215.659000", "170215.662000", "170215.664000", "170215.667000", "170215.669000", "170215.672000", "170215.674000", "170215.677000", "170215.679000", "170215.682000", "170235.634000", "170235.637000", "170235.640000", "170235.642000", "170235.644000", "170235.647000", "170235.649000", "170235.652000", "170235.654000", "170235.657000", "170235.659000", "170235.662000", "170235.664000", "170235.667000", "170235.669000", "170235.672000", "170235.674000", "170235.677000", "170235.679000", "170235.682000", "170238.301000", "170238.304000", "170238.308000"],
      "InstanceCreationTime": ["165715.660000", "165715.663000", "165715.666000", "165715.668000", "165715.671000", "165715.673000", "165715.680000", "165715.683000", "165715.685000", "165715.688000", "165715.690000", "165715.693000", "165715.695000", "165715.698000", "165715.700000", "165715.704000", "165715.707000", "165715.709000", "165715.712000", "165715.717000", "165715.727000", "165715.729000", "165715.732000", "165715.734000", "165715.737000", "165715.739000", "165715.742000", "165715.744000", "165715.747000", "165715.749000", "165715.752000", "165715.754000", "165715.757000", "165735.634000", "165735.637000", "165735.640000", "165735.642000", "165735.645000", "165735.647000", "165735.650000", "165735.652000", "165735.654000", "165735.657000", "165735.659000", "165735.662000", "165735.683000", "165735.685000", "165735.688000", "165735.690000", "165735.692000", "165735.695000", "165735.697000", "165735.700000", "165755.635000", "165755.637000", "165755.640000", "165755.642000", "165755.645000", "165755.647000", "165755.650000", "165755.652000", "165755.655000", "165755.657000", "165755.663000", "165755.665000", "165755.668000", "165755.670000", "165755.673000", "165755.675000", "165755.677000", "165755.680000", "165755.683000", "165755.685000", "165815.635000", "165815.638000", "165815.641000", "165815.643000", "165815.646000", "165815.648000", "165815.651000", "165815.653000", "165815.656000", "165815.658000", "165815.660000", "165815.663000", "165815.665000", "165815.668000", "165815.670000", "165815.673000", "165815.675000", "165815.678000", "165815.680000", "165815.683000", "165835.635000", "165835.638000", "165835.641000", "165835.643000", "165835.646000", "165835.648000", "165835.651000", "165835.653000", "165835.656000", "165835.658000", "165835.660000", "165835.663000", "165835.665000", "165835.668000", "165835.670000", "165835.673000", "165835.675000", "165835.678000", "165835.680000", "165835.683000", "165855.634000", "165855.637000", "165855.639000", "165855.642000", "165855.644000", "165855.647000", "165855.653000", "165855.655000", "165855.658000", "165855.660000", "165855.662000", "165855.665000", "165855.667000", "165855.670000", "165855.672000", "165855.675000", "165855.677000", "165855.680000", "165855.682000", "165855.685000", "165915.634000", "165915.637000", "165915.640000", "165915.642000", "165915.644000", "165915.647000", "165915.649000", "165915.652000", "165915.654000", "165915.657000", "165915.659000", "165915.662000", "165915.664000", "165915.667000", "165915.669000", "165915.671000", "165915.674000", "165915.676000", "165915.679000", "165915.681000", "165935.635000", "165935.637000", "165935.640000", "165935.642000", "165935.645000", "165935.647000", "165935.650000", "165935.652000", "165935.655000", "165935.657000", "165935.660000", "165935.662000", "165935.664000", "165935.667000", "165935.670000", "165935.672000", "165935.675000", "165935.677000", "165935.679000", "165935.682000", "165955.634000", "165955.637000", "165955.640000", "165955.642000", "165955.645000", "165955.647000", "165955.650000", "165955.652000", "165955.655000", "165955.657000", "165955.659000", "165955.662000", "165955.664000", "165955.667000", "165955.669000", "165955.672000", "165955.674000", "165955.677000", "165955.679000", "165955.682000", "170015.634000", "170015.637000", "170015.639000", "170015.642000", "170015.644000", "170015.647000", "170015.649000", "170015.652000", "170015.654000", "170015.657000", "170015.659000", "170015.662000", "170015.664000", "170015.667000", "170015.669000", "170015.672000", "170015.674000", "170015.677000", "170015.679000", "170015.682000", "170035.635000", "170035.638000", "170035.641000", "170035.643000", "170035.646000", "170035.648000", "170035.651000", "170035.653000", "170035.656000", "170035.658000", "170035.661000", "170035.663000", "170035.666000", "170035.668000", "170035.670000", "170035.673000", "170035.676000", "170035.678000", "170035.680000", "170035.683000", "170055.635000", "170055.638000", "170055.640000", "170055.643000", "170055.645000", "170055.648000", "170055.650000", "170055.653000", "170055.655000", "170055.658000", "170055.660000", "170055.663000", "170055.665000", "170055.668000", "170055.670000", "170055.673000", "170055.675000", "170055.678000", "170055.680000", "170055.682000", "170115.634000", "170115.637000", "170115.639000", "170115.642000", "170115.644000", "170115.647000", "170115.649000", "170115.652000", "170115.654000", "170115.657000", "170115.659000", "170115.662000", "170115.664000", "170115.667000", "170115.669000", "170115.672000", "170115.674000", "170115.677000", "170115.679000", "170115.682000", "170135.634000", "170135.637000", "170135.639000", "170135.642000", "170135.653000", "170135.655000", "170135.658000", "170135.660000", "170135.662000", "170135.665000", "170135.667000", "170135.670000", "170135.672000", "170135.675000", "170135.677000", "170135.680000", "170135.682000", "170135.685000", "170135.687000", "170135.690000", "170155.635000", "170155.637000", "170155.640000", "170155.642000", "170155.645000", "170155.647000", "170155.650000", "170155.652000", "170155.655000", "170155.657000", "170155.660000", "170155.662000", "170155.665000", "170155.667000", "170155.669000", "170155.672000", "170155.674000", "170155.677000", "170155.679000", "170155.682000", "170215.634000", "170215.637000", "170215.640000", "170215.642000", "170215.644000", "170215.647000", "170215.649000", "170215.652000", "170215.654000", "170215.657000", "170215.659000", "170215.662000", "170215.664000", "170215.667000", "170215.669000", "170215.672000", "170215.674000", "170215.677000", "170215.679000", "170215.682000", "170235.634000", "170235.637000", "170235.640000", "170235.642000", "170235.644000", "170235.647000", "170235.649000", "170235.652000", "170235.654000", "170235.657000", "170235.659000", "170235.662000", "170235.664000", "170235.667000", "170235.669000", "170235.672000", "170235.674000", "170235.677000", "170235.679000", "170235.682000", "170238.301000", "170238.304000", "170238.308000"],
      "InstanceNumber": [1, 2, 3, 4, 5, 6, 7, 8, 9, 10, 11, 12, 13, 14, 15, 16, 17, 18, 19, 20, 21, 22, 23, 24, 25, 26, 27, 28, 29, 30, 31, 32, 33, 34, 35, 36, 37, 38, 39, 40, 41, 42, 43, 44, 45, 46, 47, 48, 49, 50, 51, 52, 53, 54, 55, 56, 57, 58, 59, 60, 61, 62, 63, 64, 65, 66, 67, 68, 69, 70, 71, 72, 73, 74, 75, 76, 77, 78, 79, 80, 81, 82, 83, 84, 85, 86, 87, 88, 89, 90, 91, 92, 93, 94, 95, 96, 97, 98, 99, 100, 101, 102, 103, 104, 105, 106, 107, 108, 109, 110, 111, 112, 113, 114, 115, 116, 117, 118, 119, 120, 121, 122, 123, 124, 125, 126, 127, 128, 129, 130, 131, 132, 133, 134, 135, 136, 137, 138, 139, 140, 141, 142, 143, 144, 145, 146, 147, 148, 149, 150, 151, 152, 153, 154, 155, 156, 157, 158, 159, 160, 161, 162, 163, 164, 165, 166, 167, 168, 169, 170, 171, 172, 173, 174, 175, 176, 177, 178, 179, 180, 181, 182, 183, 184, 185, 186, 187, 188, 189, 190, 191, 192, 193, 194, 195, 196, 197, 198, 199, 200, 201, 202, 203, 204, 205, 206, 207, 208, 209, 210, 211, 212, 213, 214, 215, 216, 217, 218, 219, 220, 221, 222, 223, 224, 225, 226, 227, 228, 229, 230, 231, 232, 233, 234, 235, 236, 237, 238, 239, 240, 241, 242, 243, 244, 245, 246, 247, 248, 249, 250, 251, 252, 253, 254, 255, 256, 257, 258, 259, 260, 261, 262, 263, 264, 265, 266, 267, 268, 269, 270, 271, 272, 273, 274, 275, 276, 277, 278, 279, 280, 281, 282, 283, 284, 285, 286, 287, 288, 289, 290, 291, 292, 293, 294, 295, 296, 297, 298, 299, 300, 301, 302, 303, 304, 305, 306, 307, 308, 309, 310, 311, 312, 313, 314, 315, 316, 317, 318, 319, 320, 321, 322, 323, 324, 325, 326, 327, 328, 329, 330, 331, 332, 333, 334, 335, 336, 337, 338, 339, 340, 341, 342, 343, 344, 345, 346, 347, 348, 349, 350, 351, 352, 353, 354, 355, 356],
      "LargestImagePixelValue": [11958, 11885, 11595, 11638, 11408, 11230, 11300, 11202, 11382, 11339, 11049, 11243, 11172, 11018, 11439, 11226, 11310, 11357, 11187, 11460, 11135, 11147, 11288, 11364, 11164, 11203, 11213, 10809, 11110, 11186, 10870, 11275, 11262, 11224, 11231, 11051, 11201, 11228, 11356, 11281, 11099, 11222, 11202, 11241, 11283, 11287, 11364, 11615, 11373, 11326, 11404, 11238, 11251, 11004, 11158, 11044, 11258, 11482, 11291, 11422, 11371, 11459, 11431, 11427, 11345, 11189, 11407, 11164, 11040, 11399, 11310, 11297, 11518, 11055, 11041, 11118, 11066, 11033, 10876, 11013, 11135, 11002, 10944, 11090, 11289, 11021, 11059, 11286, 11252, 11072, 11099, 11170, 11108, 11411, 11406, 11069, 10824, 11162, 11202, 10956, 11065, 10999, 11102, 10991, 10955, 11082, 11082, 11003, 11038, 11269, 11093, 10932, 10773, 10757, 10901, 10865, 11036, 11137, 11422, 11283, 11252, 11261, 11043, 11041, 10985, 10671, 10810, 11094, 11124, 11079, 10893, 10822, 10712, 11082, 10924, 10842, 10717, 11399, 11133, 11166, 11015, 10796, 11121, 10883, 10959, 10875, 10749, 10969, 10718, 10922, 11023, 10885, 10957, 10696, 10903, 10879, 10927, 10674, 11008, 11010, 10975, 11102, 11024, 10957, 10827, 11091, 10864, 10722, 10772, 11070, 11098, 10880, 10687, 10745, 10839, 11057, 11363, 11290, 11187, 11104, 11006, 11030, 11050, 11303, 11165, 10864, 10889, 11183, 11316, 11387, 11503, 11402, 11390, 11143, 11020, 11051, 11163, 10916, 10906, 10980, 11147, 11234, 11110, 11336, 11292, 11237, 10847, 10824, 10920, 11388, 11284, 11512, 11553, 11359, 11394, 11494, 11307, 11311, 11237, 11250, 11291, 11330, 11276, 11307, 11240, 11143, 11177, 10936, 11111, 11087, 11032, 11137, 11252, 11295, 11345, 11309, 11258, 11217, 10979, 11183, 11201, 11262, 11032, 11172, 11253, 11347, 11458, 11421, 11346, 11472, 11477, 11500, 11133, 11235, 11319, 11263, 11371, 11422, 11280, 11131, 11315, 11224, 11361, 11267, 11204, 11139, 11365, 11310, 11349, 11490, 11421, 11309, 11396, 11508, 11458, 11398, 11385, 11424, 11348, 11530, 11435, 11303, 11507, 11557, 11449, 11470, 11352, 11326, 11405, 11220, 11394, 11406, 11260, 11455, 11358, 11413, 11366, 11306, 11492, 11111, 11448, 11253, 11249, 11458, 11036, 11544, 11028, 11121, 11482, 11117, 11308, 10960, 10990, 11057, 10966, 10815, 10930, 10823, 10888, 10876, 10927, 11039, 11276, 10887, 11044, 11126, 11290, 11274, 11388, 11138, 11072, 11037, 10918, 11065, 10855, 10949, 10932, 10923, 11039, 11059, 11082, 10946, 10973, 10912, 11031, 10990, 11137, 11008, 11164, 11131, 11166, 11008, 11015, 10995, 11189, 11026],
