{
  "AcquisitionMatrixPE": 106,
  "AcquisitionNumber": 1,
  "AcquisitionTime": "17:28:58.347500",
  "BandwidthPerPixelPhaseEncode": 13.477,
  "BaseResolution": 106,
  "BodyPartExamined": "BRAIN",
  "CoilCombinationMethod": "Sum of Squares",
  "ConsistencyInfo": "N4_VE11C_LATEST_20160120",
  "ConversionSoftware": "dcm2niix",
  "ConversionSoftwareVersion": "v1.0.20220720",
  "DerivedVendorReportedEchoSpacing": 0.000700005,
  "DeviceSerialNumber": "166108",
  "DwellTime": 2.6e-06,
  "EchoTime": 0.03,
  "EchoTrainLength": 80,
  "EffectiveEchoSpacing": 0.000700005,
  "FlipAngle": 62,
  "HeudiconvVersion": "1.3.0",
  "ImageComments": "Unaliased MB4/PE3/LB",
  "ImageOrientationPatientDICOM": [1, 0, 0, 0, 0.908508, -0.417867],
  "ImageOrientationText": "Tra>Cor(-24.7)",
  "ImageType": [
    "ORIGINAL",
    "PRIMARY",
    "M",
    "MB",
    "ND",
    "MOSAIC"
],
  "ImagingFrequency": 123.244,
  "InPlanePhaseEncodingDirectionDICOM": "COL",
  "InstitutionAddress": "Bedford Way 26,London,London,GB,WC1H 0AP",
  "InstitutionName": "University College",
  "InstitutionalDepartmentName": "Department",
  "MRAcquisitionType": "2D",
  "MagneticFieldStrength": 3,
  "Manufacturer": "Siemens",
  "ManufacturersModelName": "Prisma",
  "MatrixCoilMode": "SENSE",
  "Modality": "MR",
  "MultibandAccelerationFactor": 4,
  "NonlinearGradientCorrection": false,
  "PartialFourier": 0.75,
  "PatientPosition": "HFS",
  "PercentPhaseFOV": 100,
  "PercentSampling": 100,
  "PhaseEncodingDirection": "j-",
  "PhaseEncodingSteps": 80,
  "PhaseResolution": 1,
  "PixelBandwidth": 1815,
  "ProcedureStepDescription": "Egor^MovieProject2",
  "ProtocolName": "func-bold_task-tono_run-02",
  "PulseSequenceDetails": "%CustomerSeq%\\cmrr_mbep2d_bold",
  "ReceiveCoilActiveElements": "HEA;HEP",
  "ReceiveCoilName": "Head_32",
  "ReconMatrixPE": 106,
  "RepetitionTime": 1,
  "SAR": 0.0479909,
  "ScanOptions": "PFP\\FS\\EXT",
  "ScanningSequence": "EP",
  "SequenceName": "epfid2d1_106",
  "SequenceVariant": "SK\\SS",
  "SeriesDescription": "func-bold_task-tono_run-02",
  "SeriesNumber": 21,
  "ShimSetting": [-1509, 622, 7416, 182, -7, 89, 145, -83],
  "SliceThickness": 2,
  "SliceTiming": [0, 0.535, 0.09, 0.6225, 0.1775, 0.7125, 0.2675, 0.8025, 0.3575, 0.89, 0.445, 0, 0.535, 0.09, 0.6225, 0.1775, 0.7125, 0.2675, 0.8025, 0.3575, 0.89, 0.445, 0, 0.535, 0.09, 0.6225, 0.1775, 0.7125, 0.2675, 0.8025, 0.3575, 0.89, 0.445, 0, 0.535, 0.09, 0.6225, 0.1775, 0.7125, 0.2675, 0.8025, 0.3575, 0.89, 0.445],
  "SoftwareVersions": "syngo MR E11",
  "SpacingBetweenSlices": 2,
  "StationName": "AWP166108",
  "TaskName": "tonotopy",
  "TotalReadoutTime": 0.0735005,
  "TxRefAmp": 265.887,
  "WipMemBlock": "38251cde-36e7-44f8-9ce5-516c106c00e9||Sequence: R016 ve11c/master r/e634e98; Dec 19 2017 11:00:25 by eja",
  "dcmmeta_affine": [
    [-2.0, 0.0, 0.0, 106.0],
    [0.0, 1.817016363143921, -0.8357340693473816, -81.85653686523438],
    [0.0, 0.8357340693473816, 1.817016363143921, -53.27641296386719],
    [0.0, 0.0, 0.0, 1.0]
],
  "dcmmeta_reorient_transform": [
    [0.0, -1.0, 0.0, 105.0],
    [1.0, 0.0, 0.0, 0.0],
    [0.0, 0.0, 1.0, 0.0],
    [0.0, 0.0, 0.0, 1.0]
],
  "dcmmeta_shape": [106, 106, 44, 264],
  "dcmmeta_slice_dim": 2,
  "dcmmeta_version": 0.6,
  "global": {
    "const": {
      "AcquisitionMatrix": [106, 0, 0, 106],
      "AngioFlag": "N",
      "BitsAllocated": 16,
      "BitsStored": 16,
      "BodyPartExamined": "BRAIN",
      "CardiacNumberOfImages": 1,
      "Columns": 742,
      "EchoNumbers": 1,
      "EchoTime": 30.0,
      "EchoTrainLength": 80,
      "FlipAngle": 62.0,
      "HighBit": 15,
      "ImageOrientationPatient": [1.0, 0.0, 0.0, 0.0, 0.90850819307358, -0.4178670399998],
      "ImagePositionPatient": [-742.0, -686.74139423252, 300.23910160679],
      "ImageType": [
        "ORIGINAL",
        "PRIMARY",
        "M",
        "MB",
        "ND",
        "MOSAIC"
],
      "ImagedNucleus": "1H",
      "ImagingFrequency": 123.243614,
      "InPlanePhaseEncodingDirection": "COL",
      "MRAcquisitionType": "2D",
      "MagneticFieldStrength": 3.0,
      "Manufacturer": "SIEMENS",
      "ManufacturerModelName": "Prisma",
      "Modality": "MR",
      "NominalInterval": 0,
      "NumberOfAverages": 1.0,
      "NumberOfPhaseEncodingSteps": 80,
      "PercentPhaseFieldOfView": 100.0,
      "PercentSampling": 100.0,
      "PerformedProcedureStepStartTime": "155015.145000",
      "PhotometricInterpretation": "MONOCHROME2",
      "PixelBandwidth": 1815.0,
      "PixelRepresentation": 0,
      "PixelSpacing": [2.0, 2.0],
      "ProtocolName": "func-bold_task-tono_run-02",
      "RepetitionTime": 1000.0,
      "Rows": 742,
      "SAR": 0.04799087115458,
      "SamplesPerPixel": 1,
      "ScanOptions": [
        "PFP",
        "FS",
        "EXT"
],
      "ScanningSequence": "EP",
      "SequenceName": "epfid2d1_106",
      "SequenceVariant": [
        "SK",
        "SS"
],
      "SeriesDescription": "func-bold_task-tono_run-02",
      "SeriesNumber": 21,
      "SeriesTime": "172926.868000",
      "SliceLocation": -14.196909962457,
      "SliceThickness": 2.0,
      "SmallestImagePixelValue": 0,
      "SoftwareVersions": "syngo MR E11",
      "SpacingBetweenSlices": 1.9999999922027,
      "SpecificCharacterSet": "ISO_IR 100",
      "StudyID": "1",
      "StudyTime": "155015.036000",
      "TransmitCoilName": "Body",
      "VariableFlipAngleFlag": "N",
      "WindowCenterWidthExplanation": "Algo1",
      "dBdt": 0.0},
    "slices": {}
  },
  "time": {
    "samples": {
      "AcquisitionNumber": [1, 2, 3, 4, 5, 6, 7, 8, 9, 10, 11, 12, 13, 14, 15, 16, 17, 18, 19, 20, 21, 22, 23, 24, 25, 26, 27, 28, 29, 30, 31, 32, 33, 34, 35, 36, 37, 38, 39, 40, 41, 42, 43, 44, 45, 46, 47, 48, 49, 50, 51, 52, 53, 54, 55, 56, 57, 58, 59, 60, 61, 62, 63, 64, 65, 66, 67, 68, 69, 70, 71, 72, 73, 74, 75, 76, 77, 78, 79, 80, 81, 82, 83, 84, 85, 86, 87, 88, 89, 90, 91, 92, 93, 94, 95, 96, 97, 98, 99, 100, 101, 102, 103, 104, 105, 106, 107, 108, 109, 110, 111, 112, 113, 114, 115, 116, 117, 118, 119, 120, 121, 122, 123, 124, 125, 126, 127, 128, 129, 130, 131, 132, 133, 134, 135, 136, 137, 138, 139, 140, 141, 142, 143, 144, 145, 146, 147, 148, 149, 150, 151, 152, 153, 154, 155, 156, 157, 158, 159, 160, 161, 162, 163, 164, 165, 166, 167, 168, 169, 170, 171, 172, 173, 174, 175, 176, 177, 178, 179, 180, 181, 182, 183, 184, 185, 186, 187, 188, 189, 190, 191, 192, 193, 194, 195, 196, 197, 198, 199, 200, 201, 202, 203, 204, 205, 206, 207, 208, 209, 210, 211, 212, 213, 214, 215, 216, 217, 218, 219, 220, 221, 222, 223, 224, 225, 226, 227, 228, 229, 230, 231, 232, 233, 234, 235, 236, 237, 238, 239, 240, 241, 242, 243, 244, 245, 246, 247, 248, 249, 250, 251, 252, 253, 254, 255, 256, 257, 258, 259, 260, 261, 262, 263, 264],
      "AcquisitionTime": ["172858.347500", "172859.347500", "172900.347500", "172901.347500", "172902.347500", "172903.347500", "172904.347500", "172905.347500", "172906.347500", "172907.347500", "172908.347500", "172909.347500", "172910.347500", "172911.347500", "172912.347500", "172913.347500", "172914.347500", "172915.347500", "172916.347500", "172917.347500", "172918.347500", "172919.347500", "172920.347500", "172921.347500", "172922.347500", "172923.347500", "172924.347500", "172925.347500", "172926.347500", "172927.347500", "172928.347500", "172929.347500", "172930.347500", "172931.347500", "172932.347500", "172933.347500", "172934.347500", "172935.347500", "172936.347500", "172937.347500", "172938.347500", "172939.347500", "172940.347500", "172941.347500", "172942.347500", "172943.347500", "172944.347500", "172945.347500", "172946.347500", "172947.347500", "172948.347500", "172949.347500", "172950.347500", "172951.347500", "172952.347500", "172953.347500", "172954.347500", "172955.347500", "172956.347500", "172957.347500", "172958.347500", "172959.347500", "173000.347500", "173001.347500", "173002.347500", "173003.347500", "173004.347500", "173005.347500", "173006.347500", "173007.347500", "173008.347500", "173009.347500", "173010.347500", "173011.347500", "173012.347500", "173013.347500", "173014.347500", "173015.347500", "173016.347500", "173017.347500", "173018.347500", "173019.347500", "173020.347500", "173021.347500", "173022.347500", "173023.347500", "173024.347500", "173025.347500", "173026.347500", "173027.347500", "173028.347500", "173029.347500", "173030.347500", "173031.347500", "173032.347500", "173033.347500", "173034.347500", "173035.347500", "173036.347500", "173037.347500", "173038.347500", "173039.347500", "173040.347500", "173041.347500", "173042.347500", "173043.347500", "173044.347500", "173045.347500", "173046.347500", "173047.347500", "173048.347500", "173049.347500", "173050.347500", "173051.347500", "173052.347500", "173053.347500", "173054.347500", "173055.347500", "173056.347500", "173057.347500", "173058.347500", "173059.347500", "173100.347500", "173101.347500", "173102.347500", "173103.347500", "173104.347500", "173105.347500", "173106.347500", "173107.347500", "173108.347500", "173109.347500", "173110.347500", "173111.347500", "173112.347500", "173113.347500", "173114.347500", "173115.347500", "173116.347500", "173117.347500", "173118.347500", "173119.347500", "173120.347500", "173121.347500", "173122.347500", "173123.347500", "173124.347500", "173125.347500", "173126.347500", "173127.347500", "173128.347500", "173129.347500", "173130.347500", "173131.347500", "173132.347500", "173133.347500", "173134.347500", "173135.347500", "173136.347500", "173137.347500", "173138.347500", "173139.347500", "173140.347500", "173141.347500", "173142.347500", "173143.347500", "173144.347500", "173145.347500", "173146.347500", "173147.347500", "173148.347500", "173149.347500", "173150.347500", "173151.347500", "173152.347500", "173153.347500", "173154.347500", "173155.347500", "173156.347500", "173157.347500", "173158.347500", "173159.347500", "173200.347500", "173201.347500", "173202.347500", "173203.347500", "173204.347500", "173205.347500", "173206.347500", "173207.347500", "173208.347500", "173209.347500", "173210.347500", "173211.347500", "173212.347500", "173213.347500", "173214.347500", "173215.347500", "173216.347500", "173217.347500", "173218.347500", "173219.347500", "173220.347500", "173221.347500", "173222.347500", "173223.347500", "173224.347500", "173225.347500", "173226.347500", "173227.347500", "173228.347500", "173229.347500", "173230.347500", "173231.347500", "173232.347500", "173233.347500", "173234.347500", "173235.347500", "173236.347500", "173237.347500", "173238.347500", "173239.347500", "173240.347500", "173241.347500", "173242.347500", "173243.347500", "173244.347500", "173245.347500", "173246.347500", "173247.347500", "173248.347500", "173249.347500", "173250.347500", "173251.347500", "173252.347500", "173253.347500", "173254.347500", "173255.347500", "173256.347500", "173257.347500", "173258.347500", "173259.347500", "173300.347500", "173301.347500", "173302.347500", "173303.347500", "173304.347500", "173305.347500", "173306.347500", "173307.347500", "173308.347500", "173309.347500", "173310.347500", "173311.347500", "173312.347500", "173313.347500", "173314.347500", "173315.347500", "173316.347500", "173317.347500", "173318.347500", "173319.347500", "173320.347500", "173321.347500"],
      "ContentTime": ["172926.871000", "172926.874000", "172926.876000", "172926.879000", "172926.881000", "172926.890000", "172926.893000", "172926.895000", "172926.897000", "172926.900000", "172926.902000", "172926.905000", "172926.907000", "172926.910000", "172926.917000", "172926.919000", "172926.922000", "172926.924000", "172926.927000", "172926.929000", "172926.932000", "172926.939000", "172926.941000", "172926.944000", "172926.946000", "172926.949000", "172926.951000", "172926.954000", "172946.838000", "172946.841000", "172946.843000", "172946.849000", "172946.852000", "172946.855000", "172946.857000", "172946.860000", "172946.862000", "172946.865000", "172946.867000", "172946.869000", "172946.872000", "172946.874000", "172946.877000", "172946.879000", "172946.882000", "172946.884000", "172946.887000", "172946.889000", "173006.838000", "173006.841000", "173006.844000", "173006.846000", "173006.848000", "173006.851000", "173006.853000", "173006.856000", "173006.858000", "173006.861000", "173006.863000", "173006.866000", "173006.868000", "173006.870000", "173006.873000", "173006.875000", "173006.878000", "173006.884000", "173006.886000", "173006.889000", "173026.838000", "173026.841000", "173026.844000", "173026.846000", "173026.848000", "173026.851000", "173026.853000", "173026.856000", "173026.858000", "173026.861000", "173026.863000", "173026.865000", "173026.868000", "173026.870000", "173026.873000", "173026.875000", "173026.886000", "173026.889000", "173026.891000", "173026.894000", "173046.838000", "173046.841000", "173046.844000", "173046.846000", "173046.849000", "173046.851000", "173046.853000", "173046.856000", "173046.858000", "173046.861000", "173046.863000", "173046.866000", "173046.868000", "173046.871000", "173046.873000", "173046.876000", "173046.878000", "173046.880000", "173046.883000", "173046.885000", "173106.839000", "173106.841000", "173106.844000", "173106.846000", "173106.849000", "173106.851000", "173106.854000", "173106.856000", "173106.859000", "173106.861000", "173106.864000", "173106.866000", "173106.869000", "173106.871000", "173106.873000", "173106.876000", "173106.878000", "173106.881000", "173106.883000", "173106.886000", "173126.838000", "173126.841000", "173126.844000", "173126.846000", "173126.848000", "173126.851000", "173126.853000", "173126.856000", "173126.858000", "173126.861000", "173126.863000", "173126.866000", "173126.868000", "173126.871000", "173126.873000", "173126.876000", "173126.878000", "173126.880000", "173126.883000", "173126.885000", "173206.839000", "173206.841000", "173206.844000", "173206.846000", "173206.849000", "173206.851000", "173206.854000", "173206.856000", "173206.859000", "173206.861000", "173206.863000", "173206.866000", "173206.868000", "173206.871000", "173206.873000", "173206.876000", "173206.878000", "173206.881000", "173206.883000", "173206.886000", "173206.888000", "173206.891000", "173206.893000", "173206.896000", "173206.898000", "173206.901000", "173206.903000", "173206.905000", "173206.908000", "173206.910000", "173206.916000", "173206.919000", "173206.921000", "173206.924000", "173206.926000", "173206.929000", "173206.931000", "173206.934000", "173206.936000", "173206.939000", "173226.838000", "173226.841000", "173226.843000", "173226.846000", "173226.848000", "173226.851000", "173226.853000", "173226.856000", "173226.859000", "173226.861000", "173226.864000", "173226.866000", "173226.868000", "173226.871000", "173226.873000", "173226.876000", "173226.878000", "173226.881000", "173226.883000", "173226.886000", "173246.839000", "173246.841000", "173246.844000", "173246.846000", "173246.863000", "173246.865000", "173246.868000", "173246.870000", "173246.873000", "173246.875000", "173246.878000", "173246.880000", "173246.883000", "173246.885000", "173246.888000", "173246.890000", "173246.893000", "173246.895000", "173246.897000", "173246.900000", "173306.839000", "173306.841000", "173306.844000", "173306.846000", "173306.849000", "173306.851000", "173306.854000", "173306.856000", "173306.859000", "173306.861000", "173306.864000", "173306.866000", "173306.868000", "173306.871000", "173306.873000", "173306.876000", "173306.878000", "173306.881000", "173306.884000", "173306.886000", "173322.860000", "173322.863000", "173322.866000", "173322.868000", "173322.871000", "173322.873000", "173322.876000", "173322.879000", "173322.881000", "173322.884000", "173322.886000", "173322.889000", "173322.891000", "173322.894000", "173322.896000", "173322.899000"],
      "InstanceCreationTime": ["172926.871000", "172926.874000", "172926.876000", "172926.879000", "172926.881000", "172926.890000", "172926.893000", "172926.895000", "172926.897000", "172926.900000", "172926.902000", "172926.905000", "172926.907000", "172926.910000", "172926.917000", "172926.919000", "172926.922000", "172926.924000", "172926.927000", "172926.929000", "172926.932000", "172926.939000", "172926.941000", "172926.944000", "172926.946000", "172926.949000", "172926.951000", "172926.954000", "172946.838000", "172946.841000", "172946.843000", "172946.849000", "172946.852000", "172946.855000", "172946.857000", "172946.860000", "172946.862000", "172946.865000", "172946.867000", "172946.869000", "172946.872000", "172946.874000", "172946.877000", "172946.879000", "172946.882000", "172946.884000", "172946.887000", "172946.889000", "173006.838000", "173006.841000", "173006.844000", "173006.846000", "173006.848000", "173006.851000", "173006.853000", "173006.856000", "173006.858000", "173006.861000", "173006.863000", "173006.866000", "173006.868000", "173006.870000", "173006.873000", "173006.875000", "173006.878000", "173006.884000", "173006.886000", "173006.889000", "173026.838000", "173026.841000", "173026.844000", "173026.846000", "173026.848000", "173026.851000", "173026.853000", "173026.856000", "173026.858000", "173026.861000", "173026.863000", "173026.865000", "173026.868000", "173026.870000", "173026.873000", "173026.875000", "173026.886000", "173026.889000", "173026.891000", "173026.894000", "173046.838000", "173046.841000", "173046.844000", "173046.846000", "173046.849000", "173046.851000", "173046.853000", "173046.856000", "173046.858000", "173046.861000", "173046.863000", "173046.866000", "173046.868000", "173046.871000", "173046.873000", "173046.876000", "173046.878000", "173046.880000", "173046.883000", "173046.885000", "173106.839000", "173106.841000", "173106.844000", "173106.846000", "173106.849000", "173106.851000", "173106.854000", "173106.856000", "173106.859000", "173106.861000", "173106.864000", "173106.866000", "173106.869000", "173106.871000", "173106.873000", "173106.876000", "173106.878000", "173106.881000", "173106.883000", "173106.886000", "173126.838000", "173126.841000", "173126.844000", "173126.846000", "173126.848000", "173126.851000", "173126.853000", "173126.856000", "173126.858000", "173126.861000", "173126.863000", "173126.866000", "173126.868000", "173126.871000", "173126.873000", "173126.876000", "173126.878000", "173126.880000", "173126.883000", "173126.885000", "173206.839000", "173206.841000", "173206.844000", "173206.846000", "173206.849000", "173206.851000", "173206.854000", "173206.856000", "173206.859000", "173206.861000", "173206.863000", "173206.866000", "173206.868000", "173206.871000", "173206.873000", "173206.876000", "173206.878000", "173206.881000", "173206.883000", "173206.886000", "173206.888000", "173206.891000", "173206.893000", "173206.896000", "173206.898000", "173206.901000", "173206.903000", "173206.905000", "173206.908000", "173206.910000", "173206.916000", "173206.919000", "173206.921000", "173206.924000", "173206.926000", "173206.929000", "173206.931000", "173206.934000", "173206.936000", "173206.939000", "173226.838000", "173226.841000", "173226.843000", "173226.846000", "173226.848000", "173226.851000", "173226.853000", "173226.856000", "173226.859000", "173226.861000", "173226.864000", "173226.866000", "173226.868000", "173226.871000", "173226.873000", "173226.876000", "173226.878000", "173226.881000", "173226.883000", "173226.886000", "173246.839000", "173246.841000", "173246.844000", "173246.846000", "173246.863000", "173246.865000", "173246.868000", "173246.870000", "173246.873000", "173246.875000", "173246.878000", "173246.880000", "173246.883000", "173246.885000", "173246.888000", "173246.890000", "173246.893000", "173246.895000", "173246.897000", "173246.900000", "173306.839000", "173306.841000", "173306.844000", "173306.846000", "173306.849000", "173306.851000", "173306.854000", "173306.856000", "173306.859000", "173306.861000", "173306.864000", "173306.866000", "173306.868000", "173306.871000", "173306.873000", "173306.876000", "173306.878000", "173306.881000", "173306.884000", "173306.886000", "173322.860000", "173322.863000", "173322.866000", "173322.868000", "173322.871000", "173322.873000", "173322.876000", "173322.879000", "173322.881000", "173322.884000", "173322.886000", "173322.889000", "173322.891000", "173322.894000", "173322.896000", "173322.899000"],
      "InstanceNumber": [1, 2, 3, 4, 5, 6, 7, 8, 9, 10, 11, 12, 13, 14, 15, 16, 17, 18, 19, 20, 21, 22, 23, 24, 25, 26, 27, 28, 29, 30, 31, 32, 33, 34, 35, 36, 37, 38, 39, 40, 41, 42, 43, 44, 45, 46, 47, 48, 49, 50, 51, 52, 53, 54, 55, 56, 57, 58, 59, 60, 61, 62, 63, 64, 65, 66, 67, 68, 69, 70, 71, 72, 73, 74, 75, 76, 77, 78, 79, 80, 81, 82, 83, 84, 85, 86, 87, 88, 89, 90, 91, 92, 93, 94, 95, 96, 97, 98, 99, 100, 101, 102, 103, 104, 105, 106, 107, 108, 109, 110, 111, 112, 113, 114, 115, 116, 117, 118, 119, 120, 121, 122, 123, 124, 125, 126, 127, 128, 129, 130, 131, 132, 133, 134, 135, 136, 137, 138, 139, 140, 141, 142, 143, 144, 145, 146, 147, 148, 149, 150, 151, 152, 153, 154, 155, 156, 157, 158, 159, 160, 161, 162, 163, 164, 165, 166, 167, 168, 169, 170, 171, 172, 173, 174, 175, 176, 177, 178, 179, 180, 181, 182, 183, 184, 185, 186, 187, 188, 189, 190, 191, 192, 193, 194, 195, 196, 197, 198, 199, 200, 201, 202, 203, 204, 205, 206, 207, 208, 209, 210, 211, 212, 213, 214, 215, 216, 217, 218, 219, 220, 221, 222, 223, 224, 225, 226, 227, 228, 229, 230, 231, 232, 233, 234, 235, 236, 237, 238, 239, 240, 241, 242, 243, 244, 245, 246, 247, 248, 249, 250, 251, 252, 253, 254, 255, 256, 257, 258, 259, 260, 261, 262, 263, 264],
      "LargestImagePixelValue": [11726, 11520, 11481, 11292, 11347, 11316, 11244, 10944, 11189, 11119, 11223, 11288, 11237, 11298, 11278, 11272, 11085, 11329, 11232, 11466, 11402, 11452, 11143, 11154, 11306, 11282, 11151, 11097, 11109, 11196, 11208, 11068, 11136, 11152, 11035, 11320, 11148, 11180, 11100, 11271, 11349, 11382, 11352, 11346, 11242, 11418, 11215, 11276, 11299, 11245, 11228, 11358, 11617, 11190, 11246, 11335, 11096, 11314, 11292, 11280, 11363, 11269, 11346, 11290, 11362, 11255, 11278, 11240, 11138, 11251, 11285, 11288, 11295, 11344, 11446, 11472, 11525, 11711, 11197, 11053, 11458, 11366, 11581, 11533, 11523, 11574, 11524, 11482, 11391, 11255, 11350, 11249, 11291, 11328, 11359, 11217, 11328, 11215, 11133, 11276, 11141, 11175, 11281, 11240, 11465, 11374, 11217, 11441, 11300, 11429, 11511, 11462, 11062, 10880, 11263, 11382, 11308, 11336, 11257, 11370, 11255, 11286, 11158, 11222, 11263, 11192, 11191, 11198, 11304, 11087, 11415, 11290, 10890, 11046, 11331, 11187, 11377, 11342, 11261, 11530, 11429, 11491, 11715, 12292, 11402, 10952, 11031, 11326, 11508, 11193, 11116, 11132, 11207, 11481, 11399, 11118, 11115, 11190, 11179, 11247, 11265, 11394, 11338, 11591, 11528, 11584, 11338, 11188, 11624, 11671, 11523, 11515, 11648, 11772, 11619, 11577, 11586, 11503, 11613, 11535, 11455, 11477, 11536, 11457, 11402, 11491, 11502, 11397, 11366, 11517, 11539, 11416, 11207, 11491, 11577, 11534, 11635, 11586, 11434, 11512, 11463, 11526, 11514, 11371, 11244, 11414, 11355, 11397, 11356, 11506, 11422, 11484, 11524, 11513, 11500, 11537, 11937, 11118, 11007, 11287, 11554, 11573, 11458, 11359, 11405, 11655, 11497, 11497, 11308, 11269, 11276, 11268, 11267, 11287, 11281, 11227, 11215, 11337, 11258, 11371, 11467, 11204, 11264, 11349, 11297, 11268, 11237, 11636, 11394, 11234, 11200, 11320, 11189, 11262, 11377, 11515, 11474, 11225, 11311, 11229, 11432, 11121, 11322, 11283],
      "TriggerTime": [8102.5, 9102.5, 10102.5, 11102.5, 12102.5, 13102.5, 14102.5, 15102.5, 16102.5, 17102.5, 18102.5, 19102.5, 20102.5, 21102.5, 22102.5, 23102.5, 24102.5, 25102.5, 26102.5, 27102.5, 28102.5, 29102.5, 30102.5, 31102.5, 32102.5, 33102.5, 34102.5, 35102.5, 36102.5, 37102.5, 38102.5, 39102.5, 40102.5, 41102.5, 42102.5, 43102.5, 44102.5, 45102.5, 46102.5, 47102.5, 48102.5, 49102.5, 50102.5, 51102.5, 52102.5, 53102.5, 54102.5, 55102.5, 56102.5, 57102.5, 58102.5, 59102.5, 60102.5, 61102.5, 62102.5, 63102.5, 64102.5, 65102.5, 66102.5, 67102.5, 68102.5, 69102.5, 70102.5, 71102.5, 72102.5, 73102.5, 74102.5, 75102.5, 76102.5, 77102.5, 78102.5, 79102.5, 80102.5, 81102.5, 82102.5, 83102.5, 84102.5, 85102.5, 86102.5, 87102.5, 88102.5, 89102.5, 90102.5, 91102.5, 92102.5, 93102.5, 94102.5, 95102.5, 96102.5, 97102.5, 98102.5, 99102.5, 100102.5, 101102.5, 102102.5, 103102.5, 104102.5, 105102.5, 106102.5, 107102.5, 108102.5, 109102.5, 110102.5, 111102.5, 112102.5, 113102.5, 114102.5, 115102.5, 116102.5, 117102.5, 118102.5, 119102.5, 120102.5, 121102.5, 122102.5, 123102.5, 124102.5, 125102.5, 126102.5, 127102.5, 128102.5, 129102.5, 130102.5, 131102.5, 132102.5, 133102.5, 134102.5, 135102.5, 136102.5, 137102.5, 138102.5, 139102.5, 140102.5, 141102.5, 142102.5, 143102.5, 144102.5, 145102.5, 146102.5, 147102.5, 148102.5, 149102.5, 150102.5, 151102.5, 152102.5, 153102.5, 154102.5, 155102.5, 156102.5, 157102.5, 158102.5, 159102.5, 160102.5, 161102.5, 162102.5, 163102.5, 164102.5, 165102.5, 166102.5, 167102.5, 168102.5, 169102.5, 170102.5, 171102.5, 172102.5, 173102.5, 174102.5, 175102.5, 176102.5, 177102.5, 178102.5, 179102.5, 180102.5, 181102.5, 182102.5, 183102.5, 184102.5, 185102.5, 186102.5, 187102.5, 188102.5, 189102.5, 190102.5, 191102.5, 192102.5, 193102.5, 194102.5, 195102.5, 196102.5, 197102.5, 198102.5, 199102.5, 200102.5, 201102.5, 202102.5, 203102.5, 204102.5, 205102.5, 206102.5, 207102.5, 208102.5, 209102.5, 210102.5, 211102.5, 212102.5, 213102.5, 214102.5, 215102.5, 216102.5, 217102.5, 218102.5, 219102.5, 220102.5, 221102.5, 222102.5, 223102.5, 224102.5, 225102.5, 226102.5, 227102.5, 228102.5, 229102.5, 230102.5, 231102.5, 232102.5, 233102.5, 234102.5, 235102.5, 236102.5, 237102.5, 238102.5, 239102.5, 240102.5, 241102.5, 242102.5, 243102.5, 244102.5, 245102.5, 246102.5, 247102.5, 248102.5, 249102.5, 250102.5, 251102.5, 252102.5, 253102.5, 254102.5, 255102.5, 256102.5, 257102.5, 258102.5, 259102.5, 260102.5, 261102.5, 262102.5, 263102.5, 264102.5, 265102.5, 266102.5, 267102.5, 268102.5, 269102.5, 270102.5, 271102.5],
      "WindowCenter": [4408.0, 4386.0, 4383.0, 4373.0, 4373.0, 4372.0, 4370.0, 4373.0, 4382.0, 4387.0, 4395.0, 4395.0, 4413.0, 4413.0, 4411.0, 4415.0, 4409.0, 4408.0, 4404.0, 4397.0, 4397.0, 4395.0, 4382.0, 4381.0, 4380.0, 4370.0, 4369.0, 4368.0, 4369.0, 4358.0, 4358.0, 4369.0, 4365.0, 4353.0, 4359.0, 4368.0, 4367.0, 4368.0, 4384.0, 4383.0, 4379.0, 4379.0, 4385.0, 4388.0, 4383.0, 4395.0, 4381.0, 4381.0, 4382.0, 4379.0, 4371.0, 4383.0, 4382.0, 4381.0, 4383.0, 4383.0, 4382.0, 4381.0, 4381.0, 4379.0, 4391.0, 4384.0, 4384.0, 4369.0, 4380.0, 4363.0, 4363.0, 4369.0, 4368.0, 4354.0, 4361.0, 4368.0, 4372.0, 4372.0, 4382.0, 4397.0, 4398.0, 4408.0, 4394.0, 4401.0, 4409.0, 4405.0, 4398.0, 4408.0, 4409.0, 4395.0, 4395.0, 4379.0, 4382.0, 4370.0, 4369.0, 4367.0, 4368.0, 4368.0, 4370.0, 4369.0, 4381.0, 4378.0, 4396.0, 4392.0, 4398.0, 4391.0, 4396.0, 4396.0, 4392.0, 4396.0, 4393.0, 4408.0, 4399.0, 4407.0, 4404.0, 4400.0, 4399.0, 4389.0, 4386.0, 4394.0, 4384.0, 4383.0, 4385.0, 4391.0, 4379.0, 4373.0, 4369.0, 4370.0, 4369.0, 4367.0, 4371.0, 4368.0, 4369.0, 4386.0, 4384.0, 4385.0, 4388.0, 4401.0, 4392.0, 4383.0, 4395.0, 4383.0, 4399.0, 4397.0, 4400.0, 4394.0, 4395.0, 4409.0, 4397.0, 4377.0, 4371.0, 4371.0, 4379.0, 4366.0, 4370.0, 4370.0, 4366.0, 4366.0, 4368.0, 4359.0, 4355.0, 4353.0, 4352.0, 4353.0, 4357.0, 4380.0, 4367.0, 4395.0, 4396.0, 4400.0, 4400.0, 4399.0, 4409.0, 4409.0, 4407.0, 4409.0, 4411.0, 4419.0, 4412.0, 4410.0, 4410.0, 4399.0, 4398.0, 4400.0, 4391.0, 4395.0, 4384.0, 4384.0, 4386.0, 4395.0, 4397.0, 4392.0, 4398.0, 4396.0, 4397.0, 4399.0, 4396.0, 4398.0, 4394.0, 4394.0, 4395.0, 4392.0, 4396.0, 4396.0, 4393.0, 4379.0, 4381.0, 4368.0, 4365.0, 4365.0, 4355.0, 4364.0, 4369.0, 4379.0, 4381.0, 4377.0, 4382.0, 4384.0, 4383.0, 4387.0, 4406.0, 4388.0, 4391.0, 4385.0, 4393.0, 4394.0, 4399.0, 4397.0, 4401.0, 4398.0, 4383.0, 4368.0, 4358.0, 4357.0, 4345.0, 4354.0, 4344.0, 4344.0, 4355.0, 4369.0, 4371.0, 4374.0, 4383.0, 4396.0, 4393.0, 4380.0, 4385.0, 4381.0, 4383.0, 4385.0, 4384.0, 4385.0, 4394.0, 4383.0, 4384.0, 4372.0, 4371.0, 4371.0, 4382.0, 4397.0, 4393.0, 4388.0, 4382.0, 4376.0, 4382.0, 4373.0, 4380.0, 4385.0],
