{
  "AcquisitionMatrixPE": 106,
  "AcquisitionNumber": 1,
  "AcquisitionTime": "15:35:43.642500",
  "BandwidthPerPixelPhaseEncode": 13.477,
  "BaseResolution": 106,
  "BodyPartExamined": "BRAIN",
  "CoilCombinationMethod": "Sum of Squares",
  "ConsistencyInfo": "N4_VE11C_LATEST_20160120",
  "ConversionSoftware": "dcm2niix",
  "ConversionSoftwareVersion": "v1.0.20220720",
  "DerivedVendorReportedEchoSpacing": 0.000700005,
  "DeviceSerialNumber": "166108",
  "DwellTime": 2.6e-06,
  "EchoTime": 0.03,
  "EchoTrainLength": 80,
  "EffectiveEchoSpacing": 0.000700005,
  "FlipAngle": 62,
  "HeudiconvVersion": "1.3.0",
  "ImageComments": "Unaliased MB4/PE3/LB",
  "ImageOrientationPatientDICOM": [1, 0, 0, 0, 0.904827, -0.425779],
  "ImageOrientationText": "Tra>Cor(-25.2)",
  "ImageType": [
    "ORIGINAL",
    "PRIMARY",
    "M",
    "MB",
    "ND",
    "MOSAIC"
],
  "ImagingFrequency": 123.244,
  "InPlanePhaseEncodingDirectionDICOM": "COL",
  "InstitutionAddress": "Bedford Way 26,London,London,GB,WC1H 0AP",
  "InstitutionName": "University College",
  "InstitutionalDepartmentName": "Department",
  "MRAcquisitionType": "2D",
  "MagneticFieldStrength": 3,
  "Manufacturer": "Siemens",
  "ManufacturersModelName": "Prisma",
  "MatrixCoilMode": "SENSE",
  "Modality": "MR",
  "MultibandAccelerationFactor": 4,
  "NonlinearGradientCorrection": false,
  "PartialFourier": 0.75,
  "PatientPosition": "HFS",
  "PercentPhaseFOV": 100,
  "PercentSampling": 100,
  "PhaseEncodingDirection": "j-",
  "PhaseEncodingSteps": 80,
  "PhaseResolution": 1,
  "PixelBandwidth": 1815,
  "ProcedureStepDescription": "Egor^MovieProject2",
  "ProtocolName": "func-bold_task-tono_run-02",
  "PulseSequenceDetails": "%CustomerSeq%\\cmrr_mbep2d_bold",
  "ReceiveCoilActiveElements": "HEA;HEP",
  "ReceiveCoilName": "Head_32",
  "ReconMatrixPE": 106,
  "RepetitionTime": 1,
  "SAR": 0.0404395,
  "ScanOptions": "PFP\\FS\\EXT",
  "ScanningSequence": "EP",
  "SequenceName": "epfid2d1_106",
  "SequenceVariant": "SK\\SS",
  "SeriesDescription": "func-bold_task-tono_run-02",
  "SeriesNumber": 22,
  "ShimSetting": [-1486, 608, 7459, 177, -195, 118, 225, -101],
  "SliceThickness": 2,
  "SliceTiming": [0, 0.535, 0.09, 0.625, 0.18, 0.7125, 0.2675, 0.8025, 0.3575, 0.8925, 0.4475, 0, 0.535, 0.09, 0.625, 0.18, 0.7125, 0.2675, 0.8025, 0.3575, 0.8925, 0.4475, 0, 0.535, 0.09, 0.625, 0.18, 0.7125, 0.2675, 0.8025, 0.3575, 0.8925, 0.4475, 0, 0.535, 0.09, 0.625, 0.18, 0.7125, 0.2675, 0.8025, 0.3575, 0.8925, 0.4475],
  "SoftwareVersions": "syngo MR E11",
  "SpacingBetweenSlices": 2,
  "StationName": "AWP166108",
  "TaskName": "tonotopy",
  "TotalReadoutTime": 0.0735005,
  "TxRefAmp": 252.208,
  "WipMemBlock": "7663e20d-4117-4880-a065-1c13325f93bc||Sequence: R016 ve11c/master r/e634e98; Dec 19 2017 11:00:25 by eja",
  "dcmmeta_affine": [
    [-2.0, 0.0, 0.0, 106.0],
    [0.0, 1.8096541166305542, -0.8515585660934448, -64.13587951660156],
    [0.0, 0.8515585660934448, 1.8096541166305542, -79.77714538574219],
    [0.0, 0.0, 0.0, 1.0]
],
  "dcmmeta_reorient_transform": [
    [0.0, -1.0, 0.0, 105.0],
    [1.0, 0.0, 0.0, 0.0],
    [0.0, 0.0, 1.0, 0.0],
    [0.0, 0.0, 0.0, 1.0]
],
  "dcmmeta_shape": [106, 106, 44, 264],
  "dcmmeta_slice_dim": 2,
  "dcmmeta_version": 0.6,
  "global": {
    "const": {
      "AcquisitionMatrix": [106, 0, 0, 106],
      "AngioFlag": "N",
      "BitsAllocated": 16,
      "BitsStored": 16,
      "BodyPartExamined": "BRAIN",
      "CardiacNumberOfImages": 1,
      "Columns": 742,
      "EchoNumbers": 1,
      "EchoTime": 30.0,
      "EchoTrainLength": 80,
      "FlipAngle": 62.0,
      "HighBit": 15,
      "ImageOrientationPatient": [1.0, 0.0, 0.0, 0.0, 0.9048270571792, -0.425779281549],
      "ImagePositionPatient": [-742.0, -701.34780763729, 280.4321293447],
      "ImageType": [
        "ORIGINAL",
        "PRIMARY",
        "M",
        "MB",
        "ND",
        "MOSAIC"
],
      "ImagedNucleus": "1H",
      "ImagingFrequency": 123.243609,
      "InPlanePhaseEncodingDirection": "COL",
      "MRAcquisitionType": "2D",
      "MagneticFieldStrength": 3.0,
      "Manufacturer": "SIEMENS",
      "ManufacturerModelName": "Prisma",
      "Modality": "MR",
      "NominalInterval": 0,
      "NumberOfAverages": 1.0,
      "NumberOfPhaseEncodingSteps": 80,
      "PercentPhaseFieldOfView": 100.0,
      "PercentSampling": 100.0,
      "PerformedProcedureStepStartTime": "141427.159000",
      "PhotometricInterpretation": "MONOCHROME2",
      "PixelBandwidth": 1815.0,
      "PixelRepresentation": 0,
      "PixelSpacing": [2.0, 2.0],
      "ProtocolName": "func-bold_task-tono_run-02",
      "RepetitionTime": 1000.0,
      "Rows": 742,
      "SAR": 0.04043952759587,
      "SamplesPerPixel": 1,
      "ScanOptions": [
        "PFP",
        "FS",
        "EXT"
],
      "ScanningSequence": "EP",
      "SequenceName": "epfid2d1_106",
      "SequenceVariant": [
        "SK",
        "SS"
],
      "SeriesDescription": "func-bold_task-tono_run-02",
      "SeriesNumber": 22,
      "SeriesTime": "153620.987000",
      "SliceLocation": -44.876787318348,
      "SliceThickness": 2.0,
      "SmallestImagePixelValue": 0,
      "SoftwareVersions": "syngo MR E11",
      "SpacingBetweenSlices": 1.9999999636379,
      "SpecificCharacterSet": "ISO_IR 100",
      "StudyID": "1",
      "StudyTime": "141427.092000",
      "TransmitCoilName": "Body",
      "VariableFlipAngleFlag": "N",
      "WindowCenterWidthExplanation": "Algo1",
      "dBdt": 0.0},
    "slices": {}
  },
  "time": {
    "samples": {
      "AcquisitionNumber": [1, 2, 3, 4, 5, 6, 7, 8, 9, 10, 11, 12, 13, 14, 15, 16, 17, 18, 19, 20, 21, 22, 23, 24, 25, 26, 27, 28, 29, 30, 31, 32, 33, 34, 35, 36, 37, 38, 39, 40, 41, 42, 43, 44, 45, 46, 47, 48, 49, 50, 51, 52, 53, 54, 55, 56, 57, 58, 59, 60, 61, 62, 63, 64, 65, 66, 67, 68, 69, 70, 71, 72, 73, 74, 75, 76, 77, 78, 79, 80, 81, 82, 83, 84, 85, 86, 87, 88, 89, 90, 91, 92, 93, 94, 95, 96, 97, 98, 99, 100, 101, 102, 103, 104, 105, 106, 107, 108, 109, 110, 111, 112, 113, 114, 115, 116, 117, 118, 119, 120, 121, 122, 123, 124, 125, 126, 127, 128, 129, 130, 131, 132, 133, 134, 135, 136, 137, 138, 139, 140, 141, 142, 143, 144, 145, 146, 147, 148, 149, 150, 151, 152, 153, 154, 155, 156, 157, 158, 159, 160, 161, 162, 163, 164, 165, 166, 167, 168, 169, 170, 171, 172, 173, 174, 175, 176, 177, 178, 179, 180, 181, 182, 183, 184, 185, 186, 187, 188, 189, 190, 191, 192, 193, 194, 195, 196, 197, 198, 199, 200, 201, 202, 203, 204, 205, 206, 207, 208, 209, 210, 211, 212, 213, 214, 215, 216, 217, 218, 219, 220, 221, 222, 223, 224, 225, 226, 227, 228, 229, 230, 231, 232, 233, 234, 235, 236, 237, 238, 239, 240, 241, 242, 243, 244, 245, 246, 247, 248, 249, 250, 251, 252, 253, 254, 255, 256, 257, 258, 259, 260, 261, 262, 263, 264],
      "AcquisitionTime": ["153543.642500", "153544.642500", "153545.642500", "153546.642500", "153547.642500", "153548.642500", "153549.642500", "153550.642500", "153551.642500", "153552.642500", "153553.642500", "153554.642500", "153555.642500", "153556.642500", "153557.642500", "153558.642500", "153559.642500", "153600.642500", "153601.642500", "153602.642500", "153603.642500", "153604.642500", "153605.642500", "153606.642500", "153607.642500", "153608.642500", "153609.642500", "153610.642500", "153611.642500", "153612.642500", "153613.642500", "153614.642500", "153615.642500", "153616.642500", "153617.642500", "153618.642500", "153619.642500", "153620.642500", "153621.642500", "153622.642500", "153623.642500", "153624.642500", "153625.642500", "153626.642500", "153627.642500", "153628.642500", "153629.642500", "153630.642500", "153631.642500", "153632.642500", "153633.642500", "153634.642500", "153635.642500", "153636.642500", "153637.642500", "153638.642500", "153639.642500", "153640.642500", "153641.642500", "153642.642500", "153643.642500", "153644.642500", "153645.642500", "153646.642500", "153647.642500", "153648.642500", "153649.642500", "153650.642500", "153651.642500", "153652.642500", "153653.642500", "153654.642500", "153655.642500", "153656.642500", "153657.642500", "153658.642500", "153659.642500", "153700.642500", "153701.642500", "153702.642500", "153703.642500", "153704.642500", "153705.642500", "153706.642500", "153707.642500", "153708.642500", "153709.642500", "153710.642500", "153711.642500", "153712.642500", "153713.642500", "153714.642500", "153715.642500", "153716.642500", "153717.642500", "153718.642500", "153719.642500", "153720.642500", "153721.642500", "153722.642500", "153723.642500", "153724.642500", "153725.642500", "153726.642500", "153727.642500", "153728.642500", "153729.642500", "153730.642500", "153731.642500", "153732.642500", "153733.642500", "153734.642500", "153735.642500", "153736.642500", "153737.642500", "153738.642500", "153739.642500", "153740.642500", "153741.642500", "153742.642500", "153743.642500", "153744.642500", "153745.642500", "153746.642500", "153747.642500", "153748.642500", "153749.642500", "153750.642500", "153751.642500", "153752.642500", "153753.642500", "153754.642500", "153755.642500", "153756.642500", "153757.642500", "153758.642500", "153759.642500", "153800.642500", "153801.642500", "153802.642500", "153803.642500", "153804.642500", "153805.642500", "153806.642500", "153807.642500", "153808.642500", "153809.642500", "153810.642500", "153811.642500", "153812.642500", "153813.642500", "153814.642500", "153815.642500", "153816.642500", "153817.642500", "153818.642500", "153819.642500", "153820.642500", "153821.642500", "153822.642500", "153823.642500", "153824.642500", "153825.642500", "153826.642500", "153827.642500", "153828.642500", "153829.642500", "153830.642500", "153831.642500", "153832.642500", "153833.642500", "153834.642500", "153835.642500", "153836.642500", "153837.642500", "153838.642500", "153839.642500", "153840.642500", "153841.642500", "153842.642500", "153843.642500", "153844.642500", "153845.642500", "153846.642500", "153847.642500", "153848.642500", "153849.642500", "153850.642500", "153851.642500", "153852.642500", "153853.642500", "153854.642500", "153855.642500", "153856.642500", "153857.642500", "153858.642500", "153859.642500", "153900.642500", "153901.642500", "153902.642500", "153903.642500", "153904.642500", "153905.642500", "153906.642500", "153907.642500", "153908.642500", "153909.642500", "153910.642500", "153911.642500", "153912.642500", "153913.642500", "153914.642500", "153915.642500", "153916.642500", "153917.642500", "153918.642500", "153919.642500", "153920.642500", "153921.642500", "153922.642500", "153923.642500", "153924.642500", "153925.642500", "153926.642500", "153927.642500", "153928.642500", "153929.642500", "153930.642500", "153931.642500", "153932.642500", "153933.642500", "153934.642500", "153935.642500", "153936.642500", "153937.642500", "153938.642500", "153939.642500", "153940.642500", "153941.642500", "153942.642500", "153943.642500", "153944.642500", "153945.642500", "153946.642500", "153947.642500", "153948.642500", "153949.642500", "153950.642500", "153951.642500", "153952.642500", "153953.642500", "153954.642500", "153955.642500", "153956.642500", "153957.642500", "153958.642500", "153959.642500", "154000.642500", "154001.642500", "154002.642500", "154003.642500", "154004.642500", "154005.642500", "154006.642500"],
      "ContentTime": ["153620.990000", "153620.993000", "153620.996000", "153620.998000", "153621.001000", "153621.004000", "153621.007000", "153621.009000", "153621.012000", "153621.014000", "153621.017000", "153621.019000", "153621.022000", "153621.024000", "153621.031000", "153621.033000", "153621.036000", "153621.038000", "153621.041000", "153621.043000", "153621.046000", "153621.048000", "153621.051000", "153621.053000", "153621.056000", "153621.058000", "153621.061000", "153621.063000", "153621.065000", "153621.077000", "153621.079000", "153621.082000", "153621.084000", "153621.087000", "153621.089000", "153621.092000", "153640.942000", "153640.945000", "153640.948000", "153640.950000", "153640.953000", "153640.955000", "153640.958000", "153640.961000", "153640.963000", "153640.966000", "153640.968000", "153640.970000", "153640.973000", "153640.975000", "153640.978000", "153640.980000", "153640.983000", "153640.985000", "153640.988000", "153640.990000", "153700.943000", "153700.945000", "153700.948000", "153700.950000", "153700.953000", "153700.955000", "153700.958000", "153700.960000", "153700.963000", "153700.965000", "153700.968000", "153700.970000", "153700.973000", "153700.975000", "153700.978000", "153700.980000", "153700.989000", "153700.992000", "153700.994000", "153700.997000", "153720.941000", "153720.944000", "153720.946000", "153720.949000", "153720.952000", "153720.954000", "153720.957000", "153720.959000", "153720.962000", "153720.964000", "153720.967000", "153720.969000", "153720.972000", "153720.974000", "153720.976000", "153720.979000", "153720.981000", "153720.984000", "153720.986000", "153720.989000", "153740.941000", "153740.944000", "153740.947000", "153740.949000", "153740.952000", "153740.954000", "153740.957000", "153740.959000", "153740.962000", "153740.964000", "153740.967000", "153740.969000", "153740.972000", "153740.974000", "153740.977000", "153740.979000", "153740.982000", "153740.984000", "153740.987000", "153740.989000", "153800.941000", "153800.944000", "153800.946000", "153800.949000", "153800.952000", "153800.954000", "153800.956000", "153800.959000", "153800.961000", "153800.964000", "153800.967000", "153800.969000", "153800.972000", "153800.974000", "153800.983000", "153800.985000", "153800.988000", "153800.990000", "153800.993000", "153800.995000", "153820.942000", "153820.945000", "153820.947000", "153820.950000", "153820.952000", "153820.955000", "153820.957000", "153820.960000", "153820.962000", "153820.965000", "153820.967000", "153820.970000", "153820.972000", "153820.975000", "153820.977000", "153820.980000", "153820.982000", "153820.985000", "153820.987000", "153820.990000", "153840.942000", "153840.945000", "153840.947000", "153840.950000", "153840.952000", "153840.955000", "153840.957000", "153840.960000", "153840.962000", "153840.965000", "153840.967000", "153840.969000", "153840.972000", "153840.974000", "153840.977000", "153840.979000", "153840.982000", "153840.984000", "153840.986000", "153840.989000", "153900.942000", "153900.945000", "153900.947000", "153900.950000", "153900.952000", "153900.955000", "153900.957000", "153900.960000", "153900.962000", "153900.965000", "153900.967000", "153900.969000", "153900.972000", "153900.974000", "153900.977000", "153900.979000", "153900.982000", "153900.984000", "153900.987000", "153900.989000", "153920.943000", "153920.945000", "153920.948000", "153920.950000", "153920.953000", "153920.955000", "153920.957000", "153920.960000", "153920.962000", "153920.965000", "153920.967000", "153920.970000", "153920.972000", "153920.974000", "153920.977000", "153920.979000", "153920.982000", "153920.984000", "153920.987000", "153920.989000", "153940.941000", "153940.944000", "153940.947000", "153940.949000", "153940.951000", "153940.954000", "153940.956000", "153940.959000", "153940.961000", "153940.964000", "153940.966000", "153940.969000", "153940.971000", "153940.974000", "153940.976000", "153940.979000", "153940.981000", "153940.983000", "153940.986000", "153940.988000", "154000.941000", "154000.944000", "154000.946000", "154000.949000", "154000.951000", "154000.954000", "154000.956000", "154000.959000", "154000.961000", "154000.976000", "154000.978000", "154000.981000", "154000.983000", "154000.985000", "154000.988000", "154000.990000", "154000.993000", "154000.995000", "154000.998000", "154001.001000", "154008.729000", "154008.734000", "154008.737000", "154008.740000", "154008.743000", "154008.745000", "154008.748000", "154008.751000"],
      "InstanceCreationTime": ["153620.990000", "153620.993000", "153620.996000", "153620.998000", "153621.001000", "153621.004000", "153621.007000", "153621.009000", "153621.012000", "153621.014000", "153621.017000", "153621.019000", "153621.022000", "153621.024000", "153621.031000", "153621.033000", "153621.036000", "153621.038000", "153621.041000", "153621.043000", "153621.046000", "153621.048000", "153621.051000", "153621.053000", "153621.056000", "153621.058000", "153621.061000", "153621.063000", "153621.065000", "153621.077000", "153621.079000", "153621.082000", "153621.084000", "153621.087000", "153621.089000", "153621.092000", "153640.942000", "153640.945000", "153640.948000", "153640.950000", "153640.953000", "153640.955000", "153640.958000", "153640.961000", "153640.963000", "153640.966000", "153640.968000", "153640.970000", "153640.973000", "153640.975000", "153640.978000", "153640.980000", "153640.983000", "153640.985000", "153640.988000", "153640.990000", "153700.943000", "153700.945000", "153700.948000", "153700.950000", "153700.953000", "153700.955000", "153700.958000", "153700.960000", "153700.963000", "153700.965000", "153700.968000", "153700.970000", "153700.973000", "153700.975000", "153700.978000", "153700.980000", "153700.989000", "153700.992000", "153700.994000", "153700.997000", "153720.941000", "153720.944000", "153720.946000", "153720.949000", "153720.952000", "153720.954000", "153720.957000", "153720.959000", "153720.962000", "153720.964000", "153720.967000", "153720.969000", "153720.972000", "153720.974000", "153720.976000", "153720.979000", "153720.981000", "153720.984000", "153720.986000", "153720.989000", "153740.941000", "153740.944000", "153740.947000", "153740.949000", "153740.952000", "153740.954000", "153740.957000", "153740.959000", "153740.962000", "153740.964000", "153740.967000", "153740.969000", "153740.972000", "153740.974000", "153740.977000", "153740.979000", "153740.982000", "153740.984000", "153740.987000", "153740.989000", "153800.941000", "153800.944000", "153800.946000", "153800.949000", "153800.952000", "153800.954000", "153800.956000", "153800.959000", "153800.961000", "153800.964000", "153800.967000", "153800.969000", "153800.972000", "153800.974000", "153800.983000", "153800.985000", "153800.988000", "153800.990000", "153800.993000", "153800.995000", "153820.942000", "153820.945000", "153820.947000", "153820.950000", "153820.952000", "153820.955000", "153820.957000", "153820.960000", "153820.962000", "153820.965000", "153820.967000", "153820.970000", "153820.972000", "153820.975000", "153820.977000", "153820.980000", "153820.982000", "153820.985000", "153820.987000", "153820.990000", "153840.942000", "153840.945000", "153840.947000", "153840.950000", "153840.952000", "153840.955000", "153840.957000", "153840.960000", "153840.962000", "153840.965000", "153840.967000", "153840.969000", "153840.972000", "153840.974000", "153840.977000", "153840.979000", "153840.982000", "153840.984000", "153840.986000", "153840.989000", "153900.942000", "153900.945000", "153900.947000", "153900.950000", "153900.952000", "153900.955000", "153900.957000", "153900.960000", "153900.962000", "153900.965000", "153900.967000", "153900.969000", "153900.972000", "153900.974000", "153900.977000", "153900.979000", "153900.982000", "153900.984000", "153900.987000", "153900.989000", "153920.943000", "153920.945000", "153920.948000", "153920.950000", "153920.953000", "153920.955000", "153920.957000", "153920.960000", "153920.962000", "153920.965000", "153920.967000", "153920.970000", "153920.972000", "153920.974000", "153920.977000", "153920.979000", "153920.982000", "153920.984000", "153920.987000", "153920.989000", "153940.941000", "153940.944000", "153940.947000", "153940.949000", "153940.951000", "153940.954000", "153940.956000", "153940.959000", "153940.961000", "153940.964000", "153940.966000", "153940.969000", "153940.971000", "153940.974000", "153940.976000", "153940.979000", "153940.981000", "153940.983000", "153940.986000", "153940.988000", "154000.941000", "154000.944000", "154000.946000", "154000.949000", "154000.951000", "154000.954000", "154000.956000", "154000.959000", "154000.961000", "154000.976000", "154000.978000", "154000.981000", "154000.983000", "154000.985000", "154000.988000", "154000.990000", "154000.993000", "154000.995000", "154000.998000", "154001.001000", "154008.729000", "154008.734000", "154008.737000", "154008.740000", "154008.743000", "154008.745000", "154008.748000", "154008.751000"],
      "InstanceNumber": [1, 2, 3, 4, 5, 6, 7, 8, 9, 10, 11, 12, 13, 14, 15, 16, 17, 18, 19, 20, 21, 22, 23, 24, 25, 26, 27, 28, 29, 30, 31, 32, 33, 34, 35, 36, 37, 38, 39, 40, 41, 42, 43, 44, 45, 46, 47, 48, 49, 50, 51, 52, 53, 54, 55, 56, 57, 58, 59, 60, 61, 62, 63, 64, 65, 66, 67, 68, 69, 70, 71, 72, 73, 74, 75, 76, 77, 78, 79, 80, 81, 82, 83, 84, 85, 86, 87, 88, 89, 90, 91, 92, 93, 94, 95, 96, 97, 98, 99, 100, 101, 102, 103, 104, 105, 106, 107, 108, 109, 110, 111, 112, 113, 114, 115, 116, 117, 118, 119, 120, 121, 122, 123, 124, 125, 126, 127, 128, 129, 130, 131, 132, 133, 134, 135, 136, 137, 138, 139, 140, 141, 142, 143, 144, 145, 146, 147, 148, 149, 150, 151, 152, 153, 154, 155, 156, 157, 158, 159, 160, 161, 162, 163, 164, 165, 166, 167, 168, 169, 170, 171, 172, 173, 174, 175, 176, 177, 178, 179, 180, 181, 182, 183, 184, 185, 186, 187, 188, 189, 190, 191, 192, 193, 194, 195, 196, 197, 198, 199, 200, 201, 202, 203, 204, 205, 206, 207, 208, 209, 210, 211, 212, 213, 214, 215, 216, 217, 218, 219, 220, 221, 222, 223, 224, 225, 226, 227, 228, 229, 230, 231, 232, 233, 234, 235, 236, 237, 238, 239, 240, 241, 242, 243, 244, 245, 246, 247, 248, 249, 250, 251, 252, 253, 254, 255, 256, 257, 258, 259, 260, 261, 262, 263, 264],
      "LargestImagePixelValue": [13299, 13035, 13053, 12822, 12681, 13027, 12780, 12853, 12894, 12725, 12657, 12895, 12781, 12583, 12919, 12675, 12606, 12938, 12559, 12600, 12828, 12733, 12523, 12843, 12710, 12579, 12900, 12536, 12688, 12717, 12724, 12571, 12932, 12744, 12593, 12914, 12618, 12825, 12783, 12557, 12924, 12647, 12844, 13062, 12721, 12916, 12596, 12679, 12805, 12664, 12596, 12882, 12630, 12558, 12815, 12849, 12842, 12867, 12725, 12726, 12668, 12746, 12846, 12668, 12603, 12894, 12595, 12493, 12813, 12717, 12724, 12893, 12595, 12565, 12811, 12579, 12755, 12693, 12712, 12729, 12861, 12635, 12932, 12578, 12504, 12893, 12691, 12682, 12570, 12711, 12756, 12745, 12620, 12578, 12821, 12670, 12718, 12978, 12609, 12630, 12710, 12751, 12676, 12757, 12541, 12712, 12603, 12669, 12801, 12724, 12593, 12590, 12660, 12777, 12610, 12924, 12761, 12665, 12806, 12604, 12678, 12608, 12605, 12576, 12753, 12625, 12630, 12804, 12547, 12546, 12700, 12651, 12587, 12965, 12687, 12766, 12625, 12674, 12682, 12704, 12854, 12784, 12610, 12781, 12569, 12484, 12741, 12548, 12603, 12764, 12516, 12682, 12564, 12511, 12648, 12484, 12700, 12670, 12525, 12690, 12498, 12530, 12629, 12568, 12756, 12441, 12578, 12749, 12647, 12496, 12651, 12518, 12620, 12545, 12736, 12626, 12647, 12533, 12497, 12665, 12611, 12523, 12692, 12518, 12837, 12638, 12521, 12618, 12607, 12453, 12631, 12472, 12575, 12668, 12583, 12539, 12616, 12652, 12697, 12464, 12736, 12772, 12438, 12355, 12597, 12598, 12726, 12825, 12482, 12651, 12450, 12602, 12501, 12540, 12649, 12511, 12561, 12546, 12742, 12382, 12564, 12621, 12608, 12603, 12605, 12604, 12559, 12700, 12513, 12748, 12553, 12560, 12693, 12527, 12589, 12772, 12682, 12486, 12671, 12643, 12585, 12633, 12547, 12769, 12589, 12514, 12625, 12492, 12507, 12544, 12486, 12639, 12408, 12553, 12812, 12366, 12753, 12482, 12538, 12605, 12646, 12769, 12420, 12647],
      "TriggerTime": [8102.5, 9102.5, 10102.5, 11102.5, 12102.5, 13102.5, 14102.5, 15102.5, 16102.5, 17102.5, 18102.5, 19102.5, 20102.5, 21102.5, 22102.5, 23102.5, 24102.5, 25102.5, 26102.5, 27102.5, 28102.5, 29102.5, 30102.5, 31102.5, 32102.5, 33102.5, 34102.5, 35102.5, 36102.5, 37102.5, 38102.5, 39102.5, 40102.5, 41102.5, 42102.5, 43102.5, 44102.5, 45102.5, 46102.5, 47102.5, 48102.5, 49102.5, 50102.5, 51102.5, 52102.5, 53102.5, 54102.5, 55102.5, 56102.5, 57102.5, 58102.5, 59102.5, 60102.5, 61102.5, 62102.5, 63102.5, 64102.5, 65102.5, 66102.5, 67102.5, 68102.5, 69102.5, 70102.5, 71102.5, 72102.5, 73102.5, 74102.5, 75102.5, 76102.5, 77102.5, 78102.5, 79102.5, 80102.5, 81102.5, 82102.5, 83102.5, 84102.5, 85102.5, 86102.5, 87102.5, 88102.5, 89102.5, 90102.5, 91102.5, 92102.5, 93102.5, 94102.5, 95102.5, 96102.5, 97102.5, 98102.5, 99102.5, 100102.5, 101102.5, 102102.5, 103102.5, 104102.5, 105102.5, 106102.5, 107102.5, 108102.5, 109102.5, 110102.5, 111102.5, 112102.5, 113102.5, 114102.5, 115102.5, 116102.5, 117102.5, 118102.5, 119102.5, 120102.5, 121102.5, 122102.5, 123102.5, 124102.5, 125102.5, 126102.5, 127102.5, 128102.5, 129102.5, 130102.5, 131102.5, 132102.5, 133102.5, 134102.5, 135102.5, 136102.5, 137102.5, 138102.5, 139102.5, 140102.5, 141102.5, 142102.5, 143102.5, 144102.5, 145102.5, 146102.5, 147102.5, 148102.5, 149102.5, 150102.5, 151102.5, 152102.5, 153102.5, 154102.5, 155102.5, 156102.5, 157102.5, 158102.5, 159102.5, 160102.5, 161102.5, 162102.5, 163102.5, 164102.5, 165102.5, 166102.5, 167102.5, 168102.5, 169102.5, 170102.5, 171102.5, 172102.5, 173102.5, 174102.5, 175102.5, 176102.5, 177102.5, 178102.5, 179102.5, 180102.5, 181102.5, 182102.5, 183102.5, 184102.5, 185102.5, 186102.5, 187102.5, 188102.5, 189102.5, 190102.5, 191102.5, 192102.5, 193102.5, 194102.5, 195102.5, 196102.5, 197102.5, 198102.5, 199102.5, 200102.5, 201102.5, 202102.5, 203102.5, 204102.5, 205102.5, 206102.5, 207102.5, 208102.5, 209102.5, 210102.5, 211102.5, 212102.5, 213102.5, 214102.5, 215102.5, 216102.5, 217102.5, 218102.5, 219102.5, 220102.5, 221102.5, 222102.5, 223102.5, 224102.5, 225102.5, 226102.5, 227102.5, 228102.5, 229102.5, 230102.5, 231102.5, 232102.5, 233102.5, 234102.5, 235102.5, 236102.5, 237102.5, 238102.5, 239102.5, 240102.5, 241102.5, 242102.5, 243102.5, 244102.5, 245102.5, 246102.5, 247102.5, 248102.5, 249102.5, 250102.5, 251102.5, 252102.5, 253102.5, 254102.5, 255102.5, 256102.5, 257102.5, 258102.5, 259102.5, 260102.5, 261102.5, 262102.5, 263102.5, 264102.5, 265102.5, 266102.5, 267102.5, 268102.5, 269102.5, 270102.5, 271102.5],
      "WindowCenter": [4444.0, 4415.0, 4414.0, 4403.0, 4407.0, 4415.0, 4415.0, 4405.0, 4404.0, 4404.0, 4404.0, 4416.0, 4413.0, 4406.0, 4415.0, 4416.0, 4406.0, 4415.0, 4402.0, 4404.0, 4414.0, 4414.0, 4405.0, 4412.0, 4411.0, 4402.0, 4412.0, 4401.0, 4415.0, 4417.0, 4418.0, 4403.0, 4417.0, 4415.0, 4402.0, 4401.0, 4406.0, 4403.0, 4402.0, 4401.0, 4402.0, 4400.0, 4400.0, 4411.0, 4400.0, 4399.0, 4399.0, 4401.0, 4404.0, 4412.0, 4399.0, 4413.0, 4403.0, 4394.0, 4403.0, 4401.0, 4401.0, 4403.0, 4401.0, 4401.0, 4402.0, 4400.0, 4400.0, 4400.0, 4391.0, 4400.0, 4391.0, 4391.0, 4401.0, 4399.0, 4399.0, 4400.0, 4398.0, 4401.0, 4399.0, 4391.0, 4399.0, 4400.0, 4398.0, 4414.0, 4414.0, 4400.0, 4414.0, 4401.0, 4402.0, 4399.0, 4400.0, 4399.0, 4401.0, 4402.0, 4401.0, 4399.0, 4400.0, 4403.0, 4400.0, 4401.0, 4400.0, 4415.0, 4400.0, 4401.0, 4406.0, 4401.0, 4409.0, 4412.0, 4405.0, 4413.0, 4403.0, 4399.0, 4411.0, 4402.0, 4399.0, 4402.0, 4398.0, 4403.0, 4402.0, 4413.0, 4415.0, 4413.0, 4414.0, 4402.0, 4399.0, 4400.0, 4402.0, 4401.0, 4414.0, 4402.0, 4404.0, 4411.0, 4401.0, 4403.0, 4401.0, 4398.0, 4401.0, 4412.0, 4412.0, 4413.0, 4412.0, 4412.0, 4416.0, 4415.0, 4416.0, 4415.0, 4417.0, 4425.0, 4416.0, 4414.0, 4415.0, 4403.0, 4406.0, 4412.0, 4401.0, 4413.0, 4402.0, 4415.0, 4417.0, 4408.0, 4412.0, 4405.0, 4401.0, 4400.0, 4400.0, 4403.0, 4404.0, 4402.0, 4400.0, 4392.0, 4389.0, 4401.0, 4397.0, 4388.0, 4401.0, 4402.0, 4399.0, 4400.0, 4412.0, 4402.0, 4414.0, 4401.0, 4404.0, 4416.0, 4401.0, 4400.0, 4403.0, 4403.0, 4413.0, 4405.0, 4405.0, 4401.0, 4399.0, 4399.0, 4401.0, 4400.0, 4404.0, 4414.0, 4405.0, 4402.0, 4405.0, 4411.0, 4411.0, 4401.0, 4416.0, 4415.0, 4403.0, 4404.0, 4404.0, 4402.0, 4412.0, 4414.0, 4401.0, 4410.0, 4399.0, 4402.0, 4402.0, 4402.0, 4415.0, 4401.0, 4403.0, 4402.0, 4402.0, 4388.0, 4387.0, 4393.0, 4392.0, 4397.0, 4400.0, 4402.0, 4399.0, 4412.0, 4403.0, 4412.0, 4405.0, 4416.0, 4416.0, 4404.0, 4412.0, 4416.0, 4414.0, 4400.0, 4414.0, 4416.0, 4404.0, 4406.0, 4406.0, 4413.0, 4404.0, 4404.0, 4401.0, 4399.0, 4400.0, 4399.0, 4393.0, 4403.0, 4401.0, 4402.0, 4413.0, 4401.0, 4403.0, 4400.0, 4401.0, 4401.0, 4403.0, 4410.0, 4403.0, 4411.0],
