{
  "AcquisitionMatrixPE": 106,
  "AcquisitionNumber": 1,
  "AcquisitionTime": "14:50:40.787500",
  "BandwidthPerPixelPhaseEncode": 13.477,
  "BaseResolution": 106,
  "BodyPartExamined": "BRAIN",
  "CoilCombinationMethod": "Sum of Squares",
  "ConsistencyInfo": "N4_VE11C_LATEST_20160120",
  "ConversionSoftware": "dcm2niix",
  "ConversionSoftwareVersion": "v1.0.20220720",
  "DerivedVendorReportedEchoSpacing": 0.000700005,
  "DeviceSerialNumber": "166108",
  "DwellTime": 2.6e-06,
  "EchoTime": 0.03,
  "EchoTrainLength": 80,
  "EffectiveEchoSpacing": 0.000700005,
  "FlipAngle": 62,
  "HeudiconvVersion": "1.3.0",
  "ImageComments": "Unaliased MB4/PE3/LB",
  "ImageOrientationPatientDICOM": [1, 0, 0, 0, 0.992966, -0.118404],
  "ImageOrientationText": "Tra>Cor(-6.8)",
  "ImageType": [
    "ORIGINAL",
    "PRIMARY",
    "M",
    "MB",
    "ND",
    "MOSAIC"
],
  "ImagingFrequency": 123.244,
  "InPlanePhaseEncodingDirectionDICOM": "COL",
  "InstitutionAddress": "Bedford Way 26,London,London,GB,WC1H 0AP",
  "InstitutionName": "University College",
  "InstitutionalDepartmentName": "Department",
  "MRAcquisitionType": "2D",
  "MagneticFieldStrength": 3,
  "Manufacturer": "Siemens",
  "ManufacturersModelName": "Prisma",
  "MatrixCoilMode": "SENSE",
  "Modality": "MR",
  "MultibandAccelerationFactor": 4,
  "NonlinearGradientCorrection": false,
  "PartialFourier": 0.75,
  "PatientPosition": "HFS",
  "PercentPhaseFOV": 100,
  "PercentSampling": 100,
  "PhaseEncodingDirection": "j-",
  "PhaseEncodingSteps": 80,
  "PhaseResolution": 1,
  "PixelBandwidth": 1815,
  "ProcedureStepDescription": "Egor^MovieProject2",
  "ProtocolName": "func-bold_task-motor_run-02",
  "PulseSequenceDetails": "%CustomerSeq%\\cmrr_mbep2d_bold",
  "ReceiveCoilActiveElements": "HEA;HEP",
  "ReceiveCoilName": "Head_32",
  "ReconMatrixPE": 106,
  "RepetitionTime": 1,
  "SAR": 0.0405758,
  "ScanOptions": "PFP\\FS\\EXT",
  "ScanningSequence": "EP",
  "SequenceName": "epfid2d1_106",
  "SequenceVariant": "SK\\SS",
  "SeriesDescription": "func-bold_task-motor_run-02",
  "SeriesNumber": 8,
  "ShimSetting": [-1478, 598, 7420, 125, -98, 275, 151, -78],
  "SliceThickness": 2,
  "SliceTiming": [0, 0.535, 0.09, 0.6225, 0.1775, 0.7125, 0.2675, 0.8025, 0.355, 0.89, 0.445, 0, 0.535, 0.09, 0.6225, 0.1775, 0.7125, 0.2675, 0.8025, 0.355, 0.89, 0.445, 0, 0.535, 0.09, 0.6225, 0.1775, 0.7125, 0.2675, 0.8025, 0.355, 0.89, 0.445, 0, 0.535, 0.09, 0.6225, 0.1775, 0.7125, 0.2675, 0.8025, 0.355, 0.89, 0.445],
  "SoftwareVersions": "syngo MR E11",
  "SpacingBetweenSlices": 2,
  "StationName": "AWP166108",
  "TaskName": "somatotopy",
  "TotalReadoutTime": 0.0735005,
  "TxRefAmp": 252.208,
  "WipMemBlock": "32172ac5-e25b-48a0-a3ef-288d93f5f02d||Sequence: R016 ve11c/master r/e634e98; Dec 19 2017 11:00:25 by eja",
  "dcmmeta_affine": [
    [-2.0, 0.0, 0.0, 106.0],
    [0.0, 1.9859310388565063, -0.2368079423904419, -88.97704315185547],
    [0.0, 0.2368079274892807, 1.9859310388565063, -17.711528778076172],
    [0.0, 0.0, 0.0, 1.0]
],
  "dcmmeta_reorient_transform": [
    [0.0, -1.0, 0.0, 105.0],
    [1.0, 0.0, 0.0, 0.0],
    [0.0, 0.0, 1.0, 0.0],
    [0.0, 0.0, 0.0, 1.0]
],
  "dcmmeta_shape": [106, 106, 44, 469],
  "dcmmeta_slice_dim": 2,
  "dcmmeta_version": 0.6,
  "global": {
    "const": {
      "AcquisitionMatrix": [106, 0, 0, 106],
      "AngioFlag": "N",
      "BitsAllocated": 16,
      "BitsStored": 16,
      "BodyPartExamined": "BRAIN",
      "CardiacNumberOfImages": 1,
      "Columns": 742,
      "EchoNumbers": 1,
      "EchoTime": 30.0,
      "EchoTrainLength": 80,
      "FlipAngle": 62.0,
      "HighBit": 15,
      "ImageOrientationPatient": [1.0, 0.0, 0.0, 0.0, 0.99296550822323, -0.1184039673279],
      "ImagePositionPatient": [-742.0, -751.07177749348, 82.458227029825],
      "ImageType": [
        "ORIGINAL",
        "PRIMARY",
        "M",
        "MB",
        "ND",
        "MOSAIC"
],
      "ImagedNucleus": "1H",
      "ImagingFrequency": 123.243606,
      "InPlanePhaseEncodingDirection": "COL",
      "MRAcquisitionType": "2D",
      "MagneticFieldStrength": 3.0,
      "Manufacturer": "SIEMENS",
      "ManufacturerModelName": "Prisma",
      "Modality": "MR",
      "NominalInterval": 0,
      "NumberOfAverages": 1.0,
      "NumberOfPhaseEncodingSteps": 80,
      "PercentPhaseFieldOfView": 100.0,
      "PercentSampling": 100.0,
      "PerformedProcedureStepStartTime": "141427.159000",
      "PhotometricInterpretation": "MONOCHROME2",
      "PixelBandwidth": 1815.0,
      "PixelRepresentation": 0,
      "PixelSpacing": [2.0, 2.0],
      "ProtocolName": "func-bold_task-motor_run-02",
      "RepetitionTime": 1000.0,
      "Rows": 742,
      "SAR": 0.04057580749951,
      "SamplesPerPixel": 1,
      "ScanOptions": [
        "PFP",
        "FS",
        "EXT"
],
      "ScanningSequence": "EP",
      "SequenceName": "epfid2d1_106",
      "SequenceVariant": [
        "SK",
        "SS"
],
      "SeriesDescription": "func-bold_task-motor_run-02",
      "SeriesNumber": 8,
      "SeriesTime": "145116.460000",
      "SliceLocation": -7.0517028933597,
      "SliceThickness": 2.0,
      "SmallestImagePixelValue": 0,
      "SoftwareVersions": "syngo MR E11",
      "SpacingBetweenSlices": 2.0000000799924,
      "SpecificCharacterSet": "ISO_IR 100",
      "StudyID": "1",
      "StudyTime": "141427.092000",
      "TransmitCoilName": "Body",
      "VariableFlipAngleFlag": "N",
      "WindowCenterWidthExplanation": "Algo1",
      "dBdt": 0.0},
    "slices": {}
  },
  "time": {
    "samples": {
      "AcquisitionNumber": [1, 2, 3, 4, 5, 6, 7, 8, 9, 10, 11, 12, 13, 14, 15, 16, 17, 18, 19, 20, 21, 22, 23, 24, 25, 26, 27, 28, 29, 30, 31, 32, 33, 34, 35, 36, 37, 38, 39, 40, 41, 42, 43, 44, 45, 46, 47, 48, 49, 50, 51, 52, 53, 54, 55, 56, 57, 58, 59, 60, 61, 62, 63, 64, 65, 66, 67, 68, 69, 70, 71, 72, 73, 74, 75, 76, 77, 78, 79, 80, 81, 82, 83, 84, 85, 86, 87, 88, 89, 90, 91, 92, 93, 94, 95, 96, 97, 98, 99, 100, 101, 102, 103, 104, 105, 106, 107, 108, 109, 110, 111, 112, 113, 114, 115, 116, 117, 118, 119, 120, 121, 122, 123, 124, 125, 126, 127, 128, 129, 130, 131, 132, 133, 134, 135, 136, 137, 138, 139, 140, 141, 142, 143, 144, 145, 146, 147, 148, 149, 150, 151, 152, 153, 154, 155, 156, 157, 158, 159, 160, 161, 162, 163, 164, 165, 166, 167, 168, 169, 170, 171, 172, 173, 174, 175, 176, 177, 178, 179, 180, 181, 182, 183, 184, 185, 186, 187, 188, 189, 190, 191, 192, 193, 194, 195, 196, 197, 198, 199, 200, 201, 202, 203, 204, 205, 206, 207, 208, 209, 210, 211, 212, 213, 214, 215, 216, 217, 218, 219, 220, 221, 222, 223, 224, 225, 226, 227, 228, 229, 230, 231, 232, 233, 234, 235, 236, 237, 238, 239, 240, 241, 242, 243, 244, 245, 246, 247, 248, 249, 250, 251, 252, 253, 254, 255, 256, 257, 258, 259, 260, 261, 262, 263, 264, 265, 266, 267, 268, 269, 270, 271, 272, 273, 274, 275, 276, 277, 278, 279, 280, 281, 282, 283, 284, 285, 286, 287, 288, 289, 290, 291, 292, 293, 294, 295, 296, 297, 298, 299, 300, 301, 302, 303, 304, 305, 306, 307, 308, 309, 310, 311, 312, 313, 314, 315, 316, 317, 318, 319, 320, 321, 322, 323, 324, 325, 326, 327, 328, 329, 330, 331, 332, 333, 334, 335, 336, 337, 338, 339, 340, 341, 342, 343, 344, 345, 346, 347, 348, 349, 350, 351, 352, 353, 354, 355, 356, 357, 358, 359, 360, 361, 362, 363, 364, 365, 366, 367, 368, 369, 370, 371, 372, 373, 374, 375, 376, 377, 378, 379, 380, 381, 382, 383, 384, 385, 386, 387, 388, 389, 390, 391, 392, 393, 394, 395, 396, 397, 398, 399, 400, 401, 402, 403, 404, 405, 406, 407, 408, 409, 410, 411, 412, 413, 414, 415, 416, 417, 418, 419, 420, 421, 422, 423, 424, 425, 426, 427, 428, 429, 430, 431, 432, 433, 434, 435, 436, 437, 438, 439, 440, 441, 442, 443, 444, 445, 446, 447, 448, 449, 450, 451, 452, 453, 454, 455, 456, 457, 458, 459, 460, 461, 462, 463, 464, 465, 466, 467, 468, 469],
      "AcquisitionTime": ["145040.787500", "145041.787500", "145042.787500", "145043.787500", "145044.787500", "145045.787500", "145046.787500", "145047.787500", "145048.787500", "145049.787500", "145050.787500", "145051.787500", "145052.787500", "145053.787500", "145054.787500", "145055.787500", "145056.787500", "145057.787500", "145058.787500", "145059.787500", "145100.787500", "145101.787500", "145102.787500", "145103.787500", "145104.787500", "145105.787500", "145106.787500", "145107.787500", "145108.787500", "145109.787500", "145110.787500", "145111.787500", "145112.787500", "145113.787500", "145114.787500", "145115.787500", "145116.787500", "145117.787500", "145118.787500", "145119.787500", "145120.787500", "145121.787500", "145122.787500", "145123.787500", "145124.787500", "145125.787500", "145126.787500", "145127.787500", "145128.787500", "145129.787500", "145130.787500", "145131.787500", "145132.787500", "145133.787500", "145134.787500", "145135.787500", "145136.787500", "145137.787500", "145138.787500", "145139.787500", "145140.787500", "145141.787500", "145142.787500", "145143.787500", "145144.787500", "145145.787500", "145146.787500", "145147.787500", "145148.787500", "145149.787500", "145150.787500", "145151.787500", "145152.787500", "145153.787500", "145154.787500", "145155.787500", "145156.787500", "145157.787500", "145158.787500", "145159.787500", "145200.787500", "145201.787500", "145202.787500", "145203.787500", "145204.787500", "145205.787500", "145206.787500", "145207.787500", "145208.787500", "145209.787500", "145210.787500", "145211.787500", "145212.787500", "145213.787500", "145214.787500", "145215.787500", "145216.787500", "145217.787500", "145218.787500", "145219.787500", "145220.787500", "145221.787500", "145222.787500", "145223.787500", "145224.787500", "145225.787500", "145226.787500", "145227.787500", "145228.787500", "145229.787500", "145230.787500", "145231.787500", "145232.787500", "145233.787500", "145234.787500", "145235.787500", "145236.787500", "145237.787500", "145238.787500", "145239.787500", "145240.787500", "145241.787500", "145242.787500", "145243.787500", "145244.787500", "145245.787500", "145246.787500", "145247.787500", "145248.787500", "145249.787500", "145250.787500", "145251.787500", "145252.787500", "145253.787500", "145254.787500", "145255.787500", "145256.787500", "145257.787500", "145258.787500", "145259.787500", "145300.787500", "145301.787500", "145302.787500", "145303.787500", "145304.787500", "145305.787500", "145306.787500", "145307.787500", "145308.787500", "145309.787500", "145310.787500", "145311.787500", "145312.787500", "145313.787500", "145314.787500", "145315.787500", "145316.787500", "145317.787500", "145318.787500", "145319.787500", "145320.787500", "145321.787500", "145322.787500", "145323.787500", "145324.787500", "145325.787500", "145326.787500", "145327.787500", "145328.787500", "145329.787500", "145330.787500", "145331.787500", "145332.787500", "145333.787500", "145334.787500", "145335.787500", "145336.787500", "145337.787500", "145338.787500", "145339.787500", "145340.787500", "145341.787500", "145342.787500", "145343.787500", "145344.787500", "145345.787500", "145346.787500", "145347.787500", "145348.787500", "145349.787500", "145350.787500", "145351.787500", "145352.787500", "145353.787500", "145354.787500", "145355.787500", "145356.787500", "145357.787500", "145358.787500", "145359.787500", "145400.787500", "145401.787500", "145402.787500", "145403.787500", "145404.787500", "145405.787500", "145406.787500", "145407.787500", "145408.787500", "145409.787500", "145410.787500", "145411.787500", "145412.787500", "145413.787500", "145414.787500", "145415.787500", "145416.787500", "145417.787500", "145418.787500", "145419.787500", "145420.787500", "145421.787500", "145422.787500", "145423.787500", "145424.787500", "145425.787500", "145426.787500", "145427.787500", "145428.787500", "145429.787500", "145430.787500", "145431.787500", "145432.787500", "145433.787500", "145434.787500", "145435.787500", "145436.787500", "145437.787500", "145438.787500", "145439.787500", "145440.787500", "145441.787500", "145442.787500", "145443.787500", "145444.787500", "145445.787500", "145446.787500", "145447.787500", "145448.787500", "145449.787500", "145450.787500", "145451.787500", "145452.787500", "145453.787500", "145454.787500", "145455.787500", "145456.787500", "145457.787500", "145458.787500", "145459.787500", "145500.787500", "145501.787500", "145502.787500", "145503.787500", "145504.787500", "145505.787500", "145506.787500", "145507.787500", "145508.787500", "145509.787500", "145510.787500", "145511.787500", "145512.787500", "145513.787500", "145514.787500", "145515.787500", "145516.787500", "145517.787500", "145518.787500", "145519.787500", "145520.787500", "145521.787500", "145522.787500", "145523.787500", "145524.787500", "145525.787500", "145526.787500", "145527.787500", "145528.787500", "145529.787500", "145530.787500", "145531.787500", "145532.787500", "145533.787500", "145534.787500", "145535.787500", "145536.787500", "145537.787500", "145538.787500", "145539.787500", "145540.787500", "145541.787500", "145542.787500", "145543.787500", "145544.787500", "145545.787500", "145546.787500", "145547.787500", "145548.787500", "145549.787500", "145550.787500", "145551.787500", "145552.787500", "145553.787500", "145554.787500", "145555.787500", "145556.787500", "145557.787500", "145558.787500", "145559.787500", "145600.787500", "145601.787500", "145602.787500", "145603.787500", "145604.787500", "145605.787500", "145606.787500", "145607.787500", "145608.787500", "145609.787500", "145610.787500", "145611.787500", "145612.787500", "145613.787500", "145614.787500", "145615.787500", "145616.787500", "145617.787500", "145618.787500", "145619.787500", "145620.787500", "145621.787500", "145622.787500", "145623.787500", "145624.787500", "145625.787500", "145626.787500", "145627.787500", "145628.787500", "145629.787500", "145630.787500", "145631.787500", "145632.787500", "145633.787500", "145634.787500", "145635.787500", "145636.787500", "145637.787500", "145638.787500", "145639.787500", "145640.787500", "145641.787500", "145642.787500", "145643.787500", "145644.787500", "145645.787500", "145646.787500", "145647.787500", "145648.787500", "145649.787500", "145650.787500", "145651.787500", "145652.787500", "145653.787500", "145654.787500", "145655.787500", "145656.787500", "145657.787500", "145658.787500", "145659.787500", "145700.787500", "145701.787500", "145702.787500", "145703.787500", "145704.787500", "145705.787500", "145706.787500", "145707.787500", "145708.787500", "145709.787500", "145710.787500", "145711.787500", "145712.787500", "145713.787500", "145714.787500", "145715.787500", "145716.787500", "145717.787500", "145718.787500", "145719.787500", "145720.787500", "145721.787500", "145722.787500", "145723.787500", "145724.787500", "145725.787500", "145726.787500", "145727.787500", "145728.787500", "145729.787500", "145730.787500", "145731.787500", "145732.787500", "145733.787500", "145734.787500", "145735.787500", "145736.787500", "145737.787500", "145738.787500", "145739.787500", "145740.787500", "145741.787500", "145742.787500", "145743.787500", "145744.787500", "145745.787500", "145746.787500", "145747.787500", "145748.787500", "145749.787500", "145750.787500", "145751.787500", "145752.787500", "145753.787500", "145754.787500", "145755.787500", "145756.787500", "145757.787500", "145758.787500", "145759.787500", "145800.787500", "145801.787500", "145802.787500", "145803.787500", "145804.787500", "145805.787500", "145806.787500", "145807.787500", "145808.787500", "145809.787500", "145810.787500", "145811.787500", "145812.787500", "145813.787500", "145814.787500", "145815.787500", "145816.787500", "145817.787500", "145818.787500", "145819.787500", "145820.787500", "145821.787500", "145822.787500", "145823.787500", "145824.787500", "145825.787500", "145826.787500", "145827.787500", "145828.787500"],
      "ContentTime": ["145116.462000", "145116.465000", "145116.468000", "145116.470000", "145116.473000", "145116.475000", "145116.477000", "145116.480000", "145116.489000", "145116.491000", "145116.494000", "145116.496000", "145116.499000", "145116.501000", "145116.504000", "145116.506000", "145116.509000", "145116.511000", "145116.514000", "145116.516000", "145116.519000", "145116.521000", "145116.524000", "145116.526000", "145116.528000", "145116.531000", "145116.533000", "145116.536000", "145116.538000", "145116.541000", "145116.543000", "145116.552000", "145116.554000", "145116.563000", "145116.566000", "145136.436000", "145136.439000", "145136.442000", "145136.444000", "145136.447000", "145136.449000", "145136.451000", "145136.454000", "145136.456000", "145136.459000", "145136.461000", "145136.463000", "145136.466000", "145136.468000", "145136.471000", "145136.473000", "145136.476000", "145136.478000", "145136.481000", "145136.483000", "145156.436000", "145156.439000", "145156.442000", "145156.444000", "145156.447000", "145156.449000", "145156.451000", "145156.454000", "145156.456000", "145156.459000", "145156.461000", "145156.464000", "145156.466000", "145156.469000", "145156.471000", "145156.474000", "145156.476000", "145156.479000", "145156.481000", "145156.484000", "145216.435000", "145216.438000", "145216.440000", "145216.443000", "145216.445000", "145216.448000", "145216.450000", "145216.453000", "145216.455000", "145216.457000", "145216.460000", "145216.462000", "145216.465000", "145216.467000", "145216.470000", "145216.472000", "145216.475000", "145216.478000", "145216.480000", "145216.482000", "145236.437000", "145236.439000", "145236.442000", "145236.444000", "145236.447000", "145236.449000", "145236.452000", "145236.454000", "145236.456000", "145236.459000", "145236.461000", "145236.464000", "145236.466000", "145236.468000", "145236.471000", "145236.473000", "145236.476000", "145236.478000", "145236.481000", "145236.483000", "145256.437000", "145256.439000", "145256.442000", "145256.444000", "145256.447000", "145256.449000", "145256.451000", "145256.454000", "145256.456000", "145256.459000", "145256.471000", "145256.474000", "145256.476000", "145256.479000", "145256.481000", "145256.484000", "145256.486000", "145256.489000", "145256.491000", "145256.493000", "145316.436000", "145316.439000", "145316.441000", "145316.444000", "145316.446000", "145316.449000", "145316.451000", "145316.454000", "145316.456000", "145316.459000", "145316.461000", "145316.464000", "145316.467000", "145316.469000", "145316.471000", "145316.474000", "145316.476000", "145316.479000", "145316.482000", "145316.484000", "145336.436000", "145336.439000", "145336.441000", "145336.444000", "145336.446000", "145336.449000", "145336.451000", "145336.454000", "145336.456000", "145336.459000", "145336.462000", "145336.464000", "145336.467000", "145336.469000", "145336.472000", "145336.474000", "145336.477000", "145336.479000", "145336.482000", "145336.484000", "145356.437000", "145356.439000", "145356.442000", "145356.444000", "145356.447000", "145356.449000", "145356.451000", "145356.454000", "145356.456000", "145356.459000", "145356.461000", "145356.464000", "145356.466000", "145356.469000", "145356.471000", "145356.473000", "145356.476000", "145356.479000", "145356.481000", "145356.484000", "145416.436000", "145416.439000", "145416.441000", "145416.444000", "145416.446000", "145416.449000", "145416.451000", "145416.454000", "145416.456000", "145416.459000", "145416.461000", "145416.464000", "145416.466000", "145416.469000", "145416.471000", "145416.475000", "145416.477000", "145416.480000", "145416.482000", "145416.485000", "145436.435000", "145436.438000", "145436.441000", "145436.443000", "145436.446000", "145436.448000", "145436.451000", "145436.453000", "145436.456000", "145436.458000", "145436.461000", "145436.463000", "145436.466000", "145436.468000", "145436.471000", "145436.473000", "145436.476000", "145436.478000", "145436.480000", "145436.483000", "145456.436000", "145456.439000", "145456.442000", "145456.444000", "145456.447000", "145456.449000", "145456.452000", "145456.454000", "145456.457000", "145456.459000", "145456.462000", "145456.464000", "145456.467000", "145456.470000", "145456.472000", "145456.475000", "145456.478000", "145456.480000", "145456.483000", "145456.485000", "145516.436000", "145516.439000", "145516.447000", "145516.450000", "145516.452000", "145516.455000", "145516.457000", "145516.460000", "145516.462000", "145516.465000", "145516.467000", "145516.469000", "145516.472000", "145516.475000", "145516.477000", "145516.479000", "145516.482000", "145516.485000", "145516.487000", "145516.489000", "145536.436000", "145536.439000", "145536.441000", "145536.444000", "145536.447000", "145536.449000", "145536.451000", "145536.454000", "145536.456000", "145536.459000", "145536.461000", "145536.464000", "145536.466000", "145536.469000", "145536.471000", "145536.474000", "145536.476000", "145536.479000", "145536.481000", "145536.484000", "145556.436000", "145556.439000", "145556.441000", "145556.444000", "145556.446000", "145556.458000", "145556.460000", "145556.462000", "145556.465000", "145556.467000", "145556.470000", "145556.472000", "145556.475000", "145556.477000", "145556.480000", "145556.482000", "145556.485000", "145556.487000", "145556.490000", "145556.492000", "145616.436000", "145616.439000", "145616.441000", "145616.444000", "145616.446000", "145616.449000", "145616.452000", "145616.454000", "145616.457000", "145616.459000", "145616.462000", "145616.464000", "145616.467000", "145616.469000", "145616.472000", "145616.474000", "145616.477000", "145616.479000", "145616.482000", "145616.484000", "145636.436000", "145636.439000", "145636.441000", "145636.444000", "145636.447000", "145636.449000", "145636.452000", "145636.454000", "145636.457000", "145636.459000", "145636.462000", "145636.464000", "145636.467000", "145636.469000", "145636.472000", "145636.474000", "145636.477000", "145636.480000", "145636.482000", "145636.485000", "145656.435000", "145656.438000", "145656.440000", "145656.443000", "145656.445000", "145656.458000", "145656.461000", "145656.463000", "145656.466000", "145656.468000", "145656.471000", "145656.473000", "145656.476000", "145656.478000", "145656.480000", "145656.483000", "145656.485000", "145656.488000", "145656.490000", "145656.493000", "145716.436000", "145716.439000", "145716.442000", "145716.444000", "145716.447000", "145716.449000", "145716.451000", "145716.454000", "145716.456000", "145716.459000", "145716.461000", "145716.464000", "145716.466000", "145716.469000", "145716.471000", "145716.474000", "145716.476000", "145716.479000", "145716.481000", "145716.483000", "145736.436000", "145736.439000", "145736.442000", "145736.444000", "145736.447000", "145736.449000", "145736.452000", "145736.455000", "145736.457000", "145736.460000", "145736.462000", "145736.465000", "145736.467000", "145736.470000", "145736.472000", "145736.474000", "145736.477000", "145736.479000", "145736.482000", "145736.484000", "145756.436000", "145756.439000", "145756.441000", "145756.444000", "145756.447000", "145756.449000", "145756.451000", "145756.454000", "145756.457000", "145756.459000", "145756.461000", "145756.464000", "145756.467000", "145756.469000", "145756.472000", "145756.474000", "145756.477000", "145756.479000", "145756.482000", "145756.485000", "145816.436000", "145816.439000", "145816.441000", "145816.444000", "145816.446000", "145816.449000", "145816.451000", "145816.454000", "145816.456000", "145816.459000", "145816.461000", "145816.464000", "145816.466000", "145816.469000", "145816.471000", "145816.473000", "145816.476000", "145816.478000", "145816.481000", "145816.483000", "145830.059000", "145830.062000", "145830.064000", "145830.067000", "145830.069000", "145830.072000", "145830.075000", "145830.078000", "145830.080000", "145830.083000", "145830.086000", "145830.088000", "145830.091000", "145830.093000"],
