{
  "AcquisitionMatrixPE": 106,
  "AcquisitionNumber": 1,
  "AcquisitionTime": "15:04:14.110000",
  "BandwidthPerPixelPhaseEncode": 16.846,
  "BaseResolution": 106,
  "BodyPartExamined": "BRAIN",
  "CoilCombinationMethod": "Sum of Squares",
  "ConsistencyInfo": "N4_VE11C_LATEST_20160120",
  "ConversionSoftware": "dcm2niix",
  "ConversionSoftwareVersion": "v1.0.20220720",
  "DerivedVendorReportedEchoSpacing": 0.000560012,
  "DeviceSerialNumber": "166108",
  "DwellTime": 1.8e-06,
  "EchoTime": 0.0352,
  "EchoTrainLength": 106,
  "EffectiveEchoSpacing": 0.000560012,
  "FlipAngle": 60,
  "HeudiconvVersion": "1.3.0",
  "ImageComments": "Unaliased MB4/PE3/LB",
  "ImageOrientationPatientDICOM": [1, 0, 0, 0, 0.918446, -0.395546],
  "ImageOrientationText": "Tra>Cor(-23.3)",
  "ImageType": [
    "ORIGINAL",
    "PRIMARY",
    "M",
    "MB",
    "ND",
    "MOSAIC"
],
  "ImagingFrequency": 123.244,
  "InPlanePhaseEncodingDirectionDICOM": "COL",
  "InstitutionAddress": "Bedford Way 26,London,London,GB,WC1H 0AP",
  "InstitutionName": "University College",
  "InstitutionalDepartmentName": "Department",
  "MRAcquisitionType": "2D",
  "MagneticFieldStrength": 3,
  "Manufacturer": "Siemens",
  "ManufacturersModelName": "Prisma",
  "MatrixCoilMode": "SENSE",
  "Modality": "MR",
  "MultibandAccelerationFactor": 4,
  "NonlinearGradientCorrection": false,
  "PartialFourier": 1,
  "PatientPosition": "HFS",
  "PercentPhaseFOV": 100,
  "PercentSampling": 100,
  "PhaseEncodingDirection": "j-",
  "PhaseEncodingSteps": 106,
  "PhaseResolution": 1,
  "PixelBandwidth": 2620,
  "ProcedureStepDescription": "Egor^MovieProject2",
  "ProtocolName": "func-bold_task-pRF_run-01",
  "PulseSequenceDetails": "%CustomerSeq%\\cmrr_mbep2d_bold",
  "ReceiveCoilActiveElements": "HEA;HEP",
  "ReceiveCoilName": "Head_32",
  "ReconMatrixPE": 106,
  "RepetitionTime": 1,
  "SAR": 0.0726818,
  "ScanOptions": "FS\\EXT",
  "ScanningSequence": "EP",
  "SequenceName": "epfid2d1_106",
  "SequenceVariant": "SK\\SS",
  "SeriesDescription": "func-bold_task-pRF_run-01",
  "SeriesNumber": 12,
  "ShimSetting": [-1491, 596, 7440, 233, -94, 192, 199, -67],
  "SliceThickness": 2,
  "SliceTiming": [0, 0.4075, 0.815, 0.245, 0.6525, 0.08, 0.49, 0.8975, 0.325, 0.735, 0.1625, 0.57, 0, 0.4075, 0.815, 0.245, 0.6525, 0.08, 0.49, 0.8975, 0.325, 0.735, 0.1625, 0.57, 0, 0.4075, 0.815, 0.245, 0.6525, 0.08, 0.49, 0.8975, 0.325, 0.735, 0.1625, 0.57, 0, 0.4075, 0.815, 0.245, 0.6525, 0.08, 0.49, 0.8975, 0.325, 0.735, 0.1625, 0.57],
  "SoftwareVersions": "syngo MR E11",
  "SpacingBetweenSlices": 2,
  "StationName": "AWP166108",
  "TaskName": "retinotopy",
  "TotalReadoutTime": 0.0588013,
  "TxRefAmp": 252.208,
  "WipMemBlock": "227f62ca-a6c4-4566-88ac-6d6457f36c41||Sequence: R016 ve11c/master r/e634e98; Dec 19 2017 11:00:25 by eja",
  "dcmmeta_affine": [
    [-2.0, 0.0, 0.0, 106.0],
    [0.0, 1.8368927240371704, -0.7910910844802856, -71.3759765625],
    [0.0, 0.7910910844802856, 1.8368927240371704, -54.07720947265625],
    [0.0, 0.0, 0.0, 1.0]
],
  "dcmmeta_reorient_transform": [
    [0.0, -1.0, 0.0, 105.0],
    [1.0, 0.0, 0.0, 0.0],
    [0.0, 0.0, 1.0, 0.0],
    [0.0, 0.0, 0.0, 1.0]
],
  "dcmmeta_shape": [106, 106, 48, 356],
  "dcmmeta_slice_dim": 2,
  "dcmmeta_version": 0.6,
  "global": {
    "const": {
      "AcquisitionMatrix": [106, 0, 0, 106],
      "AngioFlag": "N",
      "BitsAllocated": 16,
      "BitsStored": 16,
      "BodyPartExamined": "BRAIN",
      "CardiacNumberOfImages": 1,
      "Columns": 742,
      "EchoNumbers": 1,
      "EchoTime": 35.2,
      "EchoTrainLength": 106,
      "FlipAngle": 60.0,
      "HighBit": 15,
      "ImageOrientationPatient": [1.0, 0.0, 0.0, 0.0, 0.91844636706283, -0.3955455357214],
      "ImagePositionPatient": [-742.0, -705.62965087856, 280.55431394873],
      "ImageType": [
        "ORIGINAL",
        "PRIMARY",
        "M",
        "MB",
        "ND",
        "MOSAIC"
],
      "ImagedNucleus": "1H",
      "ImagingFrequency": 123.2436,
      "InPlanePhaseEncodingDirection": "COL",
      "MRAcquisitionType": "2D",
      "MagneticFieldStrength": 3.0,
      "Manufacturer": "SIEMENS",
      "ManufacturerModelName": "Prisma",
      "Modality": "MR",
      "NominalInterval": 0,
      "NumberOfAverages": 1.0,
      "NumberOfPhaseEncodingSteps": 106,
      "PercentPhaseFieldOfView": 100.0,
      "PercentSampling": 100.0,
      "PerformedProcedureStepStartTime": "141427.159000",
      "PhotometricInterpretation": "MONOCHROME2",
      "PixelBandwidth": 2620.0,
      "PixelRepresentation": 0,
      "PixelSpacing": [2.0, 2.0],
      "ProtocolName": "func-bold_task-pRF_run-01",
      "RepetitionTime": 1000.0,
      "Rows": 742,
      "SAR": 0.07268184216692,
      "SamplesPerPixel": 1,
      "ScanOptions": [
        "FS",
        "EXT"
],
      "ScanningSequence": "EP",
      "SequenceName": "epfid2d1_106",
      "SequenceVariant": [
        "SK",
        "SS"
],
      "SeriesDescription": "func-bold_task-pRF_run-01",
      "SeriesNumber": 12,
      "SeriesTime": "150456.399000",
      "SliceLocation": -21.434567867622,
      "SliceThickness": 2.0,
      "SmallestImagePixelValue": 0,
      "SoftwareVersions": "syngo MR E11",
      "SpacingBetweenSlices": 2.0000000031002,
      "SpecificCharacterSet": "ISO_IR 100",
      "StudyID": "1",
      "StudyTime": "141427.092000",
      "TransmitCoilName": "Body",
      "VariableFlipAngleFlag": "N",
      "WindowCenterWidthExplanation": "Algo1",
      "dBdt": 0.0},
    "slices": {}
  },
  "time": {
    "samples": {
      "AcquisitionNumber": [1, 2, 3, 4, 5, 6, 7, 8, 9, 10, 11, 12, 13, 14, 15, 16, 17, 18, 19, 20, 21, 22, 23, 24, 25, 26, 27, 28, 29, 30, 31, 32, 33, 34, 35, 36, 37, 38, 39, 40, 41, 42, 43, 44, 45, 46, 47, 48, 49, 50, 51, 52, 53, 54, 55, 56, 57, 58, 59, 60, 61, 62, 63, 64, 65, 66, 67, 68, 69, 70, 71, 72, 73, 74, 75, 76, 77, 78, 79, 80, 81, 82, 83, 84, 85, 86, 87, 88, 89, 90, 91, 92, 93, 94, 95, 96, 97, 98, 99, 100, 101, 102, 103, 104, 105, 106, 107, 108, 109, 110, 111, 112, 113, 114, 115, 116, 117, 118, 119, 120, 121, 122, 123, 124, 125, 126, 127, 128, 129, 130, 131, 132, 133, 134, 135, 136, 137, 138, 139, 140, 141, 142, 143, 144, 145, 146, 147, 148, 149, 150, 151, 152, 153, 154, 155, 156, 157, 158, 159, 160, 161, 162, 163, 164, 165, 166, 167, 168, 169, 170, 171, 172, 173, 174, 175, 176, 177, 178, 179, 180, 181, 182, 183, 184, 185, 186, 187, 188, 189, 190, 191, 192, 193, 194, 195, 196, 197, 198, 199, 200, 201, 202, 203, 204, 205, 206, 207, 208, 209, 210, 211, 212, 213, 214, 215, 216, 217, 218, 219, 220, 221, 222, 223, 224, 225, 226, 227, 228, 229, 230, 231, 232, 233, 234, 235, 236, 237, 238, 239, 240, 241, 242, 243, 244, 245, 246, 247, 248, 249, 250, 251, 252, 253, 254, 255, 256, 257, 258, 259, 260, 261, 262, 263, 264, 265, 266, 267, 268, 269, 270, 271, 272, 273, 274, 275, 276, 277, 278, 279, 280, 281, 282, 283, 284, 285, 286, 287, 288, 289, 290, 291, 292, 293, 294, 295, 296, 297, 298, 299, 300, 301, 302, 303, 304, 305, 306, 307, 308, 309, 310, 311, 312, 313, 314, 315, 316, 317, 318, 319, 320, 321, 322, 323, 324, 325, 326, 327, 328, 329, 330, 331, 332, 333, 334, 335, 336, 337, 338, 339, 340, 341, 342, 343, 344, 345, 346, 347, 348, 349, 350, 351, 352, 353, 354, 355, 356],
      "AcquisitionTime": ["150414.110000", "150415.110000", "150416.110000", "150417.110000", "150418.110000", "150419.110000", "150420.110000", "150421.110000", "150422.110000", "150423.110000", "150424.110000", "150425.110000", "150426.110000", "150427.110000", "150428.110000", "150429.110000", "150430.110000", "150431.110000", "150432.110000", "150433.110000", "150434.110000", "150435.110000", "150436.110000", "150437.110000", "150438.110000", "150439.110000", "150440.110000", "150441.110000", "150442.110000", "150443.110000", "150444.110000", "150445.110000", "150446.110000", "150447.110000", "150448.110000", "150449.110000", "150450.110000", "150451.110000", "150452.110000", "150453.110000", "150454.110000", "150455.110000", "150456.110000", "150457.110000", "150458.110000", "150459.110000", "150500.110000", "150501.110000", "150502.110000", "150503.110000", "150504.110000", "150505.110000", "150506.110000", "150507.110000", "150508.110000", "150509.110000", "150510.110000", "150511.110000", "150512.110000", "150513.110000", "150514.110000", "150515.110000", "150516.110000", "150517.110000", "150518.110000", "150519.110000", "150520.110000", "150521.110000", "150522.110000", "150523.110000", "150524.110000", "150525.110000", "150526.110000", "150527.110000", "150528.110000", "150529.110000", "150530.110000", "150531.110000", "150532.110000", "150533.110000", "150534.110000", "150535.110000", "150536.110000", "150537.110000", "150538.110000", "150539.110000", "150540.110000", "150541.110000", "150542.110000", "150543.110000", "150544.110000", "150545.110000", "150546.110000", "150547.110000", "150548.110000", "150549.110000", "150550.110000", "150551.110000", "150552.110000", "150553.110000", "150554.110000", "150555.110000", "150556.110000", "150557.110000", "150558.110000", "150559.110000", "150600.110000", "150601.110000", "150602.110000", "150603.110000", "150604.110000", "150605.110000", "150606.110000", "150607.110000", "150608.110000", "150609.110000", "150610.110000", "150611.110000", "150612.110000", "150613.110000", "150614.110000", "150615.110000", "150616.110000", "150617.110000", "150618.110000", "150619.110000", "150620.110000", "150621.110000", "150622.110000", "150623.110000", "150624.110000", "150625.110000", "150626.110000", "150627.110000", "150628.110000", "150629.110000", "150630.110000", "150631.110000", "150632.110000", "150633.110000", "150634.110000", "150635.110000", "150636.110000", "150637.110000", "150638.110000", "150639.110000", "150640.110000", "150641.110000", "150642.110000", "150643.110000", "150644.110000", "150645.110000", "150646.110000", "150647.110000", "150648.110000", "150649.110000", "150650.110000", "150651.110000", "150652.110000", "150653.110000", "150654.110000", "150655.110000", "150656.110000", "150657.110000", "150658.110000", "150659.110000", "150700.110000", "150701.110000", "150702.110000", "150703.110000", "150704.110000", "150705.110000", "150706.110000", "150707.110000", "150708.110000", "150709.110000", "150710.110000", "150711.110000", "150712.110000", "150713.110000", "150714.110000", "150715.110000", "150716.110000", "150717.110000", "150718.110000", "150719.110000", "150720.110000", "150721.110000", "150722.110000", "150723.110000", "150724.110000", "150725.110000", "150726.110000", "150727.110000", "150728.110000", "150729.110000", "150730.110000", "150731.110000", "150732.110000", "150733.110000", "150734.110000", "150735.110000", "150736.110000", "150737.110000", "150738.110000", "150739.110000", "150740.110000", "150741.110000", "150742.110000", "150743.110000", "150744.110000", "150745.110000", "150746.110000", "150747.110000", "150748.110000", "150749.110000", "150750.110000", "150751.110000", "150752.110000", "150753.110000", "150754.110000", "150755.110000", "150756.110000", "150757.110000", "150758.110000", "150759.110000", "150800.110000", "150801.110000", "150802.110000", "150803.110000", "150804.110000", "150805.110000", "150806.110000", "150807.110000", "150808.110000", "150809.110000", "150810.110000", "150811.110000", "150812.110000", "150813.110000", "150814.110000", "150815.110000", "150816.110000", "150817.110000", "150818.110000", "150819.110000", "150820.110000", "150821.110000", "150822.110000", "150823.110000", "150824.110000", "150825.110000", "150826.110000", "150827.110000", "150828.110000", "150829.110000", "150830.110000", "150831.110000", "150832.110000", "150833.110000", "150834.110000", "150835.110000", "150836.110000", "150837.110000", "150838.110000", "150839.110000", "150840.110000", "150841.110000", "150842.110000", "150843.110000", "150844.110000", "150845.110000", "150846.110000", "150847.110000", "150848.110000", "150849.110000", "150850.110000", "150851.110000", "150852.110000", "150853.110000", "150854.110000", "150855.110000", "150856.110000", "150857.110000", "150858.110000", "150859.110000", "150900.110000", "150901.110000", "150902.110000", "150903.110000", "150904.110000", "150905.110000", "150906.110000", "150907.110000", "150908.110000", "150909.110000", "150910.110000", "150911.110000", "150912.110000", "150913.110000", "150914.110000", "150915.110000", "150916.110000", "150917.110000", "150918.110000", "150919.110000", "150920.110000", "150921.110000", "150922.110000", "150923.110000", "150924.110000", "150925.110000", "150926.110000", "150927.110000", "150928.110000", "150929.110000", "150930.110000", "150931.110000", "150932.110000", "150933.110000", "150934.110000", "150935.110000", "150936.110000", "150937.110000", "150938.110000", "150939.110000", "150940.110000", "150941.110000", "150942.110000", "150943.110000", "150944.110000", "150945.110000", "150946.110000", "150947.110000", "150948.110000", "150949.110000", "150950.110000", "150951.110000", "150952.110000", "150953.110000", "150954.110000", "150955.110000", "150956.110000", "150957.110000", "150958.110000", "150959.110000", "151000.110000", "151001.110000", "151002.110000", "151003.110000", "151004.110000", "151005.110000", "151006.110000", "151007.110000", "151008.110000", "151009.110000"],
      "ContentTime": ["150456.402000", "150456.405000", "150456.408000", "150456.411000", "150456.413000", "150456.416000", "150456.418000", "150456.421000", "150456.423000", "150456.426000", "150456.428000", "150456.431000", "150456.433000", "150456.436000", "150456.438000", "150456.441000", "150456.443000", "150456.446000", "150456.448000", "150456.451000", "150456.453000", "150456.456000", "150456.458000", "150456.460000", "150456.463000", "150456.465000", "150456.468000", "150456.470000", "150456.473000", "150456.476000", "150456.478000", "150456.480000", "150456.483000", "150456.486000", "150456.496000", "150456.498000", "150456.501000", "150456.503000", "150456.506000", "150456.508000", "150456.511000", "150516.373000", "150516.381000", "150516.383000", "150516.386000", "150516.388000", "150516.391000", "150516.393000", "150516.396000", "150516.398000", "150516.400000", "150516.403000", "150516.405000", "150516.408000", "150516.410000", "150516.413000", "150516.415000", "150516.418000", "150516.420000", "150516.423000", "150516.425000", "150536.373000", "150536.376000", "150536.378000", "150536.381000", "150536.384000", "150536.386000", "150536.389000", "150536.391000", "150536.394000", "150536.396000", "150536.399000", "150536.401000", "150536.404000", "150536.406000", "150536.409000", "150536.411000", "150536.414000", "150536.416000", "150536.419000", "150536.421000", "150556.374000", "150556.376000", "150556.379000", "150556.382000", "150556.385000", "150556.387000", "150556.390000", "150556.393000", "150556.395000", "150556.398000", "150556.401000", "150556.403000", "150556.406000", "150556.408000", "150556.411000", "150556.424000", "150556.427000", "150556.430000", "150556.432000", "150556.435000", "150616.373000", "150616.375000", "150616.378000", "150616.381000", "150616.383000", "150616.386000", "150616.388000", "150616.391000", "150616.393000", "150616.396000", "150616.398000", "150616.401000", "150616.403000", "150616.406000", "150616.408000", "150616.411000", "150616.413000", "150616.416000", "150616.418000", "150616.421000", "150636.373000", "150636.376000", "150636.379000", "150636.381000", "150636.384000", "150636.386000", "150636.389000", "150636.391000", "150636.394000", "150636.396000", "150636.399000", "150636.401000", "150636.404000", "150636.406000", "150636.409000", "150636.411000", "150636.414000", "150636.416000", "150636.419000", "150636.421000", "150656.374000", "150656.376000", "150656.379000", "150656.381000", "150656.384000", "150656.386000", "150656.388000", "150656.391000", "150656.393000", "150656.396000", "150656.398000", "150656.401000", "150656.403000", "150656.406000", "150656.408000", "150656.411000", "150656.413000", "150656.416000", "150656.418000", "150656.421000", "150716.373000", "150716.376000", "150716.378000", "150716.381000", "150716.383000", "150716.386000", "150716.388000", "150716.391000", "150716.404000", "150716.407000", "150716.409000", "150716.412000", "150716.414000", "150716.417000", "150716.419000", "150716.422000", "150716.424000", "150716.427000", "150716.429000", "150716.432000", "150736.374000", "150736.377000", "150736.379000", "150736.382000", "150736.385000", "150736.387000", "150736.390000", "150736.392000", "150736.395000", "150736.397000", "150736.400000", "150736.402000", "150736.405000", "150736.407000", "150736.410000", "150736.412000", "150736.415000", "150736.417000", "150736.420000", "150736.422000", "150756.373000", "150756.376000", "150756.379000", "150756.381000", "150756.384000", "150756.386000", "150756.389000", "150756.391000", "150756.394000", "150756.396000", "150756.399000", "150756.410000", "150756.412000", "150756.426000", "150756.429000", "150756.431000", "150756.434000", "150756.436000", "150756.439000", "150756.442000", "150816.373000", "150816.376000", "150816.378000", "150816.381000", "150816.383000", "150816.386000", "150816.388000", "150816.391000", "150816.393000", "150816.396000", "150816.398000", "150816.401000", "150816.403000", "150816.406000", "150816.408000", "150816.411000", "150816.413000", "150816.416000", "150816.418000", "150816.421000", "150836.372000", "150836.375000", "150836.378000", "150836.380000", "150836.383000", "150836.385000", "150836.388000", "150836.390000", "150836.393000", "150836.395000", "150836.397000", "150836.400000", "150836.402000", "150836.405000", "150836.407000", "150836.410000", "150836.412000", "150836.415000", "150836.417000", "150836.420000", "150856.374000", "150856.376000", "150856.379000", "150856.382000", "150856.384000", "150856.387000", "150856.389000", "150856.392000", "150856.394000", "150856.396000", "150856.399000", "150856.401000", "150856.404000", "150856.406000", "150856.409000", "150856.411000", "150856.414000", "150856.417000", "150856.419000", "150856.422000", "150916.373000", "150916.376000", "150916.379000", "150916.382000", "150916.384000", "150916.387000", "150916.390000", "150916.392000", "150916.395000", "150916.397000", "150916.400000", "150916.403000", "150916.405000", "150916.408000", "150916.411000", "150916.413000", "150916.416000", "150916.418000", "150916.421000", "150916.423000", "150936.374000", "150936.376000", "150936.379000", "150936.382000", "150936.384000", "150936.387000", "150936.389000", "150936.392000", "150936.395000", "150936.398000", "150936.400000", "150936.403000", "150936.405000", "150936.408000", "150936.411000", "150936.413000", "150936.416000", "150936.419000", "150936.421000", "150936.424000", "150956.373000", "150956.376000", "150956.379000", "150956.381000", "150956.384000", "150956.386000", "150956.389000", "150956.391000", "150956.394000", "150956.396000", "150956.399000", "150956.401000", "150956.403000", "150956.406000", "150956.408000", "150956.411000", "150956.413000", "150956.416000", "150956.419000", "150956.421000", "151011.108000", "151011.112000", "151011.114000", "151011.117000", "151011.120000", "151011.122000", "151011.125000", "151011.127000", "151011.130000", "151011.132000", "151011.135000", "151011.137000", "151011.146000", "151011.149000", "151011.151000"],
      "InstanceCreationTime": ["150456.402000", "150456.405000", "150456.408000", "150456.411000", "150456.413000", "150456.416000", "150456.418000", "150456.421000", "150456.423000", "150456.426000", "150456.428000", "150456.431000", "150456.433000", "150456.436000", "150456.438000", "150456.441000", "150456.443000", "150456.446000", "150456.448000", "150456.451000", "150456.453000", "150456.456000", "150456.458000", "150456.460000", "150456.463000", "150456.465000", "150456.468000", "150456.470000", "150456.473000", "150456.476000", "150456.478000", "150456.480000", "150456.483000", "150456.486000", "150456.496000", "150456.498000", "150456.501000", "150456.503000", "150456.506000", "150456.508000", "150456.511000", "150516.373000", "150516.381000", "150516.383000", "150516.386000", "150516.388000", "150516.391000", "150516.393000", "150516.396000", "150516.398000", "150516.400000", "150516.403000", "150516.405000", "150516.408000", "150516.410000", "150516.413000", "150516.415000", "150516.418000", "150516.420000", "150516.423000", "150516.425000", "150536.373000", "150536.376000", "150536.378000", "150536.381000", "150536.384000", "150536.386000", "150536.389000", "150536.391000", "150536.394000", "150536.396000", "150536.399000", "150536.401000", "150536.404000", "150536.406000", "150536.409000", "150536.411000", "150536.414000", "150536.416000", "150536.419000", "150536.421000", "150556.374000", "150556.376000", "150556.379000", "150556.382000", "150556.385000", "150556.387000", "150556.390000", "150556.393000", "150556.395000", "150556.398000", "150556.401000", "150556.403000", "150556.406000", "150556.408000", "150556.411000", "150556.424000", "150556.427000", "150556.430000", "150556.432000", "150556.435000", "150616.373000", "150616.375000", "150616.378000", "150616.381000", "150616.383000", "150616.386000", "150616.388000", "150616.391000", "150616.393000", "150616.396000", "150616.398000", "150616.401000", "150616.403000", "150616.406000", "150616.408000", "150616.411000", "150616.413000", "150616.416000", "150616.418000", "150616.421000", "150636.373000", "150636.376000", "150636.379000", "150636.381000", "150636.384000", "150636.386000", "150636.389000", "150636.391000", "150636.394000", "150636.396000", "150636.399000", "150636.401000", "150636.404000", "150636.406000", "150636.409000", "150636.411000", "150636.414000", "150636.416000", "150636.419000", "150636.421000", "150656.374000", "150656.376000", "150656.379000", "150656.381000", "150656.384000", "150656.386000", "150656.388000", "150656.391000", "150656.393000", "150656.396000", "150656.398000", "150656.401000", "150656.403000", "150656.406000", "150656.408000", "150656.411000", "150656.413000", "150656.416000", "150656.418000", "150656.421000", "150716.373000", "150716.376000", "150716.378000", "150716.381000", "150716.383000", "150716.386000", "150716.388000", "150716.391000", "150716.404000", "150716.407000", "150716.409000", "150716.412000", "150716.414000", "150716.417000", "150716.419000", "150716.422000", "150716.424000", "150716.427000", "150716.429000", "150716.432000", "150736.374000", "150736.377000", "150736.379000", "150736.382000", "150736.385000", "150736.387000", "150736.390000", "150736.392000", "150736.395000", "150736.397000", "150736.400000", "150736.402000", "150736.405000", "150736.407000", "150736.410000", "150736.412000", "150736.415000", "150736.417000", "150736.420000", "150736.422000", "150756.373000", "150756.376000", "150756.379000", "150756.381000", "150756.384000", "150756.386000", "150756.389000", "150756.391000", "150756.394000", "150756.396000", "150756.399000", "150756.410000", "150756.412000", "150756.426000", "150756.429000", "150756.431000", "150756.434000", "150756.436000", "150756.439000", "150756.442000", "150816.373000", "150816.376000", "150816.378000", "150816.381000", "150816.383000", "150816.386000", "150816.388000", "150816.391000", "150816.393000", "150816.396000", "150816.398000", "150816.401000", "150816.403000", "150816.406000", "150816.408000", "150816.411000", "150816.413000", "150816.416000", "150816.418000", "150816.421000", "150836.372000", "150836.375000", "150836.378000", "150836.380000", "150836.383000", "150836.385000", "150836.388000", "150836.390000", "150836.393000", "150836.395000", "150836.397000", "150836.400000", "150836.402000", "150836.405000", "150836.407000", "150836.410000", "150836.412000", "150836.415000", "150836.417000", "150836.420000", "150856.374000", "150856.376000", "150856.379000", "150856.382000", "150856.384000", "150856.387000", "150856.389000", "150856.392000", "150856.394000", "150856.396000", "150856.399000", "150856.401000", "150856.404000", "150856.406000", "150856.409000", "150856.411000", "150856.414000", "150856.417000", "150856.419000", "150856.422000", "150916.373000", "150916.376000", "150916.379000", "150916.382000", "150916.384000", "150916.387000", "150916.390000", "150916.392000", "150916.395000", "150916.397000", "150916.400000", "150916.403000", "150916.405000", "150916.408000", "150916.411000", "150916.413000", "150916.416000", "150916.418000", "150916.421000", "150916.423000", "150936.374000", "150936.376000", "150936.379000", "150936.382000", "150936.384000", "150936.387000", "150936.389000", "150936.392000", "150936.395000", "150936.398000", "150936.400000", "150936.403000", "150936.405000", "150936.408000", "150936.411000", "150936.413000", "150936.416000", "150936.419000", "150936.421000", "150936.424000", "150956.373000", "150956.376000", "150956.379000", "150956.381000", "150956.384000", "150956.386000", "150956.389000", "150956.391000", "150956.394000", "150956.396000", "150956.399000", "150956.401000", "150956.403000", "150956.406000", "150956.408000", "150956.411000", "150956.413000", "150956.416000", "150956.419000", "150956.421000", "151011.108000", "151011.112000", "151011.114000", "151011.117000", "151011.120000", "151011.122000", "151011.125000", "151011.127000", "151011.130000", "151011.132000", "151011.135000", "151011.137000", "151011.146000", "151011.149000", "151011.151000"],
      "InstanceNumber": [1, 2, 3, 4, 5, 6, 7, 8, 9, 10, 11, 12, 13, 14, 15, 16, 17, 18, 19, 20, 21, 22, 23, 24, 25, 26, 27, 28, 29, 30, 31, 32, 33, 34, 35, 36, 37, 38, 39, 40, 41, 42, 43, 44, 45, 46, 47, 48, 49, 50, 51, 52, 53, 54, 55, 56, 57, 58, 59, 60, 61, 62, 63, 64, 65, 66, 67, 68, 69, 70, 71, 72, 73, 74, 75, 76, 77, 78, 79, 80, 81, 82, 83, 84, 85, 86, 87, 88, 89, 90, 91, 92, 93, 94, 95, 96, 97, 98, 99, 100, 101, 102, 103, 104, 105, 106, 107, 108, 109, 110, 111, 112, 113, 114, 115, 116, 117, 118, 119, 120, 121, 122, 123, 124, 125, 126, 127, 128, 129, 130, 131, 132, 133, 134, 135, 136, 137, 138, 139, 140, 141, 142, 143, 144, 145, 146, 147, 148, 149, 150, 151, 152, 153, 154, 155, 156, 157, 158, 159, 160, 161, 162, 163, 164, 165, 166, 167, 168, 169, 170, 171, 172, 173, 174, 175, 176, 177, 178, 179, 180, 181, 182, 183, 184, 185, 186, 187, 188, 189, 190, 191, 192, 193, 194, 195, 196, 197, 198, 199, 200, 201, 202, 203, 204, 205, 206, 207, 208, 209, 210, 211, 212, 213, 214, 215, 216, 217, 218, 219, 220, 221, 222, 223, 224, 225, 226, 227, 228, 229, 230, 231, 232, 233, 234, 235, 236, 237, 238, 239, 240, 241, 242, 243, 244, 245, 246, 247, 248, 249, 250, 251, 252, 253, 254, 255, 256, 257, 258, 259, 260, 261, 262, 263, 264, 265, 266, 267, 268, 269, 270, 271, 272, 273, 274, 275, 276, 277, 278, 279, 280, 281, 282, 283, 284, 285, 286, 287, 288, 289, 290, 291, 292, 293, 294, 295, 296, 297, 298, 299, 300, 301, 302, 303, 304, 305, 306, 307, 308, 309, 310, 311, 312, 313, 314, 315, 316, 317, 318, 319, 320, 321, 322, 323, 324, 325, 326, 327, 328, 329, 330, 331, 332, 333, 334, 335, 336, 337, 338, 339, 340, 341, 342, 343, 344, 345, 346, 347, 348, 349, 350, 351, 352, 353, 354, 355, 356],
      "LargestImagePixelValue": [11282, 10946, 10934, 10536, 10503, 10710, 10491, 10383, 10707, 10616, 10575, 10663, 10517, 10645, 10701, 10532, 10713, 10518, 10571, 10820, 10515, 10609, 10620, 10496, 10689, 10646, 10433, 10640, 10563, 10469, 10827, 10634, 10478, 10772, 10473, 10498, 10623, 10435, 10698, 10732, 10440, 10584, 10548, 10511, 10590, 10572, 10498, 10735, 10611, 10413, 10401, 10538, 10639, 10446, 10456, 10647, 10488, 10360, 10540, 10534, 10176, 10366, 10629, 10260, 10489, 10438, 10386, 10409, 10553, 10400, 10249, 10613, 10556, 10246, 10616, 10661, 10496, 10573, 10423, 10499, 10596, 10403, 10557, 10503, 10464, 10431, 10443, 10328, 10554, 10576, 10251, 10494, 10518, 10396, 10539, 10300, 10256, 10415, 10388, 10333, 10497, 10429, 10326, 10497, 10419, 10282, 10321, 10260, 10327, 10422, 10272, 10363, 10486, 10223, 10342, 10382, 10160, 10227, 10380, 10134, 10296, 10440, 10371, 10432, 10326, 10400, 10293, 10134, 10252, 10303, 10166, 10412, 10248, 10259, 10263, 10197, 10193, 10366, 10255, 10260, 10403, 10115, 10224, 10319, 10432, 10246, 10348, 10212, 10285, 10373, 10195, 10301, 10354, 10200, 10267, 10227, 10330, 10435, 10181, 10306, 10305, 10201, 10294, 10340, 10114, 10323, 10254, 10096, 10323, 10260, 10279, 10316, 10263, 10274, 10261, 10282, 10249, 10263, 10094, 10259, 10413, 10270, 10225, 10306, 10159, 10177, 10203, 10207, 10325, 10345, 10140, 10357, 10245, 10358, 10292, 10221, 10147, 10173, 10202, 10221, 10290, 10267, 10154, 10308, 10415, 10260, 10406, 10240, 10393, 10661, 10224, 10358, 10249, 10208, 10534, 10275, 10302, 10245, 10270, 10260, 10262, 10157, 10414, 10322, 10318, 10369, 10304, 10432, 10389, 10308, 10449, 10272, 10425, 10548, 10408, 10352, 10544, 10424, 10319, 10666, 10360, 10339, 10525, 10332, 10361, 10446, 10360, 10410, 10487, 10226, 10553, 10470, 10390, 10530, 10232, 10450, 10456, 10313, 10497, 10443, 10395, 10474, 10391, 10430, 10566, 10394, 10604, 10372, 10395, 10620, 10489, 10690, 10411, 10410, 10527, 10400, 10572, 10390, 10387, 10588, 10444, 10436, 10446, 10513, 10693, 10341, 10446, 10550, 10461, 10681, 10590, 10600, 10573, 10372, 10517, 10363, 10387, 10492, 10632, 10554, 10596, 10663, 10362, 10509, 10581, 10385, 10621, 10502, 10446, 10603, 10329, 10434, 10614, 10414, 10634, 10721, 10457, 10587, 10583, 10363, 10654, 10598, 10489, 10541, 10434, 10542, 10486, 10460, 10464, 10508, 10663, 10630, 10347, 10597, 10520, 10522, 10675, 10545, 10585, 10483, 10483, 10579, 10416, 10578, 10630, 10350, 10616, 10588, 10564, 10677, 10808, 10615, 10472, 10646, 10502, 10647],
