{
  "AcquisitionMatrixPE": 106,
  "AcquisitionNumber": 1,
  "AcquisitionTime": "14:40:31.555000",
  "BandwidthPerPixelPhaseEncode": 13.477,
  "BaseResolution": 106,
  "BodyPartExamined": "BRAIN",
  "CoilCombinationMethod": "Sum of Squares",
  "ConsistencyInfo": "N4_VE11C_LATEST_20160120",
  "ConversionSoftware": "dcm2niix",
  "ConversionSoftwareVersion": "v1.0.20220720",
  "DerivedVendorReportedEchoSpacing": 0.000700005,
  "DeviceSerialNumber": "166108",
  "DwellTime": 2.6e-06,
  "EchoTime": 0.03,
  "EchoTrainLength": 80,
  "EffectiveEchoSpacing": 0.000700005,
  "FlipAngle": 62,
  "HeudiconvVersion": "1.3.0",
  "ImageComments": "Unaliased MB4/PE3/LB",
  "ImageOrientationPatientDICOM": [1, 0, 0, 0, 0.992966, -0.118404],
  "ImageOrientationText": "Tra>Cor(-6.8)",
  "ImageType": [
    "ORIGINAL",
    "PRIMARY",
    "M",
    "MB",
    "ND",
    "MOSAIC"
],
  "ImagingFrequency": 123.244,
  "InPlanePhaseEncodingDirectionDICOM": "COL",
  "InstitutionAddress": "Bedford Way 26,London,London,GB,WC1H 0AP",
  "InstitutionName": "University College",
  "InstitutionalDepartmentName": "Department",
  "MRAcquisitionType": "2D",
  "MagneticFieldStrength": 3,
  "Manufacturer": "Siemens",
  "ManufacturersModelName": "Prisma",
  "MatrixCoilMode": "SENSE",
  "Modality": "MR",
  "MultibandAccelerationFactor": 4,
  "NonlinearGradientCorrection": false,
  "PartialFourier": 0.75,
  "PatientPosition": "HFS",
  "PercentPhaseFOV": 100,
  "PercentSampling": 100,
  "PhaseEncodingDirection": "j-",
  "PhaseEncodingSteps": 80,
  "PhaseResolution": 1,
  "PixelBandwidth": 1815,
  "ProcedureStepDescription": "Egor^MovieProject2",
  "ProtocolName": "func-bold_task-motor_run-01",
  "PulseSequenceDetails": "%CustomerSeq%\\cmrr_mbep2d_bold",
  "ReceiveCoilActiveElements": "HEA;HEP",
  "ReceiveCoilName": "Head_32",
  "ReconMatrixPE": 106,
  "RepetitionTime": 1,
  "SAR": 0.040575,
  "ScanOptions": "PFP\\FS\\EXT",
  "ScanningSequence": "EP",
  "SequenceName": "epfid2d1_106",
  "SequenceVariant": "SK\\SS",
  "SeriesDescription": "func-bold_task-motor_run-01",
  "SeriesNumber": 4,
  "ShimSetting": [-1478, 598, 7420, 125, -98, 275, 151, -78],
  "SliceThickness": 2,
  "SliceTiming": [0, 0.5325, 0.0875, 0.6225, 0.1775, 0.7125, 0.2675, 0.8, 0.355, 0.89, 0.445, 0, 0.5325, 0.0875, 0.6225, 0.1775, 0.7125, 0.2675, 0.8, 0.355, 0.89, 0.445, 0, 0.5325, 0.0875, 0.6225, 0.1775, 0.7125, 0.2675, 0.8, 0.355, 0.89, 0.445, 0, 0.5325, 0.0875, 0.6225, 0.1775, 0.7125, 0.2675, 0.8, 0.355, 0.89, 0.445],
  "SoftwareVersions": "syngo MR E11",
  "SpacingBetweenSlices": 2,
  "StationName": "AWP166108",
  "TaskName": "somatotopy",
  "TotalReadoutTime": 0.0735005,
  "TxRefAmp": 252.208,
  "WipMemBlock": "114e3d2f-471e-4894-9a35-cdaebd5a08bc||Sequence: R016 ve11c/master r/e634e98; Dec 19 2017 11:00:25 by eja",
  "dcmmeta_affine": [
    [-2.0, 0.0, 0.0, 106.0],
    [0.0, 1.9859310388565063, -0.2368079423904419, -88.97704315185547],
    [0.0, 0.2368079274892807, 1.9859310388565063, -17.711528778076172],
    [0.0, 0.0, 0.0, 1.0]
],
  "dcmmeta_reorient_transform": [
    [0.0, -1.0, 0.0, 105.0],
    [1.0, 0.0, 0.0, 0.0],
    [0.0, 0.0, 1.0, 0.0],
    [0.0, 0.0, 0.0, 1.0]
],
  "dcmmeta_shape": [106, 106, 44, 467],
  "dcmmeta_slice_dim": 2,
  "dcmmeta_version": 0.6,
  "global": {
    "const": {
      "AcquisitionMatrix": [106, 0, 0, 106],
      "AngioFlag": "N",
      "BitsAllocated": 16,
      "BitsStored": 16,
      "BodyPartExamined": "BRAIN",
      "CardiacNumberOfImages": 1,
      "Columns": 742,
      "EchoNumbers": 1,
      "EchoTime": 30.0,
      "EchoTrainLength": 80,
      "FlipAngle": 62.0,
      "HighBit": 15,
      "ImageOrientationPatient": [1.0, 0.0, 0.0, 0.0, 0.99296550822323, -0.1184039673279],
      "ImagePositionPatient": [-742.0, -751.07177749348, 82.458227029825],
      "ImageType": [
        "ORIGINAL",
        "PRIMARY",
        "M",
        "MB",
        "ND",
        "MOSAIC"
],
      "ImagedNucleus": "1H",
      "ImagingFrequency": 123.243606,
      "InPlanePhaseEncodingDirection": "COL",
      "MRAcquisitionType": "2D",
      "MagneticFieldStrength": 3.0,
      "Manufacturer": "SIEMENS",
      "ManufacturerModelName": "Prisma",
      "Modality": "MR",
      "NominalInterval": 0,
      "NumberOfAverages": 1.0,
      "NumberOfPhaseEncodingSteps": 80,
      "PercentPhaseFieldOfView": 100.0,
      "PercentSampling": 100.0,
      "PerformedProcedureStepStartTime": "141427.159000",
      "PhotometricInterpretation": "MONOCHROME2",
      "PixelBandwidth": 1815.0,
      "PixelRepresentation": 0,
      "PixelSpacing": [2.0, 2.0],
      "ProtocolName": "func-bold_task-motor_run-01",
      "RepetitionTime": 1000.0,
      "Rows": 742,
      "SAR": 0.04057504569559,
      "SamplesPerPixel": 1,
      "ScanOptions": [
        "PFP",
        "FS",
        "EXT"
],
      "ScanningSequence": "EP",
      "SequenceName": "epfid2d1_106",
      "SequenceVariant": [
        "SK",
        "SS"
],
      "SeriesDescription": "func-bold_task-motor_run-01",
      "SeriesNumber": 4,
      "SeriesTime": "144100.964000",
      "SliceLocation": -7.0517028933597,
      "SliceThickness": 2.0,
      "SmallestImagePixelValue": 0,
      "SoftwareVersions": "syngo MR E11",
      "SpacingBetweenSlices": 2.0000000799924,
      "SpecificCharacterSet": "ISO_IR 100",
      "StudyID": "1",
      "StudyTime": "141427.092000",
      "TransmitCoilName": "Body",
      "VariableFlipAngleFlag": "N",
      "WindowCenterWidthExplanation": "Algo1",
      "dBdt": 0.0},
    "slices": {}
  },
  "time": {
    "samples": {
      "AcquisitionNumber": [1, 2, 3, 4, 5, 6, 7, 8, 9, 10, 11, 12, 13, 14, 15, 16, 17, 18, 19, 20, 21, 22, 23, 24, 25, 26, 27, 28, 29, 30, 31, 32, 33, 34, 35, 36, 37, 38, 39, 40, 41, 42, 43, 44, 45, 46, 47, 48, 49, 50, 51, 52, 53, 54, 55, 56, 57, 58, 59, 60, 61, 62, 63, 64, 65, 66, 67, 68, 69, 70, 71, 72, 73, 74, 75, 76, 77, 78, 79, 80, 81, 82, 83, 84, 85, 86, 87, 88, 89, 90, 91, 92, 93, 94, 95, 96, 97, 98, 99, 100, 101, 102, 103, 104, 105, 106, 107, 108, 109, 110, 111, 112, 113, 114, 115, 116, 117, 118, 119, 120, 121, 122, 123, 124, 125, 126, 127, 128, 129, 130, 131, 132, 133, 134, 135, 136, 137, 138, 139, 140, 141, 142, 143, 144, 145, 146, 147, 148, 149, 150, 151, 152, 153, 154, 155, 156, 157, 158, 159, 160, 161, 162, 163, 164, 165, 166, 167, 168, 169, 170, 171, 172, 173, 174, 175, 176, 177, 178, 179, 180, 181, 182, 183, 184, 185, 186, 187, 188, 189, 190, 191, 192, 193, 194, 195, 196, 197, 198, 199, 200, 201, 202, 203, 204, 205, 206, 207, 208, 209, 210, 211, 212, 213, 214, 215, 216, 217, 218, 219, 220, 221, 222, 223, 224, 225, 226, 227, 228, 229, 230, 231, 232, 233, 234, 235, 236, 237, 238, 239, 240, 241, 242, 243, 244, 245, 246, 247, 248, 249, 250, 251, 252, 253, 254, 255, 256, 257, 258, 259, 260, 261, 262, 263, 264, 265, 266, 267, 268, 269, 270, 271, 272, 273, 274, 275, 276, 277, 278, 279, 280, 281, 282, 283, 284, 285, 286, 287, 288, 289, 290, 291, 292, 293, 294, 295, 296, 297, 298, 299, 300, 301, 302, 303, 304, 305, 306, 307, 308, 309, 310, 311, 312, 313, 314, 315, 316, 317, 318, 319, 320, 321, 322, 323, 324, 325, 326, 327, 328, 329, 330, 331, 332, 333, 334, 335, 336, 337, 338, 339, 340, 341, 342, 343, 344, 345, 346, 347, 348, 349, 350, 351, 352, 353, 354, 355, 356, 357, 358, 359, 360, 361, 362, 363, 364, 365, 366, 367, 368, 369, 370, 371, 372, 373, 374, 375, 376, 377, 378, 379, 380, 381, 382, 383, 384, 385, 386, 387, 388, 389, 390, 391, 392, 393, 394, 395, 396, 397, 398, 399, 400, 401, 402, 403, 404, 405, 406, 407, 408, 409, 410, 411, 412, 413, 414, 415, 416, 417, 418, 419, 420, 421, 422, 423, 424, 425, 426, 427, 428, 429, 430, 431, 432, 433, 434, 435, 436, 437, 438, 439, 440, 441, 442, 443, 444, 445, 446, 447, 448, 449, 450, 451, 452, 453, 454, 455, 456, 457, 458, 459, 460, 461, 462, 463, 464, 465, 466, 467],
      "AcquisitionTime": ["144031.555000", "144032.555000", "144033.555000", "144034.555000", "144035.555000", "144036.555000", "144037.555000", "144038.555000", "144039.555000", "144040.555000", "144041.555000", "144042.555000", "144043.555000", "144044.555000", "144045.555000", "144046.555000", "144047.555000", "144048.555000", "144049.555000", "144050.555000", "144051.555000", "144052.555000", "144053.555000", "144054.555000", "144055.555000", "144056.555000", "144057.555000", "144058.555000", "144059.555000", "144100.555000", "144101.555000", "144102.555000", "144103.555000", "144104.555000", "144105.555000", "144106.555000", "144107.555000", "144108.555000", "144109.555000", "144110.555000", "144111.555000", "144112.555000", "144113.555000", "144114.555000", "144115.555000", "144116.555000", "144117.555000", "144118.555000", "144119.555000", "144120.555000", "144121.555000", "144122.555000", "144123.555000", "144124.555000", "144125.555000", "144126.555000", "144127.555000", "144128.555000", "144129.555000", "144130.555000", "144131.555000", "144132.555000", "144133.555000", "144134.555000", "144135.555000", "144136.555000", "144137.555000", "144138.555000", "144139.555000", "144140.555000", "144141.555000", "144142.555000", "144143.555000", "144144.555000", "144145.555000", "144146.555000", "144147.555000", "144148.555000", "144149.555000", "144150.555000", "144151.555000", "144152.555000", "144153.555000", "144154.555000", "144155.555000", "144156.555000", "144157.555000", "144158.555000", "144159.555000", "144200.555000", "144201.555000", "144202.555000", "144203.555000", "144204.555000", "144205.555000", "144206.555000", "144207.555000", "144208.555000", "144209.555000", "144210.555000", "144211.555000", "144212.555000", "144213.555000", "144214.555000", "144215.555000", "144216.555000", "144217.555000", "144218.555000", "144219.555000", "144220.555000", "144221.555000", "144222.555000", "144223.555000", "144224.555000", "144225.555000", "144226.555000", "144227.555000", "144228.555000", "144229.555000", "144230.555000", "144231.555000", "144232.555000", "144233.555000", "144234.555000", "144235.555000", "144236.555000", "144237.555000", "144238.555000", "144239.555000", "144240.555000", "144241.555000", "144242.555000", "144243.555000", "144244.555000", "144245.555000", "144246.555000", "144247.555000", "144248.555000", "144249.555000", "144250.555000", "144251.555000", "144252.555000", "144253.555000", "144254.555000", "144255.555000", "144256.555000", "144257.555000", "144258.555000", "144259.555000", "144300.555000", "144301.555000", "144302.555000", "144303.555000", "144304.555000", "144305.555000", "144306.555000", "144307.555000", "144308.555000", "144309.555000", "144310.555000", "144311.555000", "144312.555000", "144313.555000", "144314.555000", "144315.555000", "144316.555000", "144317.555000", "144318.555000", "144319.555000", "144320.555000", "144321.555000", "144322.555000", "144323.555000", "144324.555000", "144325.555000", "144326.555000", "144327.555000", "144328.555000", "144329.555000", "144330.555000", "144331.555000", "144332.555000", "144333.555000", "144334.555000", "144335.555000", "144336.555000", "144337.555000", "144338.555000", "144339.555000", "144340.555000", "144341.555000", "144342.555000", "144343.555000", "144344.555000", "144345.555000", "144346.555000", "144347.555000", "144348.555000", "144349.555000", "144350.555000", "144351.555000", "144352.555000", "144353.555000", "144354.555000", "144355.555000", "144356.555000", "144357.555000", "144358.555000", "144359.555000", "144400.555000", "144401.555000", "144402.555000", "144403.555000", "144404.555000", "144405.555000", "144406.555000", "144407.555000", "144408.555000", "144409.555000", "144410.555000", "144411.555000", "144412.555000", "144413.555000", "144414.555000", "144415.555000", "144416.555000", "144417.555000", "144418.555000", "144419.555000", "144420.555000", "144421.555000", "144422.555000", "144423.555000", "144424.555000", "144425.555000", "144426.555000", "144427.555000", "144428.555000", "144429.555000", "144430.555000", "144431.555000", "144432.555000", "144433.555000", "144434.555000", "144435.555000", "144436.555000", "144437.555000", "144438.555000", "144439.555000", "144440.555000", "144441.555000", "144442.555000", "144443.555000", "144444.555000", "144445.555000", "144446.555000", "144447.555000", "144448.555000", "144449.555000", "144450.555000", "144451.555000", "144452.555000", "144453.555000", "144454.555000", "144455.555000", "144456.555000", "144457.555000", "144458.555000", "144459.555000", "144500.555000", "144501.555000", "144502.555000", "144503.555000", "144504.555000", "144505.555000", "144506.555000", "144507.555000", "144508.555000", "144509.555000", "144510.555000", "144511.555000", "144512.555000", "144513.555000", "144514.555000", "144515.555000", "144516.555000", "144517.555000", "144518.555000", "144519.555000", "144520.555000", "144521.555000", "144522.555000", "144523.555000", "144524.555000", "144525.555000", "144526.555000", "144527.555000", "144528.555000", "144529.555000", "144530.555000", "144531.555000", "144532.555000", "144533.555000", "144534.555000", "144535.555000", "144536.555000", "144537.555000", "144538.555000", "144539.555000", "144540.555000", "144541.555000", "144542.555000", "144543.555000", "144544.555000", "144545.555000", "144546.555000", "144547.555000", "144548.555000", "144549.555000", "144550.555000", "144551.555000", "144552.555000", "144553.555000", "144554.555000", "144555.555000", "144556.555000", "144557.555000", "144558.555000", "144559.555000", "144600.555000", "144601.555000", "144602.555000", "144603.555000", "144604.555000", "144605.555000", "144606.555000", "144607.555000", "144608.555000", "144609.555000", "144610.555000", "144611.555000", "144612.555000", "144613.555000", "144614.555000", "144615.555000", "144616.555000", "144617.555000", "144618.555000", "144619.555000", "144620.555000", "144621.555000", "144622.555000", "144623.555000", "144624.555000", "144625.555000", "144626.555000", "144627.555000", "144628.555000", "144629.555000", "144630.555000", "144631.555000", "144632.555000", "144633.555000", "144634.555000", "144635.555000", "144636.555000", "144637.555000", "144638.555000", "144639.555000", "144640.555000", "144641.555000", "144642.555000", "144643.555000", "144644.555000", "144645.555000", "144646.555000", "144647.555000", "144648.555000", "144649.555000", "144650.555000", "144651.555000", "144652.555000", "144653.555000", "144654.555000", "144655.555000", "144656.555000", "144657.555000", "144658.555000", "144659.555000", "144700.555000", "144701.555000", "144702.555000", "144703.555000", "144704.555000", "144705.555000", "144706.555000", "144707.555000", "144708.555000", "144709.555000", "144710.555000", "144711.555000", "144712.555000", "144713.555000", "144714.555000", "144715.555000", "144716.555000", "144717.555000", "144718.555000", "144719.555000", "144720.555000", "144721.555000", "144722.555000", "144723.555000", "144724.555000", "144725.555000", "144726.555000", "144727.555000", "144728.555000", "144729.555000", "144730.555000", "144731.555000", "144732.555000", "144733.555000", "144734.555000", "144735.555000", "144736.555000", "144737.555000", "144738.555000", "144739.555000", "144740.555000", "144741.555000", "144742.555000", "144743.555000", "144744.555000", "144745.555000", "144746.555000", "144747.555000", "144748.555000", "144749.555000", "144750.555000", "144751.555000", "144752.555000", "144753.555000", "144754.555000", "144755.555000", "144756.555000", "144757.555000", "144758.555000", "144759.555000", "144800.555000", "144801.555000", "144802.555000", "144803.555000", "144804.555000", "144805.555000", "144806.555000", "144807.555000", "144808.555000", "144809.555000", "144810.555000", "144811.555000", "144812.555000", "144813.555000", "144814.555000", "144815.555000", "144816.555000", "144817.555000"],
      "ContentTime": ["144100.966000", "144100.969000", "144100.972000", "144100.974000", "144100.976000", "144100.979000", "144100.981000", "144100.984000", "144100.992000", "144100.994000", "144100.997000", "144101.000000", "144101.003000", "144101.005000", "144101.010000", "144101.013000", "144101.015000", "144101.018000", "144101.020000", "144101.023000", "144101.025000", "144101.028000", "144101.030000", "144101.033000", "144101.035000", "144101.037000", "144101.040000", "144101.042000", "144101.045000", "144120.942000", "144120.945000", "144120.947000", "144120.950000", "144120.952000", "144120.961000", "144120.963000", "144120.966000", "144120.968000", "144120.970000", "144120.973000", "144120.975000", "144120.978000", "144120.980000", "144120.983000", "144120.985000", "144120.988000", "144120.990000", "144120.993000", "144120.995000", "144140.941000", "144140.944000", "144140.950000", "144140.952000", "144140.955000", "144140.957000", "144140.960000", "144140.962000", "144140.965000", "144140.967000", "144140.969000", "144140.972000", "144140.974000", "144140.977000", "144140.979000", "144140.982000", "144140.984000", "144140.987000", "144140.989000", "144140.991000", "144200.941000", "144200.944000", "144200.946000", "144200.949000", "144200.951000", "144200.954000", "144200.956000", "144200.958000", "144200.961000", "144200.963000", "144200.966000", "144200.968000", "144200.971000", "144200.973000", "144200.975000", "144200.978000", "144200.980000", "144200.983000", "144200.985000", "144200.987000", "144220.941000", "144220.944000", "144220.947000", "144220.949000", "144220.951000", "144220.954000", "144220.956000", "144220.959000", "144220.961000", "144220.964000", "144220.966000", "144220.968000", "144220.971000", "144220.973000", "144220.976000", "144220.978000", "144220.981000", "144220.983000", "144220.993000", "144220.995000", "144240.941000", "144240.944000", "144240.946000", "144240.949000", "144240.951000", "144240.954000", "144240.956000", "144240.959000", "144240.961000", "144240.963000", "144240.966000", "144240.968000", "144240.971000", "144240.973000", "144240.976000", "144240.978000", "144240.980000", "144240.983000", "144240.985000", "144240.988000", "144300.942000", "144300.956000", "144300.958000", "144300.961000", "144300.963000", "144300.966000", "144300.968000", "144300.971000", "144300.973000", "144300.976000", "144300.978000", "144300.981000", "144300.983000", "144300.986000", "144300.988000", "144300.991000", "144300.993000", "144300.996000", "144300.998000", "144301.002000", "144320.942000", "144320.945000", "144320.948000", "144320.950000", "144320.953000", "144320.956000", "144320.958000", "144320.961000", "144320.963000", "144320.966000", "144320.968000", "144320.971000", "144320.974000", "144320.976000", "144320.979000", "144320.981000", "144320.983000", "144320.986000", "144320.988000", "144320.991000", "144340.942000", "144340.945000", "144340.947000", "144340.950000", "144340.952000", "144340.955000", "144340.957000", "144340.960000", "144340.962000", "144340.965000", "144340.974000", "144340.977000", "144340.979000", "144340.982000", "144340.984000", "144340.986000", "144340.989000", "144340.991000", "144340.994000", "144340.996000", "144400.941000", "144400.944000", "144400.946000", "144400.949000", "144400.951000", "144400.954000", "144400.956000", "144400.959000", "144400.961000", "144400.964000", "144400.966000", "144400.969000", "144400.971000", "144400.974000", "144400.976000", "144400.979000", "144400.981000", "144400.984000", "144400.986000", "144400.988000", "144420.941000", "144420.944000", "144420.946000", "144420.949000", "144420.951000", "144420.954000", "144420.956000", "144420.959000", "144420.961000", "144420.964000", "144420.966000", "144420.969000", "144420.971000", "144420.973000", "144420.976000", "144420.978000", "144420.981000", "144420.983000", "144420.986000", "144420.988000", "144440.941000", "144440.944000", "144440.946000", "144440.949000", "144440.951000", "144440.954000", "144440.956000", "144440.959000", "144440.961000", "144440.963000", "144440.966000", "144440.968000", "144440.971000", "144440.973000", "144440.976000", "144440.978000", "144440.981000", "144440.983000", "144440.985000", "144440.988000", "144500.941000", "144500.944000", "144500.946000", "144500.949000", "144500.951000", "144500.954000", "144500.956000", "144500.958000", "144500.961000", "144500.963000", "144500.966000", "144500.968000", "144500.971000", "144500.973000", "144500.976000", "144500.978000", "144500.980000", "144500.983000", "144500.985000", "144500.988000", "144520.943000", "144520.945000", "144520.948000", "144520.950000", "144520.952000", "144520.955000", "144520.957000", "144520.960000", "144520.962000", "144520.965000", "144520.967000", "144520.970000", "144520.972000", "144520.975000", "144520.977000", "144520.980000", "144520.982000", "144520.984000", "144520.987000", "144520.989000", "144540.942000", "144540.945000", "144540.947000", "144540.950000", "144540.953000", "144540.955000", "144540.958000", "144540.960000", "144540.963000", "144540.965000", "144540.968000", "144540.970000", "144540.973000", "144540.975000", "144540.978000", "144540.980000", "144540.983000", "144540.985000", "144540.987000", "144540.990000", "144600.942000", "144600.945000", "144600.948000", "144600.950000", "144600.953000", "144600.955000", "144600.958000", "144600.960000", "144600.962000", "144600.965000", "144600.967000", "144600.970000", "144600.972000", "144600.975000", "144600.977000", "144600.980000", "144600.982000", "144600.985000", "144600.987000", "144600.989000", "144620.941000", "144620.944000", "144620.946000", "144620.949000", "144620.951000", "144620.954000", "144620.956000", "144620.959000", "144620.961000", "144620.963000", "144620.966000", "144620.968000", "144620.971000", "144620.973000", "144620.976000", "144620.978000", "144620.981000", "144620.983000", "144620.985000", "144620.988000", "144640.941000", "144640.944000", "144640.946000", "144640.949000", "144640.951000", "144640.954000", "144640.956000", "144640.959000", "144640.961000", "144640.963000", "144640.966000", "144640.968000", "144640.971000", "144640.973000", "144640.976000", "144640.978000", "144640.981000", "144640.983000", "144640.986000", "144640.988000", "144700.941000", "144700.944000", "144700.946000", "144700.949000", "144700.951000", "144700.954000", "144700.956000", "144700.959000", "144700.962000", "144700.964000", "144700.967000", "144700.969000", "144700.972000", "144700.974000", "144700.976000", "144700.979000", "144700.981000", "144700.984000", "144700.986000", "144700.989000", "144720.942000", "144720.944000", "144720.947000", "144720.949000", "144720.951000", "144720.954000", "144720.957000", "144720.959000", "144720.961000", "144720.964000", "144720.966000", "144720.969000", "144720.971000", "144720.974000", "144720.976000", "144720.979000", "144720.981000", "144720.983000", "144720.987000", "144720.989000", "144740.942000", "144740.945000", "144740.948000", "144740.950000", "144740.953000", "144740.955000", "144740.958000", "144740.960000", "144740.963000", "144740.965000", "144740.967000", "144740.970000", "144740.972000", "144740.975000", "144740.977000", "144740.980000", "144740.982000", "144740.985000", "144740.987000", "144740.990000", "144800.942000", "144800.945000", "144800.947000", "144800.950000", "144800.952000", "144800.955000", "144800.958000", "144800.960000", "144800.963000", "144800.965000", "144800.968000", "144800.970000", "144800.973000", "144800.975000", "144800.978000", "144800.980000", "144800.982000", "144800.985000", "144800.987000", "144800.990000", "144818.657000", "144818.660000", "144818.663000", "144818.673000", "144818.675000", "144818.678000", "144818.680000", "144818.683000", "144818.685000", "144818.688000", "144818.690000", "144818.693000", "144818.696000", "144818.698000", "144818.700000", "144818.703000", "144818.705000", "144818.708000"],
