{
  "AcquisitionMatrixPE": 106,
  "AcquisitionNumber": 1,
  "AcquisitionTime": "15:16:37.437500",
  "BandwidthPerPixelPhaseEncode": 16.846,
  "BaseResolution": 106,
  "BodyPartExamined": "BRAIN",
  "CoilCombinationMethod": "Sum of Squares",
  "ConsistencyInfo": "N4_VE11C_LATEST_20160120",
  "ConversionSoftware": "dcm2niix",
  "ConversionSoftwareVersion": "v1.0.20220720",
  "DerivedVendorReportedEchoSpacing": 0.000560012,
  "DeviceSerialNumber": "166108",
  "DwellTime": 1.8e-06,
  "EchoTime": 0.0352,
  "EchoTrainLength": 106,
  "EffectiveEchoSpacing": 0.000560012,
  "FlipAngle": 60,
  "HeudiconvVersion": "1.3.0",
  "ImageComments": "Unaliased MB4/PE3/LB",
  "ImageOrientationPatientDICOM": [1, 0, 0, 0, 1, 0],
  "ImageOrientationText": "Tra",
  "ImageType": [
    "ORIGINAL",
    "PRIMARY",
    "M",
    "MB",
    "ND",
    "MOSAIC"
],
  "ImagingFrequency": 123.244,
  "InPlanePhaseEncodingDirectionDICOM": "COL",
  "InstitutionAddress": "Bedford Way 26,London,London,GB,WC1H 0AP",
  "InstitutionName": "University College",
  "InstitutionalDepartmentName": "Department",
  "MRAcquisitionType": "2D",
  "MagneticFieldStrength": 3,
  "Manufacturer": "Siemens",
  "ManufacturersModelName": "Prisma",
  "MatrixCoilMode": "SENSE",
  "Modality": "MR",
  "MultibandAccelerationFactor": 4,
  "NonlinearGradientCorrection": false,
  "PartialFourier": 1,
  "PatientPosition": "HFS",
  "PercentPhaseFOV": 100,
  "PercentSampling": 100,
  "PhaseEncodingDirection": "j-",
  "PhaseEncodingSteps": 106,
  "PhaseResolution": 1,
  "PixelBandwidth": 2620,
  "ProcedureStepDescription": "Egor^MovieProject2",
  "ProtocolName": "task-backtothefuture_run-3",
  "PulseSequenceDetails": "%CustomerSeq%\\cmrr_mbep2d_bold",
  "ReceiveCoilActiveElements": "HEA;HEP",
  "ReceiveCoilName": "Head_32",
  "ReconMatrixPE": 106,
  "RepetitionTime": 1.5,
  "SAR": 0.0768422,
  "ScanOptions": "FS\\EXT",
  "ScanningSequence": "EP",
  "SequenceName": "epfid2d1_106",
  "SequenceVariant": "SK\\SS",
  "SeriesDescription": "task-backtothefuture_run-3",
  "SeriesNumber": 11,
  "ShimSetting": [-1533, 673, 7369, 23, -91, 307, 129, -38],
  "SliceThickness": 2,
  "SliceTiming": [0, 1.07, 0.6575, 0.2475, 1.315, 0.905, 0.495, 0.0825, 1.1525, 0.74, 0.33, 1.3975, 0.9875, 0.575, 0.165, 1.235, 0.8225, 0.4125, 0, 1.07, 0.6575, 0.2475, 1.315, 0.905, 0.495, 0.0825, 1.1525, 0.74, 0.33, 1.3975, 0.9875, 0.575, 0.165, 1.235, 0.8225, 0.4125, 0, 1.07, 0.6575, 0.2475, 1.315, 0.905, 0.495, 0.0825, 1.1525, 0.74, 0.33, 1.3975, 0.9875, 0.575, 0.165, 1.235, 0.8225, 0.4125, 0, 1.07, 0.6575, 0.2475, 1.315, 0.905, 0.495, 0.0825, 1.1525, 0.74, 0.33, 1.3975, 0.9875, 0.575, 0.165, 1.235, 0.8225, 0.4125],
  "SoftwareVersions": "syngo MR E11",
  "SpacingBetweenSlices": 2,
  "StationName": "AWP166108",
  "TaskName": "backtothefuture",
  "TotalReadoutTime": 0.0588013,
  "TxRefAmp": 242.85,
  "WipMemBlock": "d7ef1f04-9727-46aa-99d1-afbef87054eb||Sequence: R016 ve11c/master r/e634e98; Dec 19 2017 11:00:25 by eja",
  "dcmmeta_affine": [
    [-2.0, 0.0, 0.0, 106.0],
    [0.0, 2.0, 0.0, -93.759033203125],
    [0.0, 0.0, 2.0, -63.77108383178711],
    [0.0, 0.0, 0.0, 1.0]
],
  "dcmmeta_reorient_transform": [
    [0.0, -1.0, 0.0, 105.0],
    [1.0, 0.0, 0.0, 0.0],
    [0.0, 0.0, 1.0, 0.0],
    [0.0, 0.0, 0.0, 1.0]
],
  "dcmmeta_shape": [106, 106, 72, 1608],
  "dcmmeta_slice_dim": 2,
  "dcmmeta_version": 0.6,
  "global": {
    "const": {
      "AcquisitionMatrix": [106, 0, 0, 106],
      "AngioFlag": "N",
      "BitsAllocated": 16,
      "BitsStored": 16,
      "BodyPartExamined": "BRAIN",
      "CardiacNumberOfImages": 1,
      "Columns": 954,
      "EchoNumbers": 1,
      "EchoTime": 35.2,
      "EchoTrainLength": 106,
      "FlipAngle": 60.0,
      "HighBit": 15,
      "ImageOrientationPatient": [1.0, 0.0, 0.0, 0.0, 1.0, 0.0],
      "ImagePositionPatient": [-954.0, -964.24096393585, -63.771083831787],
      "ImageType": [
        "ORIGINAL",
        "PRIMARY",
        "M",
        "MB",
        "ND",
        "MOSAIC"
],
      "ImagedNucleus": "1H",
      "ImagingFrequency": 123.243686,
      "InPlanePhaseEncodingDirection": "COL",
      "MRAcquisitionType": "2D",
      "MagneticFieldStrength": 3.0,
      "Manufacturer": "SIEMENS",
      "ManufacturerModelName": "Prisma",
      "Modality": "MR",
      "NominalInterval": 0,
      "NumberOfAverages": 1.0,
      "NumberOfPhaseEncodingSteps": 106,
      "PercentPhaseFieldOfView": 100.0,
      "PercentSampling": 100.0,
      "PerformedProcedureStepStartTime": "132905.661000",
      "PhotometricInterpretation": "MONOCHROME2",
      "PixelBandwidth": 2620.0,
      "PixelRepresentation": 0,
      "PixelSpacing": [2.0, 2.0],
      "ProtocolName": "task-backtothefuture_run-3",
      "RepetitionTime": 1500.0,
      "Rows": 954,
      "SAR": 0.07684223066642,
      "SamplesPerPixel": 1,
      "ScanOptions": [
        "FS",
        "EXT"
],
      "ScanningSequence": "EP",
      "SequenceName": "epfid2d1_106",
      "SequenceVariant": [
        "SK",
        "SS"
],
      "SeriesDescription": "task-backtothefuture_run-3",
      "SeriesNumber": 11,
      "SeriesTime": "151722.570000",
      "SliceLocation": -63.771083831787,
      "SliceThickness": 2.0,
      "SmallestImagePixelValue": 0,
      "SoftwareVersions": "syngo MR E11",
      "SpacingBetweenSlices": 1.9999999462719,
      "SpecificCharacterSet": "ISO_IR 100",
      "StudyID": "1",
      "StudyTime": "132905.185000",
      "TransmitCoilName": "Body",
      "VariableFlipAngleFlag": "N",
      "WindowCenterWidthExplanation": "Algo1",
      "dBdt": 0.0},
    "slices": {}
  },
  "time": {
    "samples": {
      "AcquisitionNumber": [1, 2, 3, 4, 5, 6, 7, 8, 9, 10, 11, 12, 13, 14, 15, 16, 17, 18, 19, 20, 21, 22, 23, 24, 25, 26, 27, 28, 29, 30, 31, 32, 33, 34, 35, 36, 37, 38, 39, 40, 41, 42, 43, 44, 45, 46, 47, 48, 49, 50, 51, 52, 53, 54, 55, 56, 57, 58, 59, 60, 61, 62, 63, 64, 65, 66, 67, 68, 69, 70, 71, 72, 73, 74, 75, 76, 77, 78, 79, 80, 81, 82, 83, 84, 85, 86, 87, 88, 89, 90, 91, 92, 93, 94, 95, 96, 97, 98, 99, 100, 101, 102, 103, 104, 105, 106, 107, 108, 109, 110, 111, 112, 113, 114, 115, 116, 117, 118, 119, 120, 121, 122, 123, 124, 125, 126, 127, 128, 129, 130, 131, 132, 133, 134, 135, 136, 137, 138, 139, 140, 141, 142, 143, 144, 145, 146, 147, 148, 149, 150, 151, 152, 153, 154, 155, 156, 157, 158, 159, 160, 161, 162, 163, 164, 165, 166, 167, 168, 169, 170, 171, 172, 173, 174, 175, 176, 177, 178, 179, 180, 181, 182, 183, 184, 185, 186, 187, 188, 189, 190, 191, 192, 193, 194, 195, 196, 197, 198, 199, 200, 201, 202, 203, 204, 205, 206, 207, 208, 209, 210, 211, 212, 213, 214, 215, 216, 217, 218, 219, 220, 221, 222, 223, 224, 225, 226, 227, 228, 229, 230, 231, 232, 233, 234, 235, 236, 237, 238, 239, 240, 241, 242, 243, 244, 245, 246, 247, 248, 249, 250, 251, 252, 253, 254, 255, 256, 257, 258, 259, 260, 261, 262, 263, 264, 265, 266, 267, 268, 269, 270, 271, 272, 273, 274, 275, 276, 277, 278, 279, 280, 281, 282, 283, 284, 285, 286, 287, 288, 289, 290, 291, 292, 293, 294, 295, 296, 297, 298, 299, 300, 301, 302, 303, 304, 305, 306, 307, 308, 309, 310, 311, 312, 313, 314, 315, 316, 317, 318, 319, 320, 321, 322, 323, 324, 325, 326, 327, 328, 329, 330, 331, 332, 333, 334, 335, 336, 337, 338, 339, 340, 341, 342, 343, 344, 345, 346, 347, 348, 349, 350, 351, 352, 353, 354, 355, 356, 357, 358, 359, 360, 361, 362, 363, 364, 365, 366, 367, 368, 369, 370, 371, 372, 373, 374, 375, 376, 377, 378, 379, 380, 381, 382, 383, 384, 385, 386, 387, 388, 389, 390, 391, 392, 393, 394, 395, 396, 397, 398, 399, 400, 401, 402, 403, 404, 405, 406, 407, 408, 409, 410, 411, 412, 413, 414, 415, 416, 417, 418, 419, 420, 421, 422, 423, 424, 425, 426, 427, 428, 429, 430, 431, 432, 433, 434, 435, 436, 437, 438, 439, 440, 441, 442, 443, 444, 445, 446, 447, 448, 449, 450, 451, 452, 453, 454, 455, 456, 457, 458, 459, 460, 461, 462, 463, 464, 465, 466, 467, 468, 469, 470, 471, 472, 473, 474, 475, 476, 477, 478, 479, 480, 481, 482, 483, 484, 485, 486, 487, 488, 489, 490, 491, 492, 493, 494, 495, 496, 497, 498, 499, 500, 501, 502, 503, 504, 505, 506, 507, 508, 509, 510, 511, 512, 513, 514, 515, 516, 517, 518, 519, 520, 521, 522, 523, 524, 525, 526, 527, 528, 529, 530, 531, 532, 533, 534, 535, 536, 537, 538, 539, 540, 541, 542, 543, 544, 545, 546, 547, 548, 549, 550, 551, 552, 553, 554, 555, 556, 557, 558, 559, 560, 561, 562, 563, 564, 565, 566, 567, 568, 569, 570, 571, 572, 573, 574, 575, 576, 577, 578, 579, 580, 581, 582, 583, 584, 585, 586, 587, 588, 589, 590, 591, 592, 593, 594, 595, 596, 597, 598, 599, 600, 601, 602, 603, 604, 605, 606, 607, 608, 609, 610, 611, 612, 613, 614, 615, 616, 617, 618, 619, 620, 621, 622, 623, 624, 625, 626, 627, 628, 629, 630, 631, 632, 633, 634, 635, 636, 637, 638, 639, 640, 641, 642, 643, 644, 645, 646, 647, 648, 649, 650, 651, 652, 653, 654, 655, 656, 657, 658, 659, 660, 661, 662, 663, 664, 665, 666, 667, 668, 669, 670, 671, 672, 673, 674, 675, 676, 677, 678, 679, 680, 681, 682, 683, 684, 685, 686, 687, 688, 689, 690, 691, 692, 693, 694, 695, 696, 697, 698, 699, 700, 701, 702, 703, 704, 705, 706, 707, 708, 709, 710, 711, 712, 713, 714, 715, 716, 717, 718, 719, 720, 721, 722, 723, 724, 725, 726, 727, 728, 729, 730, 731, 732, 733, 734, 735, 736, 737, 738, 739, 740, 741, 742, 743, 744, 745, 746, 747, 748, 749, 750, 751, 752, 753, 754, 755, 756, 757, 758, 759, 760, 761, 762, 763, 764, 765, 766, 767, 768, 769, 770, 771, 772, 773, 774, 775, 776, 777, 778, 779, 780, 781, 782, 783, 784, 785, 786, 787, 788, 789, 790, 791, 792, 793, 794, 795, 796, 797, 798, 799, 800, 801, 802, 803, 804, 805, 806, 807, 808, 809, 810, 811, 812, 813, 814, 815, 816, 817, 818, 819, 820, 821, 822, 823, 824, 825, 826, 827, 828, 829, 830, 831, 832, 833, 834, 835, 836, 837, 838, 839, 840, 841, 842, 843, 844, 845, 846, 847, 848, 849, 850, 851, 852, 853, 854, 855, 856, 857, 858, 859, 860, 861, 862, 863, 864, 865, 866, 867, 868, 869, 870, 871, 872, 873, 874, 875, 876, 877, 878, 879, 880, 881, 882, 883, 884, 885, 886, 887, 888, 889, 890, 891, 892, 893, 894, 895, 896, 897, 898, 899, 900, 901, 902, 903, 904, 905, 906, 907, 908, 909, 910, 911, 912, 913, 914, 915, 916, 917, 918, 919, 920, 921, 922, 923, 924, 925, 926, 927, 928, 929, 930, 931, 932, 933, 934, 935, 936, 937, 938, 939, 940, 941, 942, 943, 944, 945, 946, 947, 948, 949, 950, 951, 952, 953, 954, 955, 956, 957, 958, 959, 960, 961, 962, 963, 964, 965, 966, 967, 968, 969, 970, 971, 972, 973, 974, 975, 976, 977, 978, 979, 980, 981, 982, 983, 984, 985, 986, 987, 988, 989, 990, 991, 992, 993, 994, 995, 996, 997, 998, 999, 1000, 1001, 1002, 1003, 1004, 1005, 1006, 1007, 1008, 1009, 1010, 1011, 1012, 1013, 1014, 1015, 1016, 1017, 1018, 1019, 1020, 1021, 1022, 1023, 1024, 1025, 1026, 1027, 1028, 1029, 1030, 1031, 1032, 1033, 1034, 1035, 1036, 1037, 1038, 1039, 1040, 1041, 1042, 1043, 1044, 1045, 1046, 1047, 1048, 1049, 1050, 1051, 1052, 1053, 1054, 1055, 1056, 1057, 1058, 1059, 1060, 1061, 1062, 1063, 1064, 1065, 1066, 1067, 1068, 1069, 1070, 1071, 1072, 1073, 1074, 1075, 1076, 1077, 1078, 1079, 1080, 1081, 1082, 1083, 1084, 1085, 1086, 1087, 1088, 1089, 1090, 1091, 1092, 1093, 1094, 1095, 1096, 1097, 1098, 1099, 1100, 1101, 1102, 1103, 1104, 1105, 1106, 1107, 1108, 1109, 1110, 1111, 1112, 1113, 1114, 1115, 1116, 1117, 1118, 1119, 1120, 1121, 1122, 1123, 1124, 1125, 1126, 1127, 1128, 1129, 1130, 1131, 1132, 1133, 1134, 1135, 1136, 1137, 1138, 1139, 1140, 1141, 1142, 1143, 1144, 1145, 1146, 1147, 1148, 1149, 1150, 1151, 1152, 1153, 1154, 1155, 1156, 1157, 1158, 1159, 1160, 1161, 1162, 1163, 1164, 1165, 1166, 1167, 1168, 1169, 1170, 1171, 1172, 1173, 1174, 1175, 1176, 1177, 1178, 1179, 1180, 1181, 1182, 1183, 1184, 1185, 1186, 1187, 1188, 1189, 1190, 1191, 1192, 1193, 1194, 1195, 1196, 1197, 1198, 1199, 1200, 1201, 1202, 1203, 1204, 1205, 1206, 1207, 1208, 1209, 1210, 1211, 1212, 1213, 1214, 1215, 1216, 1217, 1218, 1219, 1220, 1221, 1222, 1223, 1224, 1225, 1226, 1227, 1228, 1229, 1230, 1231, 1232, 1233, 1234, 1235, 1236, 1237, 1238, 1239, 1240, 1241, 1242, 1243, 1244, 1245, 1246, 1247, 1248, 1249, 1250, 1251, 1252, 1253, 1254, 1255, 1256, 1257, 1258, 1259, 1260, 1261, 1262, 1263, 1264, 1265, 1266, 1267, 1268, 1269, 1270, 1271, 1272, 1273, 1274, 1275, 1276, 1277, 1278, 1279, 1280, 1281, 1282, 1283, 1284, 1285, 1286, 1287, 1288, 1289, 1290, 1291, 1292, 1293, 1294, 1295, 1296, 1297, 1298, 1299, 1300, 1301, 1302, 1303, 1304, 1305, 1306, 1307, 1308, 1309, 1310, 1311, 1312, 1313, 1314, 1315, 1316, 1317, 1318, 1319, 1320, 1321, 1322, 1323, 1324, 1325, 1326, 1327, 1328, 1329, 1330, 1331, 1332, 1333, 1334, 1335, 1336, 1337, 1338, 1339, 1340, 1341, 1342, 1343, 1344, 1345, 1346, 1347, 1348, 1349, 1350, 1351, 1352, 1353, 1354, 1355, 1356, 1357, 1358, 1359, 1360, 1361, 1362, 1363, 1364, 1365, 1366, 1367, 1368, 1369, 1370, 1371, 1372, 1373, 1374, 1375, 1376, 1377, 1378, 1379, 1380, 1381, 1382, 1383, 1384, 1385, 1386, 1387, 1388, 1389, 1390, 1391, 1392, 1393, 1394, 1395, 1396, 1397, 1398, 1399, 1400, 1401, 1402, 1403, 1404, 1405, 1406, 1407, 1408, 1409, 1410, 1411, 1412, 1413, 1414, 1415, 1416, 1417, 1418, 1419, 1420, 1421, 1422, 1423, 1424, 1425, 1426, 1427, 1428, 1429, 1430, 1431, 1432, 1433, 1434, 1435, 1436, 1437, 1438, 1439, 1440, 1441, 1442, 1443, 1444, 1445, 1446, 1447, 1448, 1449, 1450, 1451, 1452, 1453, 1454, 1455, 1456, 1457, 1458, 1459, 1460, 1461, 1462, 1463, 1464, 1465, 1466, 1467, 1468, 1469, 1470, 1471, 1472, 1473, 1474, 1475, 1476, 1477, 1478, 1479, 1480, 1481, 1482, 1483, 1484, 1485, 1486, 1487, 1488, 1489, 1490, 1491, 1492, 1493, 1494, 1495, 1496, 1497, 1498, 1499, 1500, 1501, 1502, 1503, 1504, 1505, 1506, 1507, 1508, 1509, 1510, 1511, 1512, 1513, 1514, 1515, 1516, 1517, 1518, 1519, 1520, 1521, 1522, 1523, 1524, 1525, 1526, 1527, 1528, 1529, 1530, 1531, 1532, 1533, 1534, 1535, 1536, 1537, 1538, 1539, 1540, 1541, 1542, 1543, 1544, 1545, 1546, 1547, 1548, 1549, 1550, 1551, 1552, 1553, 1554, 1555, 1556, 1557, 1558, 1559, 1560, 1561, 1562, 1563, 1564, 1565, 1566, 1567, 1568, 1569, 1570, 1571, 1572, 1573, 1574, 1575, 1576, 1577, 1578, 1579, 1580, 1581, 1582, 1583, 1584, 1585, 1586, 1587, 1588, 1589, 1590, 1591, 1592, 1593, 1594, 1595, 1596, 1597, 1598, 1599, 1600, 1601, 1602, 1603, 1604, 1605, 1606, 1607, 1608],
      "AcquisitionTime": ["151637.437500", "151638.937500", "151640.437500", "151641.937500", "151643.437500", "151644.937500", "151646.437500", "151647.937500", "151649.437500", "151650.937500", "151652.437500", "151653.937500", "151655.437500", "151656.937500", "151658.437500", "151659.937500", "151701.437500", "151702.937500", "151704.437500", "151705.937500", "151707.437500", "151708.937500", "151710.437500", "151711.937500", "151713.437500", "151714.937500", "151716.437500", "151717.937500", "151719.437500", "151720.937500", "151722.437500", "151723.937500", "151725.437500", "151726.937500", "151728.437500", "151729.937500", "151731.437500", "151732.937500", "151734.437500", "151735.937500", "151737.437500", "151738.937500", "151740.437500", "151741.937500", "151743.437500", "151744.937500", "151746.437500", "151747.937500", "151749.437500", "151750.937500", "151752.437500", "151753.937500", "151755.437500", "151756.937500", "151758.437500", "151759.937500", "151801.437500", "151802.937500", "151804.437500", "151805.937500", "151807.437500", "151808.937500", "151810.437500", "151811.937500", "151813.437500", "151814.937500", "151816.437500", "151817.937500", "151819.437500", "151820.937500", "151822.437500", "151823.937500", "151825.437500", "151826.937500", "151828.437500", "151829.937500", "151831.437500", "151832.937500", "151834.437500", "151835.937500", "151837.437500", "151838.937500", "151840.437500", "151841.937500", "151843.437500", "151844.937500", "151846.437500", "151847.937500", "151849.437500", "151850.937500", "151852.437500", "151853.937500", "151855.437500", "151856.937500", "151858.437500", "151859.937500", "151901.437500", "151902.937500", "151904.437500", "151905.937500", "151907.437500", "151908.937500", "151910.437500", "151911.937500", "151913.437500", "151914.937500", "151916.437500", "151917.937500", "151919.437500", "151920.937500", "151922.437500", "151923.937500", "151925.437500", "151926.937500", "151928.437500", "151929.937500", "151931.437500", "151932.937500", "151934.437500", "151935.937500", "151937.437500", "151938.937500", "151940.437500", "151941.937500", "151943.437500", "151944.937500", "151946.437500", "151947.937500", "151949.437500", "151950.937500", "151952.437500", "151953.937500", "151955.437500", "151956.937500", "151958.437500", "151959.937500", "152001.437500", "152002.937500", "152004.437500", "152005.937500", "152007.437500", "152008.937500", "152010.437500", "152011.937500", "152013.437500", "152014.937500", "152016.437500", "152017.937500", "152019.437500", "152020.937500", "152022.437500", "152023.937500", "152025.437500", "152026.937500", "152028.437500", "152029.937500", "152031.437500", "152032.937500", "152034.437500", "152035.937500", "152037.437500", "152038.937500", "152040.437500", "152041.937500", "152043.437500", "152044.937500", "152046.437500", "152047.937500", "152049.437500", "152050.937500", "152052.437500", "152053.937500", "152055.437500", "152056.937500", "152058.437500", "152059.937500", "152101.437500", "152102.937500", "152104.437500", "152105.937500", "152107.437500", "152108.937500", "152110.437500", "152111.937500", "152113.437500", "152114.937500", "152116.437500", "152117.937500", "152119.437500", "152120.937500", "152122.437500", "152123.937500", "152125.437500", "152126.937500", "152128.437500", "152129.937500", "152131.437500", "152132.937500", "152134.437500", "152135.937500", "152137.437500", "152138.937500", "152140.437500", "152141.937500", "152143.437500", "152144.937500", "152146.437500", "152147.937500", "152149.437500", "152150.937500", "152152.437500", "152153.937500", "152155.437500", "152156.937500", "152158.437500", "152159.937500", "152201.437500", "152202.937500", "152204.437500", "152205.937500", "152207.437500", "152208.937500", "152210.437500", "152211.937500", "152213.437500", "152214.937500", "152216.437500", "152217.937500", "152219.437500", "152220.937500", "152222.437500", "152223.937500", "152225.437500", "152226.937500", "152228.437500", "152229.937500", "152231.437500", "152232.937500", "152234.437500", "152235.937500", "152237.437500", "152238.937500", "152240.437500", "152241.937500", "152243.437500", "152244.937500", "152246.437500", "152247.937500", "152249.437500", "152250.937500", "152252.437500", "152253.937500", "152255.437500", "152256.937500", "152258.437500", "152259.937500", "152301.437500", "152302.937500", "152304.437500", "152305.937500", "152307.437500", "152308.937500", "152310.437500", "152311.937500", "152313.437500", "152314.937500", "152316.437500", "152317.937500", "152319.437500", "152320.937500", "152322.437500", "152323.937500", "152325.437500", "152326.937500", "152328.437500", "152329.937500", "152331.437500", "152332.937500", "152334.437500", "152335.937500", "152337.437500", "152338.937500", "152340.437500", "152341.937500", "152343.437500", "152344.937500", "152346.437500", "152347.937500", "152349.437500", "152350.937500", "152352.437500", "152353.937500", "152355.437500", "152356.937500", "152358.437500", "152359.937500", "152401.437500", "152402.937500", "152404.437500", "152405.937500", "152407.437500", "152408.937500", "152410.437500", "152411.937500", "152413.437500", "152414.937500", "152416.437500", "152417.937500", "152419.437500", "152420.937500", "152422.437500", "152423.937500", "152425.437500", "152426.937500", "152428.437500", "152429.937500", "152431.437500", "152432.937500", "152434.437500", "152435.937500", "152437.437500", "152438.937500", "152440.437500", "152441.937500", "152443.437500", "152444.937500", "152446.437500", "152447.937500", "152449.437500", "152450.937500", "152452.437500", "152453.937500", "152455.437500", "152456.937500", "152458.437500", "152459.937500", "152501.437500", "152502.937500", "152504.437500", "152505.937500", "152507.437500", "152508.937500", "152510.437500", "152511.937500", "152513.437500", "152514.937500", "152516.437500", "152517.937500", "152519.437500", "152520.937500", "152522.437500", "152523.937500", "152525.437500", "152526.937500", "152528.437500", "152529.937500", "152531.437500", "152532.937500", "152534.437500", "152535.937500", "152537.437500", "152538.937500", "152540.437500", "152541.937500", "152543.437500", "152544.937500", "152546.437500", "152547.937500", "152549.437500", "152550.937500", "152552.437500", "152553.937500", "152555.437500", "152556.937500", "152558.437500", "152559.937500", "152601.437500", "152602.937500", "152604.437500", "152605.937500", "152607.437500", "152608.937500", "152610.437500", "152611.937500", "152613.437500", "152614.937500", "152616.437500", "152617.937500", "152619.437500", "152620.937500", "152622.437500", "152623.937500", "152625.437500", "152626.937500", "152628.437500", "152629.937500", "152631.437500", "152632.937500", "152634.437500", "152635.937500", "152637.437500", "152638.937500", "152640.437500", "152641.937500", "152643.437500", "152644.937500", "152646.437500", "152647.937500", "152649.437500", "152650.937500", "152652.437500", "152653.937500", "152655.437500", "152656.937500", "152658.437500", "152659.937500", "152701.437500", "152702.937500", "152704.437500", "152705.937500", "152707.437500", "152708.937500", "152710.437500", "152711.937500", "152713.437500", "152714.937500", "152716.437500", "152717.937500", "152719.437500", "152720.937500", "152722.437500", "152723.937500", "152725.437500", "152726.937500", "152728.437500", "152729.937500", "152731.437500", "152732.937500", "152734.437500", "152735.937500", "152737.437500", "152738.937500", "152740.437500", "152741.937500", "152743.437500", "152744.937500", "152746.437500", "152747.937500", "152749.437500", "152750.937500", "152752.437500", "152753.937500", "152755.437500", "152756.937500", "152758.437500", "152759.937500", "152801.437500", "152802.937500", "152804.437500", "152805.937500", "152807.437500", "152808.937500", "152810.437500", "152811.937500", "152813.437500", "152814.937500", "152816.437500", "152817.937500", "152819.437500", "152820.937500", "152822.437500", "152823.937500", "152825.437500", "152826.937500", "152828.437500", "152829.937500", "152831.437500", "152832.937500", "152834.437500", "152835.937500", "152837.437500", "152838.937500", "152840.437500", "152841.937500", "152843.437500", "152844.937500", "152846.437500", "152847.937500", "152849.437500", "152850.937500", "152852.437500", "152853.937500", "152855.437500", "152856.937500", "152858.437500", "152859.937500", "152901.437500", "152902.937500", "152904.437500", "152905.937500", "152907.437500", "152908.937500", "152910.437500", "152911.937500", "152913.437500", "152914.937500", "152916.437500", "152917.937500", "152919.437500", "152920.937500", "152922.437500", "152923.937500", "152925.437500", "152926.937500", "152928.437500", "152929.937500", "152931.437500", "152932.937500", "152934.437500", "152935.937500", "152937.437500", "152938.937500", "152940.437500", "152941.937500", "152943.437500", "152944.937500", "152946.437500", "152947.937500", "152949.437500", "152950.937500", "152952.437500", "152953.937500", "152955.437500", "152956.937500", "152958.437500", "152959.937500", "153001.437500", "153002.937500", "153004.437500", "153005.937500", "153007.437500", "153008.937500", "153010.437500", "153011.937500", "153013.437500", "153014.937500", "153016.437500", "153017.937500", "153019.437500", "153020.937500", "153022.437500", "153023.937500", "153025.437500", "153026.937500", "153028.437500", "153029.937500", "153031.437500", "153032.937500", "153034.437500", "153035.937500", "153037.437500", "153038.937500", "153040.437500", "153041.937500", "153043.437500", "153044.937500", "153046.437500", "153047.937500", "153049.437500", "153050.937500", "153052.437500", "153053.937500", "153055.437500", "153056.937500", "153058.437500", "153059.937500", "153101.437500", "153102.937500", "153104.437500", "153105.937500", "153107.437500", "153108.937500", "153110.437500", "153111.937500", "153113.437500", "153114.937500", "153116.437500", "153117.937500", "153119.437500", "153120.937500", "153122.437500", "153123.937500", "153125.437500", "153126.937500", "153128.437500", "153129.937500", "153131.437500", "153132.937500", "153134.437500", "153135.937500", "153137.437500", "153138.937500", "153140.437500", "153141.937500", "153143.437500", "153144.937500", "153146.437500", "153147.937500", "153149.437500", "153150.937500", "153152.437500", "153153.937500", "153155.437500", "153156.937500", "153158.437500", "153159.937500", "153201.437500", "153202.937500", "153204.437500", "153205.937500", "153207.437500", "153208.937500", "153210.437500", "153211.937500", "153213.437500", "153214.937500", "153216.437500", "153217.937500", "153219.437500", "153220.937500", "153222.437500", "153223.937500", "153225.437500", "153226.937500", "153228.437500", "153229.937500", "153231.437500", "153232.937500", "153234.437500", "153235.937500", "153237.437500", "153238.937500", "153240.437500", "153241.937500", "153243.437500", "153244.937500", "153246.437500", "153247.937500", "153249.437500", "153250.937500", "153252.437500", "153253.937500", "153255.437500", "153256.937500", "153258.437500", "153259.937500", "153301.437500", "153302.937500", "153304.437500", "153305.937500", "153307.437500", "153308.937500", "153310.437500", "153311.937500", "153313.437500", "153314.937500", "153316.437500", "153317.937500", "153319.437500", "153320.937500", "153322.437500", "153323.937500", "153325.437500", "153326.937500", "153328.437500", "153329.937500", "153331.437500", "153332.937500", "153334.437500", "153335.937500", "153337.437500", "153338.937500", "153340.437500", "153341.937500", "153343.437500", "153344.937500", "153346.437500", "153347.937500", "153349.437500", "153350.937500", "153352.437500", "153353.937500", "153355.437500", "153356.937500", "153358.437500", "153359.937500", "153401.437500", "153402.937500", "153404.437500", "153405.937500", "153407.437500", "153408.937500", "153410.437500", "153411.937500", "153413.437500", "153414.937500", "153416.437500", "153417.937500", "153419.437500", "153420.937500", "153422.437500", "153423.937500", "153425.437500", "153426.937500", "153428.437500", "153429.937500", "153431.437500", "153432.937500", "153434.437500", "153435.937500", "153437.437500", "153438.937500", "153440.437500", "153441.937500", "153443.437500", "153444.937500", "153446.437500", "153447.937500", "153449.437500", "153450.937500", "153452.437500", "153453.937500", "153455.437500", "153456.937500", "153458.437500", "153459.937500", "153501.437500", "153502.937500", "153504.437500", "153505.937500", "153507.437500", "153508.937500", "153510.437500", "153511.937500", "153513.437500", "153514.937500", "153516.437500", "153517.937500", "153519.437500", "153520.937500", "153522.437500", "153523.937500", "153525.437500", "153526.937500", "153528.437500", "153529.937500", "153531.437500", "153532.937500", "153534.437500", "153535.937500", "153537.437500", "153538.937500", "153540.437500", "153541.937500", "153543.437500", "153544.937500", "153546.437500", "153547.937500", "153549.437500", "153550.937500", "153552.437500", "153553.937500", "153555.437500", "153556.937500", "153558.437500", "153559.937500", "153601.437500", "153602.937500", "153604.437500", "153605.937500", "153607.437500", "153608.937500", "153610.437500", "153611.937500", "153613.437500", "153614.937500", "153616.437500", "153617.937500", "153619.437500", "153620.937500", "153622.437500", "153623.937500", "153625.437500", "153626.937500", "153628.437500", "153629.937500", "153631.437500", "153632.937500", "153634.437500", "153635.937500", "153637.437500", "153638.937500", "153640.437500", "153641.937500", "153643.437500", "153644.937500", "153646.437500", "153647.937500", "153649.437500", "153650.937500", "153652.437500", "153653.937500", "153655.437500", "153656.937500", "153658.437500", "153659.937500", "153701.437500", "153702.937500", "153704.437500", "153705.937500", "153707.437500", "153708.937500", "153710.437500", "153711.937500", "153713.437500", "153714.937500", "153716.437500", "153717.937500", "153719.437500", "153720.937500", "153722.437500", "153723.937500", "153725.437500", "153726.937500", "153728.437500", "153729.937500", "153731.437500", "153732.937500", "153734.437500", "153735.937500", "153737.437500", "153738.937500", "153740.437500", "153741.937500", "153743.437500", "153744.937500", "153746.437500", "153747.937500", "153749.437500", "153750.937500", "153752.437500", "153753.937500", "153755.437500", "153756.937500", "153758.437500", "153759.937500", "153801.437500", "153802.937500", "153804.437500", "153805.937500", "153807.437500", "153808.937500", "153810.437500", "153811.937500", "153813.437500", "153814.937500", "153816.437500", "153817.937500", "153819.437500", "153820.937500", "153822.437500", "153823.937500", "153825.437500", "153826.937500", "153828.437500", "153829.937500", "153831.437500", "153832.937500", "153834.437500", "153835.937500", "153837.437500", "153838.937500", "153840.437500", "153841.937500", "153843.437500", "153844.937500", "153846.437500", "153847.937500", "153849.437500", "153850.937500", "153852.437500", "153853.937500", "153855.437500", "153856.937500", "153858.437500", "153859.937500", "153901.437500", "153902.937500", "153904.437500", "153905.937500", "153907.437500", "153908.937500", "153910.437500", "153911.937500", "153913.437500", "153914.937500", "153916.437500", "153917.937500", "153919.437500", "153920.937500", "153922.437500", "153923.937500", "153925.437500", "153926.937500", "153928.437500", "153929.937500", "153931.437500", "153932.937500", "153934.437500", "153935.937500", "153937.437500", "153938.937500", "153940.437500", "153941.937500", "153943.437500", "153944.937500", "153946.437500", "153947.937500", "153949.437500", "153950.937500", 