{
  "AcquisitionMatrixPE": 106,
  "AcquisitionNumber": 1,
  "AcquisitionTime": "12:43:52.345000",
  "BandwidthPerPixelPhaseEncode": 16.846,
  "BaseResolution": 106,
  "BodyPartExamined": "BRAIN",
  "CoilCombinationMethod": "Sum of Squares",
  "ConsistencyInfo": "N4_VE11C_LATEST_20160120",
  "ConversionSoftware": "dcm2niix",
  "ConversionSoftwareVersion": "v1.0.20220720",
  "DerivedVendorReportedEchoSpacing": 0.000560012,
  "DeviceSerialNumber": "166108",
  "DwellTime": 1.8e-06,
  "EchoTime": 0.0352,
  "EchoTrainLength": 106,
  "EffectiveEchoSpacing": 0.000560012,
  "FlipAngle": 60,
  "HeudiconvVersion": "1.3.0",
  "ImageComments": "Unaliased MB4/PE3/LB",
  "ImageOrientationPatientDICOM": [1, 0, 0, 0, 1, 0],
  "ImageOrientationText": "Tra",
  "ImageType": [
    "ORIGINAL",
    "PRIMARY",
    "M",
    "MB",
    "ND",
    "MOSAIC"
],
  "ImagingFrequency": 123.244,
  "InPlanePhaseEncodingDirectionDICOM": "COL",
  "InstitutionAddress": "Bedford Way 26,London,London,GB,WC1H 0AP",
  "InstitutionName": "University College",
  "InstitutionalDepartmentName": "Department",
  "MRAcquisitionType": "2D",
  "MagneticFieldStrength": 3,
  "Manufacturer": "Siemens",
  "ManufacturersModelName": "Prisma",
  "MatrixCoilMode": "SENSE",
  "Modality": "MR",
  "MultibandAccelerationFactor": 4,
  "NonlinearGradientCorrection": false,
  "PartialFourier": 1,
  "PatientPosition": "HFS",
  "PercentPhaseFOV": 100,
  "PercentSampling": 100,
  "PhaseEncodingDirection": "j-",
  "PhaseEncodingSteps": 106,
  "PhaseResolution": 1,
  "PixelBandwidth": 2620,
  "ProcedureStepDescription": "Egor^MovieProject2",
  "ProtocolName": "task-backtothefuture_run-2",
  "PulseSequenceDetails": "%CustomerSeq%\\cmrr_mbep2d_bold",
  "ReceiveCoilActiveElements": "HEA;HEP",
  "ReceiveCoilName": "Head_32",
  "ReconMatrixPE": 106,
  "RepetitionTime": 1.5,
  "SAR": 0.0842163,
  "ScanOptions": "FS\\EXT",
  "ScanningSequence": "EP",
  "SequenceName": "epfid2d1_106",
  "SequenceVariant": "SK\\SS",
  "SeriesDescription": "task-backtothefuture_run-2",
  "SeriesNumber": 8,
  "ShimSetting": [-1533, 597, 7388, 176, -97, 136, 210, -50],
  "SliceThickness": 2,
  "SliceTiming": [0, 1.0675, 0.6575, 0.2475, 1.315, 0.905, 0.4925, 0.0825, 1.15, 0.74, 0.3275, 1.3975, 0.9875, 0.575, 0.165, 1.2325, 0.8225, 0.41, 0, 1.0675, 0.6575, 0.2475, 1.315, 0.905, 0.4925, 0.0825, 1.15, 0.74, 0.3275, 1.3975, 0.9875, 0.575, 0.165, 1.2325, 0.8225, 0.41, 0, 1.0675, 0.6575, 0.2475, 1.315, 0.905, 0.4925, 0.0825, 1.15, 0.74, 0.3275, 1.3975, 0.9875, 0.575, 0.165, 1.2325, 0.8225, 0.41, 0, 1.0675, 0.6575, 0.2475, 1.315, 0.905, 0.4925, 0.0825, 1.15, 0.74, 0.3275, 1.3975, 0.9875, 0.575, 0.165, 1.2325, 0.8225, 0.41],
  "SoftwareVersions": "syngo MR E11",
  "SpacingBetweenSlices": 2,
  "StationName": "AWP166108",
  "TaskName": "backtothefuture",
  "TotalReadoutTime": 0.0588013,
  "TxRefAmp": 264.133,
  "WipMemBlock": "2bd06d1e-87e5-4460-bb3a-dae72047c6fc||Sequence: R016 ve11c/master r/e634e98; Dec 19 2017 11:00:25 by eja",
  "dcmmeta_affine": [
    [-2.0, 0.0, 0.0, 106.0],
    [0.0, 2.0, 0.0, -93.759033203125],
    [0.0, 0.0, 2.0, -51.1204833984375],
    [0.0, 0.0, 0.0, 1.0]
],
  "dcmmeta_reorient_transform": [
    [0.0, -1.0, 0.0, 105.0],
    [1.0, 0.0, 0.0, 0.0],
    [0.0, 0.0, 1.0, 0.0],
    [0.0, 0.0, 0.0, 1.0]
],
  "dcmmeta_shape": [106, 106, 72, 1522],
  "dcmmeta_slice_dim": 2,
  "dcmmeta_version": 0.6,
  "global": {
    "const": {
      "AcquisitionMatrix": [106, 0, 0, 106],
      "AngioFlag": "N",
      "BitsAllocated": 16,
      "BitsStored": 16,
      "BodyPartExamined": "BRAIN",
      "CardiacNumberOfImages": 1,
      "Columns": 954,
      "EchoNumbers": 1,
      "EchoTime": 35.2,
      "EchoTrainLength": 106,
      "FlipAngle": 60.0,
      "HighBit": 15,
      "ImageOrientationPatient": [1.0, 0.0, 0.0, 0.0, 1.0, 0.0],
      "ImagePositionPatient": [-954.0, -964.24096393585, -51.120483398438],
      "ImageType": [
        "ORIGINAL",
        "PRIMARY",
        "M",
        "MB",
        "ND",
        "MOSAIC"
],
      "ImagedNucleus": "1H",
      "ImagingFrequency": 123.24365,
      "InPlanePhaseEncodingDirection": "COL",
      "MRAcquisitionType": "2D",
      "MagneticFieldStrength": 3.0,
      "Manufacturer": "SIEMENS",
      "ManufacturerModelName": "Prisma",
      "Modality": "MR",
      "NominalInterval": 0,
      "NumberOfAverages": 1.0,
      "NumberOfPhaseEncodingSteps": 106,
      "PercentPhaseFieldOfView": 100.0,
      "PercentSampling": 100.0,
      "PerformedProcedureStepStartTime": "112702.227000",
      "PhotometricInterpretation": "MONOCHROME2",
      "PixelBandwidth": 2620.0,
      "PixelRepresentation": 0,
      "PixelSpacing": [2.0, 2.0],
      "ProtocolName": "task-backtothefuture_run-2",
      "RepetitionTime": 1500.0,
      "Rows": 954,
      "SAR": 0.0842162998351,
      "SamplesPerPixel": 1,
      "ScanOptions": [
        "FS",
        "EXT"
],
      "ScanningSequence": "EP",
      "SequenceName": "epfid2d1_106",
      "SequenceVariant": [
        "SK",
        "SS"
],
      "SeriesDescription": "task-backtothefuture_run-2",
      "SeriesNumber": 8,
      "SeriesTime": "124437.457000",
      "SliceLocation": -51.120483398438,
      "SliceThickness": 2.0,
      "SmallestImagePixelValue": 0,
      "SoftwareVersions": "syngo MR E11",
      "SpacingBetweenSlices": 2.0,
      "SpecificCharacterSet": "ISO_IR 100",
      "StudyID": "1",
      "StudyTime": "112702.169000",
      "TransmitCoilName": "Body",
      "VariableFlipAngleFlag": "N",
      "WindowCenterWidthExplanation": "Algo1",
      "dBdt": 0.0},
    "slices": {}
  },
  "time": {
    "samples": {
      "AcquisitionNumber": [1, 2, 3, 4, 5, 6, 7, 8, 9, 10, 11, 12, 13, 14, 15, 16, 17, 18, 19, 20, 21, 22, 23, 24, 25, 26, 27, 28, 29, 30, 31, 32, 33, 34, 35, 36, 37, 38, 39, 40, 41, 42, 43, 44, 45, 46, 47, 48, 49, 50, 51, 52, 53, 54, 55, 56, 57, 58, 59, 60, 61, 62, 63, 64, 65, 66, 67, 68, 69, 70, 71, 72, 73, 74, 75, 76, 77, 78, 79, 80, 81, 82, 83, 84, 85, 86, 87, 88, 89, 90, 91, 92, 93, 94, 95, 96, 97, 98, 99, 100, 101, 102, 103, 104, 105, 106, 107, 108, 109, 110, 111, 112, 113, 114, 115, 116, 117, 118, 119, 120, 121, 122, 123, 124, 125, 126, 127, 128, 129, 130, 131, 132, 133, 134, 135, 136, 137, 138, 139, 140, 141, 142, 143, 144, 145, 146, 147, 148, 149, 150, 151, 152, 153, 154, 155, 156, 157, 158, 159, 160, 161, 162, 163, 164, 165, 166, 167, 168, 169, 170, 171, 172, 173, 174, 175, 176, 177, 178, 179, 180, 181, 182, 183, 184, 185, 186, 187, 188, 189, 190, 191, 192, 193, 194, 195, 196, 197, 198, 199, 200, 201, 202, 203, 204, 205, 206, 207, 208, 209, 210, 211, 212, 213, 214, 215, 216, 217, 218, 219, 220, 221, 222, 223, 224, 225, 226, 227, 228, 229, 230, 231, 232, 233, 234, 235, 236, 237, 238, 239, 240, 241, 242, 243, 244, 245, 246, 247, 248, 249, 250, 251, 252, 253, 254, 255, 256, 257, 258, 259, 260, 261, 262, 263, 264, 265, 266, 267, 268, 269, 270, 271, 272, 273, 274, 275, 276, 277, 278, 279, 280, 281, 282, 283, 284, 285, 286, 287, 288, 289, 290, 291, 292, 293, 294, 295, 296, 297, 298, 299, 300, 301, 302, 303, 304, 305, 306, 307, 308, 309, 310, 311, 312, 313, 314, 315, 316, 317, 318, 319, 320, 321, 322, 323, 324, 325, 326, 327, 328, 329, 330, 331, 332, 333, 334, 335, 336, 337, 338, 339, 340, 341, 342, 343, 344, 345, 346, 347, 348, 349, 350, 351, 352, 353, 354, 355, 356, 357, 358, 359, 360, 361, 362, 363, 364, 365, 366, 367, 368, 369, 370, 371, 372, 373, 374, 375, 376, 377, 378, 379, 380, 381, 382, 383, 384, 385, 386, 387, 388, 389, 390, 391, 392, 393, 394, 395, 396, 397, 398, 399, 400, 401, 402, 403, 404, 405, 406, 407, 408, 409, 410, 411, 412, 413, 414, 415, 416, 417, 418, 419, 420, 421, 422, 423, 424, 425, 426, 427, 428, 429, 430, 431, 432, 433, 434, 435, 436, 437, 438, 439, 440, 441, 442, 443, 444, 445, 446, 447, 448, 449, 450, 451, 452, 453, 454, 455, 456, 457, 458, 459, 460, 461, 462, 463, 464, 465, 466, 467, 468, 469, 470, 471, 472, 473, 474, 475, 476, 477, 478, 479, 480, 481, 482, 483, 484, 485, 486, 487, 488, 489, 490, 491, 492, 493, 494, 495, 496, 497, 498, 499, 500, 501, 502, 503, 504, 505, 506, 507, 508, 509, 510, 511, 512, 513, 514, 515, 516, 517, 518, 519, 520, 521, 522, 523, 524, 525, 526, 527, 528, 529, 530, 531, 532, 533, 534, 535, 536, 537, 538, 539, 540, 541, 542, 543, 544, 545, 546, 547, 548, 549, 550, 551, 552, 553, 554, 555, 556, 557, 558, 559, 560, 561, 562, 563, 564, 565, 566, 567, 568, 569, 570, 571, 572, 573, 574, 575, 576, 577, 578, 579, 580, 581, 582, 583, 584, 585, 586, 587, 588, 589, 590, 591, 592, 593, 594, 595, 596, 597, 598, 599, 600, 601, 602, 603, 604, 605, 606, 607, 608, 609, 610, 611, 612, 613, 614, 615, 616, 617, 618, 619, 620, 621, 622, 623, 624, 625, 626, 627, 628, 629, 630, 631, 632, 633, 634, 635, 636, 637, 638, 639, 640, 641, 642, 643, 644, 645, 646, 647, 648, 649, 650, 651, 652, 653, 654, 655, 656, 657, 658, 659, 660, 661, 662, 663, 664, 665, 666, 667, 668, 669, 670, 671, 672, 673, 674, 675, 676, 677, 678, 679, 680, 681, 682, 683, 684, 685, 686, 687, 688, 689, 690, 691, 692, 693, 694, 695, 696, 697, 698, 699, 700, 701, 702, 703, 704, 705, 706, 707, 708, 709, 710, 711, 712, 713, 714, 715, 716, 717, 718, 719, 720, 721, 722, 723, 724, 725, 726, 727, 728, 729, 730, 731, 732, 733, 734, 735, 736, 737, 738, 739, 740, 741, 742, 743, 744, 745, 746, 747, 748, 749, 750, 751, 752, 753, 754, 755, 756, 757, 758, 759, 760, 761, 762, 763, 764, 765, 766, 767, 768, 769, 770, 771, 772, 773, 774, 775, 776, 777, 778, 779, 780, 781, 782, 783, 784, 785, 786, 787, 788, 789, 790, 791, 792, 793, 794, 795, 796, 797, 798, 799, 800, 801, 802, 803, 804, 805, 806, 807, 808, 809, 810, 811, 812, 813, 814, 815, 816, 817, 818, 819, 820, 821, 822, 823, 824, 825, 826, 827, 828, 829, 830, 831, 832, 833, 834, 835, 836, 837, 838, 839, 840, 841, 842, 843, 844, 845, 846, 847, 848, 849, 850, 851, 852, 853, 854, 855, 856, 857, 858, 859, 860, 861, 862, 863, 864, 865, 866, 867, 868, 869, 870, 871, 872, 873, 874, 875, 876, 877, 878, 879, 880, 881, 882, 883, 884, 885, 886, 887, 888, 889, 890, 891, 892, 893, 894, 895, 896, 897, 898, 899, 900, 901, 902, 903, 904, 905, 906, 907, 908, 909, 910, 911, 912, 913, 914, 915, 916, 917, 918, 919, 920, 921, 922, 923, 924, 925, 926, 927, 928, 929, 930, 931, 932, 933, 934, 935, 936, 937, 938, 939, 940, 941, 942, 943, 944, 945, 946, 947, 948, 949, 950, 951, 952, 953, 954, 955, 956, 957, 958, 959, 960, 961, 962, 963, 964, 965, 966, 967, 968, 969, 970, 971, 972, 973, 974, 975, 976, 977, 978, 979, 980, 981, 982, 983, 984, 985, 986, 987, 988, 989, 990, 991, 992, 993, 994, 995, 996, 997, 998, 999, 1000, 1001, 1002, 1003, 1004, 1005, 1006, 1007, 1008, 1009, 1010, 1011, 1012, 1013, 1014, 1015, 1016, 1017, 1018, 1019, 1020, 1021, 1022, 1023, 1024, 1025, 1026, 1027, 1028, 1029, 1030, 1031, 1032, 1033, 1034, 1035, 1036, 1037, 1038, 1039, 1040, 1041, 1042, 1043, 1044, 1045, 1046, 1047, 1048, 1049, 1050, 1051, 1052, 1053, 1054, 1055, 1056, 1057, 1058, 1059, 1060, 1061, 1062, 1063, 1064, 1065, 1066, 1067, 1068, 1069, 1070, 1071, 1072, 1073, 1074, 1075, 1076, 1077, 1078, 1079, 1080, 1081, 1082, 1083, 1084, 1085, 1086, 1087, 1088, 1089, 1090, 1091, 1092, 1093, 1094, 1095, 1096, 1097, 1098, 1099, 1100, 1101, 1102, 1103, 1104, 1105, 1106, 1107, 1108, 1109, 1110, 1111, 1112, 1113, 1114, 1115, 1116, 1117, 1118, 1119, 1120, 1121, 1122, 1123, 1124, 1125, 1126, 1127, 1128, 1129, 1130, 1131, 1132, 1133, 1134, 1135, 1136, 1137, 1138, 1139, 1140, 1141, 1142, 1143, 1144, 1145, 1146, 1147, 1148, 1149, 1150, 1151, 1152, 1153, 1154, 1155, 1156, 1157, 1158, 1159, 1160, 1161, 1162, 1163, 1164, 1165, 1166, 1167, 1168, 1169, 1170, 1171, 1172, 1173, 1174, 1175, 1176, 1177, 1178, 1179, 1180, 1181, 1182, 1183, 1184, 1185, 1186, 1187, 1188, 1189, 1190, 1191, 1192, 1193, 1194, 1195, 1196, 1197, 1198, 1199, 1200, 1201, 1202, 1203, 1204, 1205, 1206, 1207, 1208, 1209, 1210, 1211, 1212, 1213, 1214, 1215, 1216, 1217, 1218, 1219, 1220, 1221, 1222, 1223, 1224, 1225, 1226, 1227, 1228, 1229, 1230, 1231, 1232, 1233, 1234, 1235, 1236, 1237, 1238, 1239, 1240, 1241, 1242, 1243, 1244, 1245, 1246, 1247, 1248, 1249, 1250, 1251, 1252, 1253, 1254, 1255, 1256, 1257, 1258, 1259, 1260, 1261, 1262, 1263, 1264, 1265, 1266, 1267, 1268, 1269, 1270, 1271, 1272, 1273, 1274, 1275, 1276, 1277, 1278, 1279, 1280, 1281, 1282, 1283, 1284, 1285, 1286, 1287, 1288, 1289, 1290, 1291, 1292, 1293, 1294, 1295, 1296, 1297, 1298, 1299, 1300, 1301, 1302, 1303, 1304, 1305, 1306, 1307, 1308, 1309, 1310, 1311, 1312, 1313, 1314, 1315, 1316, 1317, 1318, 1319, 1320, 1321, 1322, 1323, 1324, 1325, 1326, 1327, 1328, 1329, 1330, 1331, 1332, 1333, 1334, 1335, 1336, 1337, 1338, 1339, 1340, 1341, 1342, 1343, 1344, 1345, 1346, 1347, 1348, 1349, 1350, 1351, 1352, 1353, 1354, 1355, 1356, 1357, 1358, 1359, 1360, 1361, 1362, 1363, 1364, 1365, 1366, 1367, 1368, 1369, 1370, 1371, 1372, 1373, 1374, 1375, 1376, 1377, 1378, 1379, 1380, 1381, 1382, 1383, 1384, 1385, 1386, 1387, 1388, 1389, 1390, 1391, 1392, 1393, 1394, 1395, 1396, 1397, 1398, 1399, 1400, 1401, 1402, 1403, 1404, 1405, 1406, 1407, 1408, 1409, 1410, 1411, 1412, 1413, 1414, 1415, 1416, 1417, 1418, 1419, 1420, 1421, 1422, 1423, 1424, 1425, 1426, 1427, 1428, 1429, 1430, 1431, 1432, 1433, 1434, 1435, 1436, 1437, 1438, 1439, 1440, 1441, 1442, 1443, 1444, 1445, 1446, 1447, 1448, 1449, 1450, 1451, 1452, 1453, 1454, 1455, 1456, 1457, 1458, 1459, 1460, 1461, 1462, 1463, 1464, 1465, 1466, 1467, 1468, 1469, 1470, 1471, 1472, 1473, 1474, 1475, 1476, 1477, 1478, 1479, 1480, 1481, 1482, 1483, 1484, 1485, 1486, 1487, 1488, 1489, 1490, 1491, 1492, 1493, 1494, 1495, 1496, 1497, 1498, 1499, 1500, 1501, 1502, 1503, 1504, 1505, 1506, 1507, 1508, 1509, 1510, 1511, 1512, 1513, 1514, 1515, 1516, 1517, 1518, 1519, 1520, 1521, 1522],
      "AcquisitionTime": ["124352.345000", "124353.845000", "124355.345000", "124356.845000", "124358.345000", "124359.845000", "124401.345000", "124402.845000", "124404.345000", "124405.845000", "124407.345000", "124408.845000", "124410.345000", "124411.845000", "124413.345000", "124414.845000", "124416.345000", "124417.845000", "124419.345000", "124420.845000", "124422.345000", "124423.845000", "124425.345000", "124426.845000", "124428.345000", "124429.845000", "124431.345000", "124432.845000", "124434.345000", "124435.845000", "124437.345000", "124438.845000", "124440.345000", "124441.845000", "124443.345000", "124444.845000", "124446.345000", "124447.845000", "124449.345000", "124450.845000", "124452.345000", "124453.845000", "124455.345000", "124456.845000", "124458.345000", "124459.845000", "124501.345000", "124502.845000", "124504.345000", "124505.845000", "124507.345000", "124508.845000", "124510.345000", "124511.845000", "124513.345000", "124514.845000", "124516.345000", "124517.845000", "124519.345000", "124520.845000", "124522.345000", "124523.845000", "124525.345000", "124526.845000", "124528.345000", "124529.845000", "124531.345000", "124532.845000", "124534.345000", "124535.845000", "124537.345000", "124538.845000", "124540.345000", "124541.845000", "124543.345000", "124544.845000", "124546.345000", "124547.845000", "124549.345000", "124550.845000", "124552.345000", "124553.845000", "124555.345000", "124556.845000", "124558.345000", "124559.845000", "124601.345000", "124602.845000", "124604.345000", "124605.845000", "124607.345000", "124608.845000", "124610.345000", "124611.845000", "124613.345000", "124614.845000", "124616.345000", "124617.845000", "124619.345000", "124620.845000", "124622.345000", "124623.845000", "124625.345000", "124626.845000", "124628.345000", "124629.845000", "124631.345000", "124632.845000", "124634.345000", "124635.845000", "124637.345000", "124638.845000", "124640.345000", "124641.845000", "124643.345000", "124644.845000", "124646.345000", "124647.845000", "124649.345000", "124650.845000", "124652.345000", "124653.845000", "124655.345000", "124656.845000", "124658.345000", "124659.845000", "124701.345000", "124702.845000", "124704.345000", "124705.845000", "124707.345000", "124708.845000", "124710.345000", "124711.845000", "124713.345000", "124714.845000", "124716.345000", "124717.845000", "124719.345000", "124720.845000", "124722.345000", "124723.845000", "124725.345000", "124726.845000", "124728.345000", "124729.845000", "124731.345000", "124732.845000", "124734.345000", "124735.845000", "124737.345000", "124738.845000", "124740.345000", "124741.845000", "124743.345000", "124744.845000", "124746.345000", "124747.845000", "124749.345000", "124750.845000", "124752.345000", "124753.845000", "124755.345000", "124756.845000", "124758.345000", "124759.845000", "124801.345000", "124802.845000", "124804.345000", "124805.845000", "124807.345000", "124808.845000", "124810.345000", "124811.845000", "124813.345000", "124814.845000", "124816.345000", "124817.845000", "124819.345000", "124820.845000", "124822.345000", "124823.845000", "124825.345000", "124826.845000", "124828.345000", "124829.845000", "124831.345000", "124832.845000", "124834.345000", "124835.845000", "124837.345000", "124838.845000", "124840.345000", "124841.845000", "124843.345000", "124844.845000", "124846.345000", "124847.845000", "124849.345000", "124850.845000", "124852.345000", "124853.845000", "124855.345000", "124856.845000", "124858.345000", "124859.845000", "124901.345000", "124902.845000", "124904.345000", "124905.845000", "124907.345000", "124908.845000", "124910.345000", "124911.845000", "124913.345000", "124914.845000", "124916.345000", "124917.845000", "124919.345000", "124920.845000", "124922.345000", "124923.845000", "124925.345000", "124926.845000", "124928.345000", "124929.845000", "124931.345000", "124932.845000", "124934.345000", "124935.845000", "124937.345000", "124938.845000", "124940.345000", "124941.845000", "124943.345000", "124944.845000", "124946.345000", "124947.845000", "124949.345000", "124950.845000", "124952.345000", "124953.845000", "124955.345000", "124956.845000", "124958.345000", "124959.845000", "125001.345000", "125002.845000", "125004.345000", "125005.845000", "125007.345000", "125008.845000", "125010.345000", "125011.845000", "125013.345000", "125014.845000", "125016.345000", "125017.845000", "125019.345000", "125020.845000", "125022.345000", "125023.845000", "125025.345000", "125026.845000", "125028.345000", "125029.845000", "125031.345000", "125032.845000", "125034.345000", "125035.845000", "125037.345000", "125038.845000", "125040.345000", "125041.845000", "125043.345000", "125044.845000", "125046.345000", "125047.845000", "125049.345000", "125050.845000", "125052.345000", "125053.845000", "125055.345000", "125056.845000", "125058.345000", "125059.845000", "125101.345000", "125102.845000", "125104.345000", "125105.845000", "125107.345000", "125108.845000", "125110.345000", "125111.845000", "125113.345000", "125114.845000", "125116.345000", "125117.845000", "125119.345000", "125120.845000", "125122.345000", "125123.845000", "125125.345000", "125126.845000", "125128.345000", "125129.845000", "125131.345000", "125132.845000", "125134.345000", "125135.845000", "125137.345000", "125138.845000", "125140.345000", "125141.845000", "125143.345000", "125144.845000", "125146.345000", "125147.845000", "125149.345000", "125150.845000", "125152.345000", "125153.845000", "125155.345000", "125156.845000", "125158.345000", "125159.845000", "125201.345000", "125202.845000", "125204.345000", "125205.845000", "125207.345000", "125208.845000", "125210.345000", "125211.845000", "125213.345000", "125214.845000", "125216.345000", "125217.845000", "125219.345000", "125220.845000", "125222.345000", "125223.845000", "125225.345000", "125226.845000", "125228.345000", "125229.845000", "125231.345000", "125232.845000", "125234.345000", "125235.845000", "125237.345000", "125238.845000", "125240.345000", "125241.845000", "125243.345000", "125244.845000", "125246.345000", "125247.845000", "125249.345000", "125250.845000", "125252.345000", "125253.845000", "125255.345000", "125256.845000", "125258.345000", "125259.845000", "125301.345000", "125302.845000", "125304.345000", "125305.845000", "125307.345000", "125308.845000", "125310.345000", "125311.845000", "125313.345000", "125314.845000", "125316.345000", "125317.845000", "125319.345000", "125320.845000", "125322.345000", "125323.845000", "125325.345000", "125326.845000", "125328.345000", "125329.845000", "125331.345000", "125332.845000", "125334.345000", "125335.845000", "125337.345000", "125338.845000", "125340.345000", "125341.845000", "125343.345000", "125344.845000", "125346.345000", "125347.845000", "125349.345000", "125350.845000", "125352.345000", "125353.845000", "125355.345000", "125356.845000", "125358.345000", "125359.845000", "125401.345000", "125402.845000", "125404.345000", "125405.845000", "125407.345000", "125408.845000", "125410.345000", "125411.845000", "125413.345000", "125414.845000", "125416.345000", "125417.845000", "125419.345000", "125420.845000", "125422.345000", "125423.845000", "125425.345000", "125426.845000", "125428.345000", "125429.845000", "125431.345000", "125432.845000", "125434.345000", "125435.845000", "125437.345000", "125438.845000", "125440.345000", "125441.845000", "125443.345000", "125444.845000", "125446.345000", "125447.845000", "125449.345000", "125450.845000", "125452.345000", "125453.845000", "125455.345000", "125456.845000", "125458.345000", "125459.845000", "125501.345000", "125502.845000", "125504.345000", "125505.845000", "125507.345000", "125508.845000", "125510.345000", "125511.845000", "125513.345000", "125514.845000", "125516.345000", "125517.845000", "125519.345000", "125520.845000", "125522.345000", "125523.845000", "125525.345000", "125526.845000", "125528.345000", "125529.845000", "125531.345000", "125532.845000", "125534.345000", "125535.845000", "125537.345000", "125538.845000", "125540.345000", "125541.845000", "125543.345000", "125544.845000", "125546.345000", "125547.845000", "125549.345000", "125550.845000", "125552.345000", "125553.845000", "125555.345000", "125556.845000", "125558.345000", "125559.845000", "125601.345000", "125602.845000", "125604.345000", "125605.845000", "125607.345000", "125608.845000", "125610.345000", "125611.845000", "125613.345000", "125614.845000", "125616.345000", "125617.845000", "125619.345000", "125620.845000", "125622.345000", "125623.845000", "125625.345000", "125626.845000", "125628.345000", "125629.845000", "125631.345000", "125632.845000", "125634.345000", "125635.845000", "125637.345000", "125638.845000", "125640.345000", "125641.845000", "125643.345000", "125644.845000", "125646.345000", "125647.845000", "125649.345000", "125650.845000", "125652.345000", "125653.845000", "125655.345000", "125656.845000", "125658.345000", "125659.845000", "125701.345000", "125702.845000", "125704.345000", "125705.845000", "125707.345000", "125708.845000", "125710.345000", "125711.845000", "125713.345000", "125714.845000", "125716.345000", "125717.845000", "125719.345000", "125720.845000", "125722.345000", "125723.845000", "125725.345000", "125726.845000", "125728.345000", "125729.845000", "125731.345000", "125732.845000", "125734.345000", "125735.845000", "125737.345000", "125738.845000", "125740.345000", "125741.845000", "125743.345000", "125744.845000", "125746.345000", "125747.845000", "125749.345000", "125750.845000", "125752.345000", "125753.845000", "125755.345000", "125756.845000", "125758.345000", "125759.845000", "125801.345000", "125802.845000", "125804.345000", "125805.845000", "125807.345000", "125808.845000", "125810.345000", "125811.845000", "125813.345000", "125814.845000", "125816.345000", "125817.845000", "125819.345000", "125820.845000", "125822.345000", "125823.845000", "125825.345000", "125826.845000", "125828.345000", "125829.845000", "125831.345000", "125832.845000", "125834.345000", "125835.845000", "125837.345000", "125838.845000", "125840.345000", "125841.845000", "125843.345000", "125844.845000", "125846.345000", "125847.845000", "125849.345000", "125850.845000", "125852.345000", "125853.845000", "125855.345000", "125856.845000", "125858.345000", "125859.845000", "125901.345000", "125902.845000", "125904.345000", "125905.845000", "125907.345000", "125908.845000", "125910.345000", "125911.845000", "125913.345000", "125914.845000", "125916.345000", "125917.845000", "125919.345000", "125920.845000", "125922.345000", "125923.845000", "125925.345000", "125926.845000", "125928.345000", "125929.845000", "125931.345000", "125932.845000", "125934.345000", "125935.845000", "125937.345000", "125938.845000", "125940.345000", "125941.845000", "125943.345000", "125944.845000", "125946.345000", "125947.845000", "125949.345000", "125950.845000", "125952.345000", "125953.845000", "125955.345000", "125956.845000", "125958.345000", "125959.845000", "130001.345000", "130002.845000", "130004.345000", "130005.845000", "130007.345000", "130008.845000", "130010.345000", "130011.845000", "130013.345000", "130014.845000", "130016.345000", "130017.845000", "130019.345000", "130020.845000", "130022.345000", "130023.845000", "130025.345000", "130026.845000", "130028.345000", "130029.845000", "130031.345000", "130032.845000", "130034.345000", "130035.845000", "130037.345000", "130038.845000", "130040.345000", "130041.845000", "130043.345000", "130044.845000", "130046.345000", "130047.845000", "130049.345000", "130050.845000", "130052.345000", "130053.845000", "130055.345000", "130056.845000", "130058.345000", "130059.845000", "130101.345000", "130102.845000", "130104.345000", "130105.845000", "130107.345000", "130108.845000", "130110.345000", "130111.845000", "130113.345000", "130114.845000", "130116.345000", "130117.845000", "130119.345000", "130120.845000", "130122.345000", "130123.845000", "130125.345000", "130126.845000", "130128.345000", "130129.845000", "130131.345000", "130132.845000", "130134.345000", "130135.845000", "130137.345000", "130138.845000", "130140.345000", "130141.845000", "130143.345000", "130144.845000", "130146.345000", "130147.845000", "130149.345000", "130150.845000", "130152.345000", "130153.845000", "130155.345000", "130156.845000", "130158.345000", "130159.845000", "130201.345000", "130202.845000", "130204.345000", "130205.845000", "130207.345000", "130208.845000", "130210.345000", "130211.845000", "130213.345000", "130214.845000", "130216.345000", "130217.845000", "130219.345000", "130220.845000", "130222.345000", "130223.845000", "130225.345000", "130226.845000", "130228.345000", "130229.845000", "130231.345000", "130232.845000", "130234.345000", "130235.845000", "130237.345000", "130238.845000", "130240.345000", "130241.845000", "130243.345000", "130244.845000", "130246.345000", "130247.845000", "130249.345000", "130250.845000", "130252.345000", "130253.845000", "130255.345000", "130256.845000", "130258.345000", "130259.845000", "130301.345000", "130302.845000", "130304.345000", "130305.845000", "130307.345000", "130308.845000", "130310.345000", "130311.845000", "130313.345000", "130314.845000", "130316.345000", "130317.845000", "130319.345000", "130320.845000", "130322.345000", "130323.845000", "130325.345000", "130326.845000", "130328.345000", "130329.845000", "130331.345000", "130332.845000", "130334.345000", "130335.845000", "130337.345000", "130338.845000", "130340.345000", "130341.845000", "130343.345000", "130344.845000", "130346.345000", "130347.845000", "130349.345000", "130350.845000", "130352.345000", "130353.845000", "130355.345000", "130356.845000", "130358.345000", "130359.845000", "130401.345000", "130402.845000", "130404.345000", "130405.845000", "130407.345000", "130408.845000", "130410.345000", "130411.845000", "130413.345000", "130414.845000", "130416.345000", "130417.845000", "130419.345000", "130420.845000", "130422.345000", "130423.845000", "130425.345000", "130426.845000", "130428.345000", "130429.845000", "130431.345000", "130432.845000", "130434.345000", "130435.845000", "130437.345000", "130438.845000", "130440.345000", "130441.845000", "130443.345000", "130444.845000", "130446.345000", "130447.845000", "130449.345000", "130450.845000", "130452.345000", "130453.845000", "130455.345000", "130456.845000", "130458.345000", "130459.845000", "130501.345000", "130502.845000", "130504.345000", "130505.845000", "130507.345000", "130508.845000", "130510.345000", "130511.845000", "130513.345000", "130514.845000", "130516.345000", "130517.845000", "130519.345000", "130520.845000", "130522.345000", "130523.845000", "130525.345000", "130526.845000", "130528.345000", "130529.845000", "130531.345000", "130532.845000", "130534.345000", "130535.845000", "130537.345000", "130538.845000", "130540.345000", "130541.845000", "130543.345000", "130544.845000", "130546.345000", "130547.845000", "130549.345000", "130550.845000", "130552.345000", "130553.845000", "130555.345000", "130556.845000", "130558.345000", "130559.845000", "130601.345000", "130602.845000", "130604.345000", "130605.845000", "130607.345000", "130608.845000", "130610.345000", "130611.845000", "130613.345000", "130614.845000", "130616.345000", "130617.845000", "130619.345000", "130620.845000", "130622.345000", "130623.845000", "130625.345000", "130626.845000", "130628.345000", "130629.845000", "130631.345000", "130632.845000", "130634.345000", "130635.845000", "130637.345000", "130638.845000", "130640.345000", "130641.845000", "130643.345000", "130644.845000", "130646.345000", "130647.845000", "130649.345000", "130650.845000", "130652.345000", "130653.845000", "130655.345000", "130656.845000", "130658.345000", "130659.845000", "130701.345000", "130702.845000", "130704.345000", "130705.845000", "130707.345000", "130708.845000", "130710.345000", "130711.845000", "130713.345000", "130714.845000", "130716.345000", "130717.845000", "130719.345000", "130720.845000", "130722.345000", "130723.845000", "130725.345000", "130726.845000", "130728.345000", "130729.845000", "130731.345000", "130732.845000", "130734.345000", "130735.845000", "130737.345000", "130738.845000", "130740.345000", "130741.845000", "130743.345000", "130744.845000", "130746.345000", "130747.845000", "130749.345000", "130750.845000", "130752.34500