{
  "AcquisitionMatrixPE": 106,
  "AcquisitionNumber": 1,
  "AcquisitionTime": "13:25:23.110000",
  "BandwidthPerPixelPhaseEncode": 16.846,
  "BaseResolution": 106,
  "BodyPartExamined": "BRAIN",
  "CoilCombinationMethod": "Sum of Squares",
  "ConsistencyInfo": "N4_VE11C_LATEST_20160120",
  "ConversionSoftware": "dcm2niix",
  "ConversionSoftwareVersion": "v1.0.20220720",
  "DerivedVendorReportedEchoSpacing": 0.000560012,
  "DeviceSerialNumber": "166108",
  "DwellTime": 1.8e-06,
  "EchoTime": 0.0352,
  "EchoTrainLength": 106,
  "EffectiveEchoSpacing": 0.000560012,
  "FlipAngle": 60,
  "HeudiconvVersion": "1.3.0",
  "ImageComments": "Unaliased MB4/PE3/LB",
  "ImageOrientationPatientDICOM": [1, 0, 0, 0, 1, 0],
  "ImageOrientationText": "Tra",
  "ImageType": [
    "ORIGINAL",
    "PRIMARY",
    "M",
    "MB",
    "ND",
    "MOSAIC"
],
  "ImagingFrequency": 123.244,
  "InPlanePhaseEncodingDirectionDICOM": "COL",
  "InstitutionAddress": "Bedford Way 26,London,London,GB,WC1H 0AP",
  "InstitutionName": "University College",
  "InstitutionalDepartmentName": "Department",
  "MRAcquisitionType": "2D",
  "MagneticFieldStrength": 3,
  "Manufacturer": "Siemens",
  "ManufacturersModelName": "Prisma",
  "MatrixCoilMode": "SENSE",
  "Modality": "MR",
  "MultibandAccelerationFactor": 4,
  "NonlinearGradientCorrection": false,
  "PartialFourier": 1,
  "PatientPosition": "HFS",
  "PercentPhaseFOV": 100,
  "PercentSampling": 100,
  "PhaseEncodingDirection": "j-",
  "PhaseEncodingSteps": 106,
  "PhaseResolution": 1,
  "PixelBandwidth": 2620,
  "ProcedureStepDescription": "Egor^MovieProject2",
  "ProtocolName": "task-backtothefuture_run-3",
  "PulseSequenceDetails": "%CustomerSeq%\\cmrr_mbep2d_bold",
  "ReceiveCoilActiveElements": "HEA;HEP",
  "ReceiveCoilName": "Head_32",
  "ReconMatrixPE": 106,
  "RepetitionTime": 1.5,
  "SAR": 0.0842236,
  "ScanOptions": "FS\\EXT",
  "ScanningSequence": "EP",
  "SequenceName": "epfid2d1_106",
  "SequenceVariant": "SK\\SS",
  "SeriesDescription": "task-backtothefuture_run-3",
  "SeriesNumber": 12,
  "ShimSetting": [-1533, 597, 7388, 176, -97, 136, 210, -50],
  "SliceThickness": 2,
  "SliceTiming": [0, 1.0675, 0.6575, 0.245, 1.315, 0.9025, 0.4925, 0.0825, 1.15, 0.74, 0.3275, 1.3975, 0.985, 0.575, 0.1625, 1.2325, 0.8225, 0.41, 0, 1.0675, 0.6575, 0.245, 1.315, 0.9025, 0.4925, 0.0825, 1.15, 0.74, 0.3275, 1.3975, 0.985, 0.575, 0.1625, 1.2325, 0.8225, 0.41, 0, 1.0675, 0.6575, 0.245, 1.315, 0.9025, 0.4925, 0.0825, 1.15, 0.74, 0.3275, 1.3975, 0.985, 0.575, 0.1625, 1.2325, 0.8225, 0.41, 0, 1.0675, 0.6575, 0.245, 1.315, 0.9025, 0.4925, 0.0825, 1.15, 0.74, 0.3275, 1.3975, 0.985, 0.575, 0.1625, 1.2325, 0.8225, 0.41],
  "SoftwareVersions": "syngo MR E11",
  "SpacingBetweenSlices": 2,
  "StationName": "AWP166108",
  "TaskName": "backtothefuture",
  "TotalReadoutTime": 0.0588013,
  "TxRefAmp": 264.133,
  "WipMemBlock": "37713761-52f5-4d5e-91fa-67828b0dc841||Sequence: R016 ve11c/master r/e634e98; Dec 19 2017 11:00:25 by eja",
  "dcmmeta_affine": [
    [-2.0, 0.0, 0.0, 106.0],
    [0.0, 2.0, 0.0, -93.759033203125],
    [0.0, 0.0, 2.0, -51.1204833984375],
    [0.0, 0.0, 0.0, 1.0]
],
  "dcmmeta_reorient_transform": [
    [0.0, -1.0, 0.0, 105.0],
    [1.0, 0.0, 0.0, 0.0],
    [0.0, 0.0, 1.0, 0.0],
    [0.0, 0.0, 0.0, 1.0]
],
  "dcmmeta_shape": [106, 106, 72, 1608],
  "dcmmeta_slice_dim": 2,
  "dcmmeta_version": 0.6,
  "global": {
    "const": {
      "AcquisitionMatrix": [106, 0, 0, 106],
      "AngioFlag": "N",
      "BitsAllocated": 16,
      "BitsStored": 16,
      "BodyPartExamined": "BRAIN",
      "CardiacNumberOfImages": 1,
      "Columns": 954,
      "EchoNumbers": 1,
      "EchoTime": 35.2,
      "EchoTrainLength": 106,
      "FlipAngle": 60.0,
      "HighBit": 15,
      "ImageOrientationPatient": [1.0, 0.0, 0.0, 0.0, 1.0, 0.0],
      "ImagePositionPatient": [-954.0, -964.24096393585, -51.120483398438],
      "ImageType": [
        "ORIGINAL",
        "PRIMARY",
        "M",
        "MB",
        "ND",
        "MOSAIC"
],
      "ImagedNucleus": "1H",
      "ImagingFrequency": 123.243663,
      "InPlanePhaseEncodingDirection": "COL",
      "MRAcquisitionType": "2D",
      "MagneticFieldStrength": 3.0,
      "Manufacturer": "SIEMENS",
      "ManufacturerModelName": "Prisma",
      "Modality": "MR",
      "NominalInterval": 0,
      "NumberOfAverages": 1.0,
      "NumberOfPhaseEncodingSteps": 106,
      "PercentPhaseFieldOfView": 100.0,
      "PercentSampling": 100.0,
      "PerformedProcedureStepStartTime": "112702.227000",
      "PhotometricInterpretation": "MONOCHROME2",
      "PixelBandwidth": 2620.0,
      "PixelRepresentation": 0,
      "PixelSpacing": [2.0, 2.0],
      "ProtocolName": "task-backtothefuture_run-3",
      "RepetitionTime": 1500.0,
      "Rows": 954,
      "SAR": 0.08422355000441,
      "SamplesPerPixel": 1,
      "ScanOptions": [
        "FS",
        "EXT"
],
      "ScanningSequence": "EP",
      "SequenceName": "epfid2d1_106",
      "SequenceVariant": [
        "SK",
        "SS"
],
      "SeriesDescription": "task-backtothefuture_run-3",
      "SeriesNumber": 12,
      "SeriesTime": "132619.557000",
      "SliceLocation": -51.120483398438,
      "SliceThickness": 2.0,
      "SmallestImagePixelValue": 0,
      "SoftwareVersions": "syngo MR E11",
      "SpacingBetweenSlices": 2.0,
      "SpecificCharacterSet": "ISO_IR 100",
      "StudyID": "1",
      "StudyTime": "112702.169000",
      "TransmitCoilName": "Body",
      "VariableFlipAngleFlag": "N",
      "WindowCenterWidthExplanation": "Algo1",
      "dBdt": 0.0},
    "slices": {}
  },
  "time": {
    "samples": {
      "AcquisitionNumber": [1, 2, 3, 4, 5, 6, 7, 8, 9, 10, 11, 12, 13, 14, 15, 16, 17, 18, 19, 20, 21, 22, 23, 24, 25, 26, 27, 28, 29, 30, 31, 32, 33, 34, 35, 36, 37, 38, 39, 40, 41, 42, 43, 44, 45, 46, 47, 48, 49, 50, 51, 52, 53, 54, 55, 56, 57, 58, 59, 60, 61, 62, 63, 64, 65, 66, 67, 68, 69, 70, 71, 72, 73, 74, 75, 76, 77, 78, 79, 80, 81, 82, 83, 84, 85, 86, 87, 88, 89, 90, 91, 92, 93, 94, 95, 96, 97, 98, 99, 100, 101, 102, 103, 104, 105, 106, 107, 108, 109, 110, 111, 112, 113, 114, 115, 116, 117, 118, 119, 120, 121, 122, 123, 124, 125, 126, 127, 128, 129, 130, 131, 132, 133, 134, 135, 136, 137, 138, 139, 140, 141, 142, 143, 144, 145, 146, 147, 148, 149, 150, 151, 152, 153, 154, 155, 156, 157, 158, 159, 160, 161, 162, 163, 164, 165, 166, 167, 168, 169, 170, 171, 172, 173, 174, 175, 176, 177, 178, 179, 180, 181, 182, 183, 184, 185, 186, 187, 188, 189, 190, 191, 192, 193, 194, 195, 196, 197, 198, 199, 200, 201, 202, 203, 204, 205, 206, 207, 208, 209, 210, 211, 212, 213, 214, 215, 216, 217, 218, 219, 220, 221, 222, 223, 224, 225, 226, 227, 228, 229, 230, 231, 232, 233, 234, 235, 236, 237, 238, 239, 240, 241, 242, 243, 244, 245, 246, 247, 248, 249, 250, 251, 252, 253, 254, 255, 256, 257, 258, 259, 260, 261, 262, 263, 264, 265, 266, 267, 268, 269, 270, 271, 272, 273, 274, 275, 276, 277, 278, 279, 280, 281, 282, 283, 284, 285, 286, 287, 288, 289, 290, 291, 292, 293, 294, 295, 296, 297, 298, 299, 300, 301, 302, 303, 304, 305, 306, 307, 308, 309, 310, 311, 312, 313, 314, 315, 316, 317, 318, 319, 320, 321, 322, 323, 324, 325, 326, 327, 328, 329, 330, 331, 332, 333, 334, 335, 336, 337, 338, 339, 340, 341, 342, 343, 344, 345, 346, 347, 348, 349, 350, 351, 352, 353, 354, 355, 356, 357, 358, 359, 360, 361, 362, 363, 364, 365, 366, 367, 368, 369, 370, 371, 372, 373, 374, 375, 376, 377, 378, 379, 380, 381, 382, 383, 384, 385, 386, 387, 388, 389, 390, 391, 392, 393, 394, 395, 396, 397, 398, 399, 400, 401, 402, 403, 404, 405, 406, 407, 408, 409, 410, 411, 412, 413, 414, 415, 416, 417, 418, 419, 420, 421, 422, 423, 424, 425, 426, 427, 428, 429, 430, 431, 432, 433, 434, 435, 436, 437, 438, 439, 440, 441, 442, 443, 444, 445, 446, 447, 448, 449, 450, 451, 452, 453, 454, 455, 456, 457, 458, 459, 460, 461, 462, 463, 464, 465, 466, 467, 468, 469, 470, 471, 472, 473, 474, 475, 476, 477, 478, 479, 480, 481, 482, 483, 484, 485, 486, 487, 488, 489, 490, 491, 492, 493, 494, 495, 496, 497, 498, 499, 500, 501, 502, 503, 504, 505, 506, 507, 508, 509, 510, 511, 512, 513, 514, 515, 516, 517, 518, 519, 520, 521, 522, 523, 524, 525, 526, 527, 528, 529, 530, 531, 532, 533, 534, 535, 536, 537, 538, 539, 540, 541, 542, 543, 544, 545, 546, 547, 548, 549, 550, 551, 552, 553, 554, 555, 556, 557, 558, 559, 560, 561, 562, 563, 564, 565, 566, 567, 568, 569, 570, 571, 572, 573, 574, 575, 576, 577, 578, 579, 580, 581, 582, 583, 584, 585, 586, 587, 588, 589, 590, 591, 592, 593, 594, 595, 596, 597, 598, 599, 600, 601, 602, 603, 604, 605, 606, 607, 608, 609, 610, 611, 612, 613, 614, 615, 616, 617, 618, 619, 620, 621, 622, 623, 624, 625, 626, 627, 628, 629, 630, 631, 632, 633, 634, 635, 636, 637, 638, 639, 640, 641, 642, 643, 644, 645, 646, 647, 648, 649, 650, 651, 652, 653, 654, 655, 656, 657, 658, 659, 660, 661, 662, 663, 664, 665, 666, 667, 668, 669, 670, 671, 672, 673, 674, 675, 676, 677, 678, 679, 680, 681, 682, 683, 684, 685, 686, 687, 688, 689, 690, 691, 692, 693, 694, 695, 696, 697, 698, 699, 700, 701, 702, 703, 704, 705, 706, 707, 708, 709, 710, 711, 712, 713, 714, 715, 716, 717, 718, 719, 720, 721, 722, 723, 724, 725, 726, 727, 728, 729, 730, 731, 732, 733, 734, 735, 736, 737, 738, 739, 740, 741, 742, 743, 744, 745, 746, 747, 748, 749, 750, 751, 752, 753, 754, 755, 756, 757, 758, 759, 760, 761, 762, 763, 764, 765, 766, 767, 768, 769, 770, 771, 772, 773, 774, 775, 776, 777, 778, 779, 780, 781, 782, 783, 784, 785, 786, 787, 788, 789, 790, 791, 792, 793, 794, 795, 796, 797, 798, 799, 800, 801, 802, 803, 804, 805, 806, 807, 808, 809, 810, 811, 812, 813, 814, 815, 816, 817, 818, 819, 820, 821, 822, 823, 824, 825, 826, 827, 828, 829, 830, 831, 832, 833, 834, 835, 836, 837, 838, 839, 840, 841, 842, 843, 844, 845, 846, 847, 848, 849, 850, 851, 852, 853, 854, 855, 856, 857, 858, 859, 860, 861, 862, 863, 864, 865, 866, 867, 868, 869, 870, 871, 872, 873, 874, 875, 876, 877, 878, 879, 880, 881, 882, 883, 884, 885, 886, 887, 888, 889, 890, 891, 892, 893, 894, 895, 896, 897, 898, 899, 900, 901, 902, 903, 904, 905, 906, 907, 908, 909, 910, 911, 912, 913, 914, 915, 916, 917, 918, 919, 920, 921, 922, 923, 924, 925, 926, 927, 928, 929, 930, 931, 932, 933, 934, 935, 936, 937, 938, 939, 940, 941, 942, 943, 944, 945, 946, 947, 948, 949, 950, 951, 952, 953, 954, 955, 956, 957, 958, 959, 960, 961, 962, 963, 964, 965, 966, 967, 968, 969, 970, 971, 972, 973, 974, 975, 976, 977, 978, 979, 980, 981, 982, 983, 984, 985, 986, 987, 988, 989, 990, 991, 992, 993, 994, 995, 996, 997, 998, 999, 1000, 1001, 1002, 1003, 1004, 1005, 1006, 1007, 1008, 1009, 1010, 1011, 1012, 1013, 1014, 1015, 1016, 1017, 1018, 1019, 1020, 1021, 1022, 1023, 1024, 1025, 1026, 1027, 1028, 1029, 1030, 1031, 1032, 1033, 1034, 1035, 1036, 1037, 1038, 1039, 1040, 1041, 1042, 1043, 1044, 1045, 1046, 1047, 1048, 1049, 1050, 1051, 1052, 1053, 1054, 1055, 1056, 1057, 1058, 1059, 1060, 1061, 1062, 1063, 1064, 1065, 1066, 1067, 1068, 1069, 1070, 1071, 1072, 1073, 1074, 1075, 1076, 1077, 1078, 1079, 1080, 1081, 1082, 1083, 1084, 1085, 1086, 1087, 1088, 1089, 1090, 1091, 1092, 1093, 1094, 1095, 1096, 1097, 1098, 1099, 1100, 1101, 1102, 1103, 1104, 1105, 1106, 1107, 1108, 1109, 1110, 1111, 1112, 1113, 1114, 1115, 1116, 1117, 1118, 1119, 1120, 1121, 1122, 1123, 1124, 1125, 1126, 1127, 1128, 1129, 1130, 1131, 1132, 1133, 1134, 1135, 1136, 1137, 1138, 1139, 1140, 1141, 1142, 1143, 1144, 1145, 1146, 1147, 1148, 1149, 1150, 1151, 1152, 1153, 1154, 1155, 1156, 1157, 1158, 1159, 1160, 1161, 1162, 1163, 1164, 1165, 1166, 1167, 1168, 1169, 1170, 1171, 1172, 1173, 1174, 1175, 1176, 1177, 1178, 1179, 1180, 1181, 1182, 1183, 1184, 1185, 1186, 1187, 1188, 1189, 1190, 1191, 1192, 1193, 1194, 1195, 1196, 1197, 1198, 1199, 1200, 1201, 1202, 1203, 1204, 1205, 1206, 1207, 1208, 1209, 1210, 1211, 1212, 1213, 1214, 1215, 1216, 1217, 1218, 1219, 1220, 1221, 1222, 1223, 1224, 1225, 1226, 1227, 1228, 1229, 1230, 1231, 1232, 1233, 1234, 1235, 1236, 1237, 1238, 1239, 1240, 1241, 1242, 1243, 1244, 1245, 1246, 1247, 1248, 1249, 1250, 1251, 1252, 1253, 1254, 1255, 1256, 1257, 1258, 1259, 1260, 1261, 1262, 1263, 1264, 1265, 1266, 1267, 1268, 1269, 1270, 1271, 1272, 1273, 1274, 1275, 1276, 1277, 1278, 1279, 1280, 1281, 1282, 1283, 1284, 1285, 1286, 1287, 1288, 1289, 1290, 1291, 1292, 1293, 1294, 1295, 1296, 1297, 1298, 1299, 1300, 1301, 1302, 1303, 1304, 1305, 1306, 1307, 1308, 1309, 1310, 1311, 1312, 1313, 1314, 1315, 1316, 1317, 1318, 1319, 1320, 1321, 1322, 1323, 1324, 1325, 1326, 1327, 1328, 1329, 1330, 1331, 1332, 1333, 1334, 1335, 1336, 1337, 1338, 1339, 1340, 1341, 1342, 1343, 1344, 1345, 1346, 1347, 1348, 1349, 1350, 1351, 1352, 1353, 1354, 1355, 1356, 1357, 1358, 1359, 1360, 1361, 1362, 1363, 1364, 1365, 1366, 1367, 1368, 1369, 1370, 1371, 1372, 1373, 1374, 1375, 1376, 1377, 1378, 1379, 1380, 1381, 1382, 1383, 1384, 1385, 1386, 1387, 1388, 1389, 1390, 1391, 1392, 1393, 1394, 1395, 1396, 1397, 1398, 1399, 1400, 1401, 1402, 1403, 1404, 1405, 1406, 1407, 1408, 1409, 1410, 1411, 1412, 1413, 1414, 1415, 1416, 1417, 1418, 1419, 1420, 1421, 1422, 1423, 1424, 1425, 1426, 1427, 1428, 1429, 1430, 1431, 1432, 1433, 1434, 1435, 1436, 1437, 1438, 1439, 1440, 1441, 1442, 1443, 1444, 1445, 1446, 1447, 1448, 1449, 1450, 1451, 1452, 1453, 1454, 1455, 1456, 1457, 1458, 1459, 1460, 1461, 1462, 1463, 1464, 1465, 1466, 1467, 1468, 1469, 1470, 1471, 1472, 1473, 1474, 1475, 1476, 1477, 1478, 1479, 1480, 1481, 1482, 1483, 1484, 1485, 1486, 1487, 1488, 1489, 1490, 1491, 1492, 1493, 1494, 1495, 1496, 1497, 1498, 1499, 1500, 1501, 1502, 1503, 1504, 1505, 1506, 1507, 1508, 1509, 1510, 1511, 1512, 1513, 1514, 1515, 1516, 1517, 1518, 1519, 1520, 1521, 1522, 1523, 1524, 1525, 1526, 1527, 1528, 1529, 1530, 1531, 1532, 1533, 1534, 1535, 1536, 1537, 1538, 1539, 1540, 1541, 1542, 1543, 1544, 1545, 1546, 1547, 1548, 1549, 1550, 1551, 1552, 1553, 1554, 1555, 1556, 1557, 1558, 1559, 1560, 1561, 1562, 1563, 1564, 1565, 1566, 1567, 1568, 1569, 1570, 1571, 1572, 1573, 1574, 1575, 1576, 1577, 1578, 1579, 1580, 1581, 1582, 1583, 1584, 1585, 1586, 1587, 1588, 1589, 1590, 1591, 1592, 1593, 1594, 1595, 1596, 1597, 1598, 1599, 1600, 1601, 1602, 1603, 1604, 1605, 1606, 1607, 1608],
      "AcquisitionTime": ["132523.110000", "132524.610000", "132526.110000", "132527.610000", "132529.110000", "132530.610000", "132532.110000", "132533.610000", "132535.110000", "132536.610000", "132538.110000", "132539.610000", "132541.110000", "132542.610000", "132544.110000", "132545.610000", "132547.110000", "132548.610000", "132550.110000", "132551.610000", "132553.110000", "132554.610000", "132556.110000", "132557.610000", "132559.110000", "132600.610000", "132602.110000", "132603.610000", "132605.110000", "132606.610000", "132608.110000", "132609.610000", "132611.110000", "132612.610000", "132614.110000", "132615.610000", "132617.110000", "132618.610000", "132620.110000", "132621.610000", "132623.110000", "132624.610000", "132626.110000", "132627.610000", "132629.110000", "132630.610000", "132632.110000", "132633.610000", "132635.110000", "132636.610000", "132638.110000", "132639.610000", "132641.110000", "132642.610000", "132644.110000", "132645.610000", "132647.110000", "132648.610000", "132650.110000", "132651.610000", "132653.110000", "132654.610000", "132656.110000", "132657.610000", "132659.110000", "132700.610000", "132702.110000", "132703.610000", "132705.110000", "132706.610000", "132708.110000", "132709.610000", "132711.110000", "132712.610000", "132714.110000", "132715.610000", "132717.110000", "132718.610000", "132720.110000", "132721.610000", "132723.110000", "132724.610000", "132726.110000", "132727.610000", "132729.110000", "132730.610000", "132732.110000", "132733.610000", "132735.110000", "132736.610000", "132738.110000", "132739.610000", "132741.110000", "132742.610000", "132744.110000", "132745.610000", "132747.110000", "132748.610000", "132750.110000", "132751.610000", "132753.110000", "132754.610000", "132756.110000", "132757.610000", "132759.110000", "132800.610000", "132802.110000", "132803.610000", "132805.110000", "132806.610000", "132808.110000", "132809.610000", "132811.110000", "132812.610000", "132814.110000", "132815.610000", "132817.110000", "132818.610000", "132820.110000", "132821.610000", "132823.110000", "132824.610000", "132826.110000", "132827.610000", "132829.110000", "132830.610000", "132832.110000", "132833.610000", "132835.110000", "132836.610000", "132838.110000", "132839.610000", "132841.110000", "132842.610000", "132844.110000", "132845.610000", "132847.110000", "132848.610000", "132850.110000", "132851.610000", "132853.110000", "132854.610000", "132856.110000", "132857.610000", "132859.110000", "132900.610000", "132902.110000", "132903.610000", "132905.110000", "132906.610000", "132908.110000", "132909.610000", "132911.110000", "132912.610000", "132914.110000", "132915.610000", "132917.110000", "132918.610000", "132920.110000", "132921.610000", "132923.110000", "132924.610000", "132926.110000", "132927.610000", "132929.110000", "132930.610000", "132932.110000", "132933.610000", "132935.110000", "132936.610000", "132938.110000", "132939.610000", "132941.110000", "132942.610000", "132944.110000", "132945.610000", "132947.110000", "132948.610000", "132950.110000", "132951.610000", "132953.110000", "132954.610000", "132956.110000", "132957.610000", "132959.110000", "133000.610000", "133002.110000", "133003.610000", "133005.110000", "133006.610000", "133008.110000", "133009.610000", "133011.110000", "133012.610000", "133014.110000", "133015.610000", "133017.110000", "133018.610000", "133020.110000", "133021.610000", "133023.110000", "133024.610000", "133026.110000", "133027.610000", "133029.110000", "133030.610000", "133032.110000", "133033.610000", "133035.110000", "133036.610000", "133038.110000", "133039.610000", "133041.110000", "133042.610000", "133044.110000", "133045.610000", "133047.110000", "133048.610000", "133050.110000", "133051.610000", "133053.110000", "133054.610000", "133056.110000", "133057.610000", "133059.110000", "133100.610000", "133102.110000", "133103.610000", "133105.110000", "133106.610000", "133108.110000", "133109.610000", "133111.110000", "133112.610000", "133114.110000", "133115.610000", "133117.110000", "133118.610000", "133120.110000", "133121.610000", "133123.110000", "133124.610000", "133126.110000", "133127.610000", "133129.110000", "133130.610000", "133132.110000", "133133.610000", "133135.110000", "133136.610000", "133138.110000", "133139.610000", "133141.110000", "133142.610000", "133144.110000", "133145.610000", "133147.110000", "133148.610000", "133150.110000", "133151.610000", "133153.110000", "133154.610000", "133156.110000", "133157.610000", "133159.110000", "133200.610000", "133202.110000", "133203.610000", "133205.110000", "133206.610000", "133208.110000", "133209.610000", "133211.110000", "133212.610000", "133214.110000", "133215.610000", "133217.110000", "133218.610000", "133220.110000", "133221.610000", "133223.110000", "133224.610000", "133226.110000", "133227.610000", "133229.110000", "133230.610000", "133232.110000", "133233.610000", "133235.110000", "133236.610000", "133238.110000", "133239.610000", "133241.110000", "133242.610000", "133244.110000", "133245.610000", "133247.110000", "133248.610000", "133250.110000", "133251.610000", "133253.110000", "133254.610000", "133256.110000", "133257.610000", "133259.110000", "133300.610000", "133302.110000", "133303.610000", "133305.110000", "133306.610000", "133308.110000", "133309.610000", "133311.110000", "133312.610000", "133314.110000", "133315.610000", "133317.110000", "133318.610000", "133320.110000", "133321.610000", "133323.110000", "133324.610000", "133326.110000", "133327.610000", "133329.110000", "133330.610000", "133332.110000", "133333.610000", "133335.110000", "133336.610000", "133338.110000", "133339.610000", "133341.110000", "133342.610000", "133344.110000", "133345.610000", "133347.110000", "133348.610000", "133350.110000", "133351.610000", "133353.110000", "133354.610000", "133356.110000", "133357.610000", "133359.110000", "133400.610000", "133402.110000", "133403.610000", "133405.110000", "133406.610000", "133408.110000", "133409.610000", "133411.110000", "133412.610000", "133414.110000", "133415.610000", "133417.110000", "133418.610000", "133420.110000", "133421.610000", "133423.110000", "133424.610000", "133426.110000", "133427.610000", "133429.110000", "133430.610000", "133432.110000", "133433.610000", "133435.110000", "133436.610000", "133438.110000", "133439.610000", "133441.110000", "133442.610000", "133444.110000", "133445.610000", "133447.110000", "133448.610000", "133450.110000", "133451.610000", "133453.110000", "133454.610000", "133456.110000", "133457.610000", "133459.110000", "133500.610000", "133502.110000", "133503.610000", "133505.110000", "133506.610000", "133508.110000", "133509.610000", "133511.110000", "133512.610000", "133514.110000", "133515.610000", "133517.110000", "133518.610000", "133520.110000", "133521.610000", "133523.110000", "133524.610000", "133526.110000", "133527.610000", "133529.110000", "133530.610000", "133532.110000", "133533.610000", "133535.110000", "133536.610000", "133538.110000", "133539.610000", "133541.110000", "133542.610000", "133544.110000", "133545.610000", "133547.110000", "133548.610000", "133550.110000", "133551.610000", "133553.110000", "133554.610000", "133556.110000", "133557.610000", "133559.110000", "133600.610000", "133602.110000", "133603.610000", "133605.110000", "133606.610000", "133608.110000", "133609.610000", "133611.110000", "133612.610000", "133614.110000", "133615.610000", "133617.110000", "133618.610000", "133620.110000", "133621.610000", "133623.110000", "133624.610000", "133626.110000", "133627.610000", "133629.110000", "133630.610000", "133632.110000", "133633.610000", "133635.110000", "133636.610000", "133638.110000", "133639.610000", "133641.110000", "133642.610000", "133644.110000", "133645.610000", "133647.110000", "133648.610000", "133650.110000", "133651.610000", "133653.110000", "133654.610000", "133656.110000", "133657.610000", "133659.110000", "133700.610000", "133702.110000", "133703.610000", "133705.110000", "133706.610000", "133708.110000", "133709.610000", "133711.110000", "133712.610000", "133714.110000", "133715.610000", "133717.110000", "133718.610000", "133720.110000", "133721.610000", "133723.110000", "133724.610000", "133726.110000", "133727.610000", "133729.110000", "133730.610000", "133732.110000", "133733.610000", "133735.110000", "133736.610000", "133738.110000", "133739.610000", "133741.110000", "133742.610000", "133744.110000", "133745.610000", "133747.110000", "133748.610000", "133750.110000", "133751.610000", "133753.110000", "133754.610000", "133756.110000", "133757.610000", "133759.110000", "133800.610000", "133802.110000", "133803.610000", "133805.110000", "133806.610000", "133808.110000", "133809.610000", "133811.110000", "133812.610000", "133814.110000", "133815.610000", "133817.110000", "133818.610000", "133820.110000", "133821.610000", "133823.110000", "133824.610000", "133826.110000", "133827.610000", "133829.110000", "133830.610000", "133832.110000", "133833.610000", "133835.110000", "133836.610000", "133838.110000", "133839.610000", "133841.110000", "133842.610000", "133844.110000", "133845.610000", "133847.110000", "133848.610000", "133850.110000", "133851.610000", "133853.110000", "133854.610000", "133856.110000", "133857.610000", "133859.110000", "133900.610000", "133902.110000", "133903.610000", "133905.110000", "133906.610000", "133908.110000", "133909.610000", "133911.110000", "133912.610000", "133914.110000", "133915.610000", "133917.110000", "133918.610000", "133920.110000", "133921.610000", "133923.110000", "133924.610000", "133926.110000", "133927.610000", "133929.110000", "133930.610000", "133932.110000", "133933.610000", "133935.110000", "133936.610000", "133938.110000", "133939.610000", "133941.110000", "133942.610000", "133944.110000", "133945.610000", "133947.110000", "133948.610000", "133950.110000", "133951.610000", "133953.110000", "133954.610000", "133956.110000", "133957.610000", "133959.110000", "134000.610000", "134002.110000", "134003.610000", "134005.110000", "134006.610000", "134008.110000", "134009.610000", "134011.110000", "134012.610000", "134014.110000", "134015.610000", "134017.110000", "134018.610000", "134020.110000", "134021.610000", "134023.110000", "134024.610000", "134026.110000", "134027.610000", "134029.110000", "134030.610000", "134032.110000", "134033.610000", "134035.110000", "134036.610000", "134038.110000", "134039.610000", "134041.110000", "134042.610000", "134044.110000", "134045.610000", "134047.110000", "134048.610000", "134050.110000", "134051.610000", "134053.110000", "134054.610000", "134056.110000", "134057.610000", "134059.110000", "134100.610000", "134102.110000", "134103.610000", "134105.110000", "134106.610000", "134108.110000", "134109.610000", "134111.110000", "134112.610000", "134114.110000", "134115.610000", "134117.110000", "134118.610000", "134120.110000", "134121.610000", "134123.110000", "134124.610000", "134126.110000", "134127.610000", "134129.110000", "134130.610000", "134132.110000", "134133.610000", "134135.110000", "134136.610000", "134138.110000", "134139.610000", "134141.110000", "134142.610000", "134144.110000", "134145.610000", "134147.110000", "134148.610000", "134150.110000", "134151.610000", "134153.110000", "134154.610000", "134156.110000", "134157.610000", "134159.110000", "134200.610000", "134202.110000", "134203.610000", "134205.110000", "134206.610000", "134208.110000", "134209.610000", "134211.110000", "134212.610000", "134214.110000", "134215.610000", "134217.110000", "134218.610000", "134220.110000", "134221.610000", "134223.110000", "134224.610000", "134226.110000", "134227.610000", "134229.110000", "134230.610000", "134232.110000", "134233.610000", "134235.110000", "134236.610000", "134238.110000", "134239.610000", "134241.110000", "134242.610000", "134244.110000", "134245.610000", "134247.110000", "134248.610000", "134250.110000", "134251.610000", "134253.110000", "134254.610000", "134256.110000", "134257.610000", "134259.110000", "134300.610000", "134302.110000", "134303.610000", "134305.110000", "134306.610000", "134308.110000", "134309.610000", "134311.110000", "134312.610000", "134314.110000", "134315.610000", "134317.110000", "134318.610000", "134320.110000", "134321.610000", "134323.110000", "134324.610000", "134326.110000", "134327.610000", "134329.110000", "134330.610000", "134332.110000", "134333.610000", "134335.110000", "134336.610000", "134338.110000", "134339.610000", "134341.110000", "134342.610000", "134344.110000", "134345.610000", "134347.110000", "134348.610000", "134350.110000", "134351.610000", "134353.110000", "134354.610000", "134356.110000", "134357.610000", "134359.110000", "134400.610000", "134402.110000", "134403.610000", "134405.110000", "134406.610000", "134408.110000", "134409.610000", "134411.110000", "134412.610000", "134414.110000", "134415.610000", "134417.110000", "134418.610000", "134420.110000", "134421.610000", "134423.110000", "134424.610000", "134426.110000", "134427.610000", "134429.110000", "134430.610000", "134432.110000", "134433.610000", "134435.110000", "134436.610000", "134438.110000", "134439.610000", "134441.110000", "134442.610000", "134444.110000", "134445.610000", "134447.110000", "134448.610000", "134450.110000", "134451.610000", "134453.110000", "134454.610000", "134456.110000", "134457.610000", "134459.110000", "134500.610000", "134502.110000", "134503.610000", "134505.110000", "134506.610000", "134508.110000", "134509.610000", "134511.110000", "134512.610000", "134514.110000", "134515.610000", "134517.110000", "134518.610000", "134520.110000", "134521.610000", "134523.110000", "134524.610000", "134526.110000", "134527.610000", "134529.110000", "134530.610000", "134532.110000", "134533.610000", "134535.110000", "134536.610000", "134538.110000", "134539.610000", "134541.110000", "134542.610000", "134544.110000", "134545.610000", "134547.110000", "134548.610000", "134550.110000", "134551.610000", "134553.110000", "134554.610000", "134556.110000", "134557.610000", "134559.110000", "134600.610000", "134602.110000", "134603.610000", "134605.110000", "134606.610000", "134608.110000", "134609.610000", "134611.110000", "134612.610000", "134614.110000", "134615.610000", "134617.110000", "134618.610000", "134620.110000", "134621.610000", "134623.110000", "134624.610000", "134626.110000", "134627.610000", "134629.110000", "134630.610000", "134632.110000", "134633.610000", "134635.110000", "134636.610000", "134638.110000", "134639.610000", "134641.110000", "134642.610000", "134644.110000", "134645.610000", "134647.110000", "134648.610000", "134650.110000", "134651.610000", "134653.110000", "134654.610000", "134656.110000", "134657.610000", "134659.110000", "134700.610000", "134702.110000", "134703.610000", "134705.110000", "134706.610000", "134708.110000", "134709.610000", "134711.110000", "134712.610000", "134714.110000", "134715.610000", "134717.110000", "134718.610000", "134720.110000", "134721.610000", "134723.110000", "134724.610000", "134726.110000", "134727.610000", "134729.110000", "134730.610000", "134732.110000", "134733.610000", "134735.110000", "134736.610000", "134738.110000", "134739.610000", "134741.110000", "134742.610000", "134744.110000", "134745.610000", "134747.110000", "134748.610000", "134750.110000", "134751.610000", "134753.110000", "134754.610000", "134756.110000", "134757.610000", "134759.110000", "134800.610000", "134802.110000", "134803.610000", "134805.110000", "134806.610000", "134808.110000", "134809.610000", "134811.110000", "134812.610000", "134814.110000", "134815.610000", "134817.110000", "134818.610000", "134820.110000", "134821.610000", "134823.110000", "134824.610000", "134826.110000", "134827.610000", "134829.110000", "134830.610000", "134832.110000", "134833.610000", "134835.110000", "134836.610000", "13