{
  "AcquisitionMatrixPE": 106,
  "AcquisitionNumber": 1,
  "AcquisitionTime": "18:44:54.000000",
  "BandwidthPerPixelPhaseEncode": 16.846,
  "BaseResolution": 106,
  "BodyPartExamined": "BRAIN",
  "CoilCombinationMethod": "Sum of Squares",
  "ConsistencyInfo": "N4_VE11C_LATEST_20160120",
  "ConversionSoftware": "dcm2niix",
  "ConversionSoftwareVersion": "v1.0.20220720",
  "DerivedVendorReportedEchoSpacing": 0.000560012,
  "DeviceSerialNumber": "166108",
  "DwellTime": 1.8e-06,
  "EchoTime": 0.0352,
  "EchoTrainLength": 106,
  "EffectiveEchoSpacing": 0.000560012,
  "FlipAngle": 60,
  "HeudiconvVersion": "1.3.0",
  "ImageComments": "Unaliased MB4/PE3/LB",
  "ImageOrientationPatientDICOM": [1, 0, 0, 0, 1, 0],
  "ImageOrientationText": "Tra",
  "ImageType": [
    "ORIGINAL",
    "PRIMARY",
    "M",
    "MB",
    "ND",
    "MOSAIC"
],
  "ImagingFrequency": 123.244,
  "InPlanePhaseEncodingDirectionDICOM": "COL",
  "InstitutionAddress": "Bedford Way 26,London,London,GB,WC1H 0AP",
  "InstitutionName": "University College",
  "InstitutionalDepartmentName": "Department",
  "MRAcquisitionType": "2D",
  "MagneticFieldStrength": 3,
  "Manufacturer": "Siemens",
  "ManufacturersModelName": "Prisma",
  "MatrixCoilMode": "SENSE",
  "Modality": "MR",
  "MultibandAccelerationFactor": 4,
  "NonlinearGradientCorrection": false,
  "PartialFourier": 1,
  "PatientPosition": "HFS",
  "PercentPhaseFOV": 100,
  "PercentSampling": 100,
  "PhaseEncodingDirection": "j-",
  "PhaseEncodingSteps": 106,
  "PhaseResolution": 1,
  "PixelBandwidth": 2620,
  "ProcedureStepDescription": "Egor^MovieProject2",
  "ProtocolName": "task-backtothefuture_run-2",
  "PulseSequenceDetails": "%CustomerSeq%\\cmrr_mbep2d_bold",
  "ReceiveCoilActiveElements": "HEA;HEP",
  "ReceiveCoilName": "Head_32",
  "ReconMatrixPE": 106,
  "RepetitionTime": 1.5,
  "SAR": 0.0725215,
  "ScanOptions": "FS\\EXT",
  "ScanningSequence": "EP",
  "SequenceName": "epfid2d1_106",
  "SequenceVariant": "SK\\SS",
  "SeriesDescription": "task-backtothefuture_run-2",
  "SeriesNumber": 7,
  "ShimSetting": [-1530, 588, 7426, 129, -19, 43, -29, -49],
  "SliceThickness": 2,
  "SliceTiming": [0, 1.07, 0.6575, 0.2475, 1.315, 0.905, 0.4925, 0.0825, 1.15, 0.74, 0.33, 1.3975, 0.9875, 0.575, 0.165, 1.2325, 0.8225, 0.41, 0, 1.07, 0.6575, 0.2475, 1.315, 0.905, 0.4925, 0.0825, 1.15, 0.74, 0.33, 1.3975, 0.9875, 0.575, 0.165, 1.2325, 0.8225, 0.41, 0, 1.07, 0.6575, 0.2475, 1.315, 0.905, 0.4925, 0.0825, 1.15, 0.74, 0.33, 1.3975, 0.9875, 0.575, 0.165, 1.2325, 0.8225, 0.41, 0, 1.07, 0.6575, 0.2475, 1.315, 0.905, 0.4925, 0.0825, 1.15, 0.74, 0.33, 1.3975, 0.9875, 0.575, 0.165, 1.2325, 0.8225, 0.41],
  "SoftwareVersions": "syngo MR E11",
  "SpacingBetweenSlices": 2,
  "StationName": "AWP166108",
  "TaskName": "backtothefuture",
  "TotalReadoutTime": 0.0588013,
  "TxRefAmp": 240.793,
  "WipMemBlock": "02c1f899-c7a8-4629-94f3-b01a9f1a3990||Sequence: R016 ve11c/master r/e634e98; Dec 19 2017 11:00:25 by eja",
  "dcmmeta_affine": [
    [-2.0, 0.0, 0.0, 106.0],
    [0.0, 2.0, 0.0, -93.759033203125],
    [0.0, 0.0, 2.0, -58.95180892944336],
    [0.0, 0.0, 0.0, 1.0]
],
  "dcmmeta_reorient_transform": [
    [0.0, -1.0, 0.0, 105.0],
    [1.0, 0.0, 0.0, 0.0],
    [0.0, 0.0, 1.0, 0.0],
    [0.0, 0.0, 0.0, 1.0]
],
  "dcmmeta_shape": [106, 106, 72, 1522],
  "dcmmeta_slice_dim": 2,
  "dcmmeta_version": 0.6,
  "global": {
    "const": {
      "AcquisitionMatrix": [106, 0, 0, 106],
      "AngioFlag": "N",
      "BitsAllocated": 16,
      "BitsStored": 16,
      "BodyPartExamined": "BRAIN",
      "CardiacNumberOfImages": 1,
      "Columns": 954,
      "EchoNumbers": 1,
      "EchoTime": 35.2,
      "EchoTrainLength": 106,
      "FlipAngle": 60.0,
      "HighBit": 15,
      "ImageOrientationPatient": [1.0, 0.0, 0.0, 0.0, 1.0, 0.0],
      "ImagePositionPatient": [-954.0, -964.24096393585, -58.951808929443],
      "ImageType": [
        "ORIGINAL",
        "PRIMARY",
        "M",
        "MB",
        "ND",
        "MOSAIC"
],
      "ImagedNucleus": "1H",
      "ImagingFrequency": 123.243642,
      "InPlanePhaseEncodingDirection": "COL",
      "MRAcquisitionType": "2D",
      "MagneticFieldStrength": 3.0,
      "Manufacturer": "SIEMENS",
      "ManufacturerModelName": "Prisma",
      "Modality": "MR",
      "NominalInterval": 0,
      "NumberOfAverages": 1.0,
      "NumberOfPhaseEncodingSteps": 106,
      "PercentPhaseFieldOfView": 100.0,
      "PercentSampling": 100.0,
      "PerformedProcedureStepStartTime": "173747.143000",
      "PhotometricInterpretation": "MONOCHROME2",
      "PixelBandwidth": 2620.0,
      "PixelRepresentation": 0,
      "PixelSpacing": [2.0, 2.0],
      "ProtocolName": "task-backtothefuture_run-2",
      "RepetitionTime": 1500.0,
      "Rows": 954,
      "SAR": 0.07252146406439,
      "SamplesPerPixel": 1,
      "ScanOptions": [
        "FS",
        "EXT"
],
      "ScanningSequence": "EP",
      "SequenceName": "epfid2d1_106",
      "SequenceVariant": [
        "SK",
        "SS"
],
      "SeriesDescription": "task-backtothefuture_run-2",
      "SeriesNumber": 7,
      "SeriesTime": "184535.038000",
      "SliceLocation": -58.951808929443,
      "SliceThickness": 2.0,
      "SmallestImagePixelValue": 0,
      "SoftwareVersions": "syngo MR E11",
      "SpacingBetweenSlices": 2.0000000537281,
      "SpecificCharacterSet": "ISO_IR 100",
      "StudyID": "1",
      "StudyTime": "173747.032000",
      "TransmitCoilName": "Body",
      "VariableFlipAngleFlag": "N",
      "WindowCenterWidthExplanation": "Algo1",
      "dBdt": 0.0},
    "slices": {}
  },
  "time": {
    "samples": {
      "AcquisitionNumber": [1, 2, 3, 4, 5, 6, 7, 8, 9, 10, 11, 12, 13, 14, 15, 16, 17, 18, 19, 20, 21, 22, 23, 24, 25, 26, 27, 28, 29, 30, 31, 32, 33, 34, 35, 36, 37, 38, 39, 40, 41, 42, 43, 44, 45, 46, 47, 48, 49, 50, 51, 52, 53, 54, 55, 56, 57, 58, 59, 60, 61, 62, 63, 64, 65, 66, 67, 68, 69, 70, 71, 72, 73, 74, 75, 76, 77, 78, 79, 80, 81, 82, 83, 84, 85, 86, 87, 88, 89, 90, 91, 92, 93, 94, 95, 96, 97, 98, 99, 100, 101, 102, 103, 104, 105, 106, 107, 108, 109, 110, 111, 112, 113, 114, 115, 116, 117, 118, 119, 120, 121, 122, 123, 124, 125, 126, 127, 128, 129, 130, 131, 132, 133, 134, 135, 136, 137, 138, 139, 140, 141, 142, 143, 144, 145, 146, 147, 148, 149, 150, 151, 152, 153, 154, 155, 156, 157, 158, 159, 160, 161, 162, 163, 164, 165, 166, 167, 168, 169, 170, 171, 172, 173, 174, 175, 176, 177, 178, 179, 180, 181, 182, 183, 184, 185, 186, 187, 188, 189, 190, 191, 192, 193, 194, 195, 196, 197, 198, 199, 200, 201, 202, 203, 204, 205, 206, 207, 208, 209, 210, 211, 212, 213, 214, 215, 216, 217, 218, 219, 220, 221, 222, 223, 224, 225, 226, 227, 228, 229, 230, 231, 232, 233, 234, 235, 236, 237, 238, 239, 240, 241, 242, 243, 244, 245, 246, 247, 248, 249, 250, 251, 252, 253, 254, 255, 256, 257, 258, 259, 260, 261, 262, 263, 264, 265, 266, 267, 268, 269, 270, 271, 272, 273, 274, 275, 276, 277, 278, 279, 280, 281, 282, 283, 284, 285, 286, 287, 288, 289, 290, 291, 292, 293, 294, 295, 296, 297, 298, 299, 300, 301, 302, 303, 304, 305, 306, 307, 308, 309, 310, 311, 312, 313, 314, 315, 316, 317, 318, 319, 320, 321, 322, 323, 324, 325, 326, 327, 328, 329, 330, 331, 332, 333, 334, 335, 336, 337, 338, 339, 340, 341, 342, 343, 344, 345, 346, 347, 348, 349, 350, 351, 352, 353, 354, 355, 356, 357, 358, 359, 360, 361, 362, 363, 364, 365, 366, 367, 368, 369, 370, 371, 372, 373, 374, 375, 376, 377, 378, 379, 380, 381, 382, 383, 384, 385, 386, 387, 388, 389, 390, 391, 392, 393, 394, 395, 396, 397, 398, 399, 400, 401, 402, 403, 404, 405, 406, 407, 408, 409, 410, 411, 412, 413, 414, 415, 416, 417, 418, 419, 420, 421, 422, 423, 424, 425, 426, 427, 428, 429, 430, 431, 432, 433, 434, 435, 436, 437, 438, 439, 440, 441, 442, 443, 444, 445, 446, 447, 448, 449, 450, 451, 452, 453, 454, 455, 456, 457, 458, 459, 460, 461, 462, 463, 464, 465, 466, 467, 468, 469, 470, 471, 472, 473, 474, 475, 476, 477, 478, 479, 480, 481, 482, 483, 484, 485, 486, 487, 488, 489, 490, 491, 492, 493, 494, 495, 496, 497, 498, 499, 500, 501, 502, 503, 504, 505, 506, 507, 508, 509, 510, 511, 512, 513, 514, 515, 516, 517, 518, 519, 520, 521, 522, 523, 524, 525, 526, 527, 528, 529, 530, 531, 532, 533, 534, 535, 536, 537, 538, 539, 540, 541, 542, 543, 544, 545, 546, 547, 548, 549, 550, 551, 552, 553, 554, 555, 556, 557, 558, 559, 560, 561, 562, 563, 564, 565, 566, 567, 568, 569, 570, 571, 572, 573, 574, 575, 576, 577, 578, 579, 580, 581, 582, 583, 584, 585, 586, 587, 588, 589, 590, 591, 592, 593, 594, 595, 596, 597, 598, 599, 600, 601, 602, 603, 604, 605, 606, 607, 608, 609, 610, 611, 612, 613, 614, 615, 616, 617, 618, 619, 620, 621, 622, 623, 624, 625, 626, 627, 628, 629, 630, 631, 632, 633, 634, 635, 636, 637, 638, 639, 640, 641, 642, 643, 644, 645, 646, 647, 648, 649, 650, 651, 652, 653, 654, 655, 656, 657, 658, 659, 660, 661, 662, 663, 664, 665, 666, 667, 668, 669, 670, 671, 672, 673, 674, 675, 676, 677, 678, 679, 680, 681, 682, 683, 684, 685, 686, 687, 688, 689, 690, 691, 692, 693, 694, 695, 696, 697, 698, 699, 700, 701, 702, 703, 704, 705, 706, 707, 708, 709, 710, 711, 712, 713, 714, 715, 716, 717, 718, 719, 720, 721, 722, 723, 724, 725, 726, 727, 728, 729, 730, 731, 732, 733, 734, 735, 736, 737, 738, 739, 740, 741, 742, 743, 744, 745, 746, 747, 748, 749, 750, 751, 752, 753, 754, 755, 756, 757, 758, 759, 760, 761, 762, 763, 764, 765, 766, 767, 768, 769, 770, 771, 772, 773, 774, 775, 776, 777, 778, 779, 780, 781, 782, 783, 784, 785, 786, 787, 788, 789, 790, 791, 792, 793, 794, 795, 796, 797, 798, 799, 800, 801, 802, 803, 804, 805, 806, 807, 808, 809, 810, 811, 812, 813, 814, 815, 816, 817, 818, 819, 820, 821, 822, 823, 824, 825, 826, 827, 828, 829, 830, 831, 832, 833, 834, 835, 836, 837, 838, 839, 840, 841, 842, 843, 844, 845, 846, 847, 848, 849, 850, 851, 852, 853, 854, 855, 856, 857, 858, 859, 860, 861, 862, 863, 864, 865, 866, 867, 868, 869, 870, 871, 872, 873, 874, 875, 876, 877, 878, 879, 880, 881, 882, 883, 884, 885, 886, 887, 888, 889, 890, 891, 892, 893, 894, 895, 896, 897, 898, 899, 900, 901, 902, 903, 904, 905, 906, 907, 908, 909, 910, 911, 912, 913, 914, 915, 916, 917, 918, 919, 920, 921, 922, 923, 924, 925, 926, 927, 928, 929, 930, 931, 932, 933, 934, 935, 936, 937, 938, 939, 940, 941, 942, 943, 944, 945, 946, 947, 948, 949, 950, 951, 952, 953, 954, 955, 956, 957, 958, 959, 960, 961, 962, 963, 964, 965, 966, 967, 968, 969, 970, 971, 972, 973, 974, 975, 976, 977, 978, 979, 980, 981, 982, 983, 984, 985, 986, 987, 988, 989, 990, 991, 992, 993, 994, 995, 996, 997, 998, 999, 1000, 1001, 1002, 1003, 1004, 1005, 1006, 1007, 1008, 1009, 1010, 1011, 1012, 1013, 1014, 1015, 1016, 1017, 1018, 1019, 1020, 1021, 1022, 1023, 1024, 1025, 1026, 1027, 1028, 1029, 1030, 1031, 1032, 1033, 1034, 1035, 1036, 1037, 1038, 1039, 1040, 1041, 1042, 1043, 1044, 1045, 1046, 1047, 1048, 1049, 1050, 1051, 1052, 1053, 1054, 1055, 1056, 1057, 1058, 1059, 1060, 1061, 1062, 1063, 1064, 1065, 1066, 1067, 1068, 1069, 1070, 1071, 1072, 1073, 1074, 1075, 1076, 1077, 1078, 1079, 1080, 1081, 1082, 1083, 1084, 1085, 1086, 1087, 1088, 1089, 1090, 1091, 1092, 1093, 1094, 1095, 1096, 1097, 1098, 1099, 1100, 1101, 1102, 1103, 1104, 1105, 1106, 1107, 1108, 1109, 1110, 1111, 1112, 1113, 1114, 1115, 1116, 1117, 1118, 1119, 1120, 1121, 1122, 1123, 1124, 1125, 1126, 1127, 1128, 1129, 1130, 1131, 1132, 1133, 1134, 1135, 1136, 1137, 1138, 1139, 1140, 1141, 1142, 1143, 1144, 1145, 1146, 1147, 1148, 1149, 1150, 1151, 1152, 1153, 1154, 1155, 1156, 1157, 1158, 1159, 1160, 1161, 1162, 1163, 1164, 1165, 1166, 1167, 1168, 1169, 1170, 1171, 1172, 1173, 1174, 1175, 1176, 1177, 1178, 1179, 1180, 1181, 1182, 1183, 1184, 1185, 1186, 1187, 1188, 1189, 1190, 1191, 1192, 1193, 1194, 1195, 1196, 1197, 1198, 1199, 1200, 1201, 1202, 1203, 1204, 1205, 1206, 1207, 1208, 1209, 1210, 1211, 1212, 1213, 1214, 1215, 1216, 1217, 1218, 1219, 1220, 1221, 1222, 1223, 1224, 1225, 1226, 1227, 1228, 1229, 1230, 1231, 1232, 1233, 1234, 1235, 1236, 1237, 1238, 1239, 1240, 1241, 1242, 1243, 1244, 1245, 1246, 1247, 1248, 1249, 1250, 1251, 1252, 1253, 1254, 1255, 1256, 1257, 1258, 1259, 1260, 1261, 1262, 1263, 1264, 1265, 1266, 1267, 1268, 1269, 1270, 1271, 1272, 1273, 1274, 1275, 1276, 1277, 1278, 1279, 1280, 1281, 1282, 1283, 1284, 1285, 1286, 1287, 1288, 1289, 1290, 1291, 1292, 1293, 1294, 1295, 1296, 1297, 1298, 1299, 1300, 1301, 1302, 1303, 1304, 1305, 1306, 1307, 1308, 1309, 1310, 1311, 1312, 1313, 1314, 1315, 1316, 1317, 1318, 1319, 1320, 1321, 1322, 1323, 1324, 1325, 1326, 1327, 1328, 1329, 1330, 1331, 1332, 1333, 1334, 1335, 1336, 1337, 1338, 1339, 1340, 1341, 1342, 1343, 1344, 1345, 1346, 1347, 1348, 1349, 1350, 1351, 1352, 1353, 1354, 1355, 1356, 1357, 1358, 1359, 1360, 1361, 1362, 1363, 1364, 1365, 1366, 1367, 1368, 1369, 1370, 1371, 1372, 1373, 1374, 1375, 1376, 1377, 1378, 1379, 1380, 1381, 1382, 1383, 1384, 1385, 1386, 1387, 1388, 1389, 1390, 1391, 1392, 1393, 1394, 1395, 1396, 1397, 1398, 1399, 1400, 1401, 1402, 1403, 1404, 1405, 1406, 1407, 1408, 1409, 1410, 1411, 1412, 1413, 1414, 1415, 1416, 1417, 1418, 1419, 1420, 1421, 1422, 1423, 1424, 1425, 1426, 1427, 1428, 1429, 1430, 1431, 1432, 1433, 1434, 1435, 1436, 1437, 1438, 1439, 1440, 1441, 1442, 1443, 1444, 1445, 1446, 1447, 1448, 1449, 1450, 1451, 1452, 1453, 1454, 1455, 1456, 1457, 1458, 1459, 1460, 1461, 1462, 1463, 1464, 1465, 1466, 1467, 1468, 1469, 1470, 1471, 1472, 1473, 1474, 1475, 1476, 1477, 1478, 1479, 1480, 1481, 1482, 1483, 1484, 1485, 1486, 1487, 1488, 1489, 1490, 1491, 1492, 1493, 1494, 1495, 1496, 1497, 1498, 1499, 1500, 1501, 1502, 1503, 1504, 1505, 1506, 1507, 1508, 1509, 1510, 1511, 1512, 1513, 1514, 1515, 1516, 1517, 1518, 1519, 1520, 1521, 1522],
      "AcquisitionTime": ["184454.000000", "184455.500000", "184457.000000", "184458.500000", "184500.000000", "184501.500000", "184503.000000", "184504.500000", "184506.000000", "184507.500000", "184509.000000", "184510.500000", "184512.000000", "184513.500000", "184515.000000", "184516.500000", "184518.000000", "184519.500000", "184521.000000", "184522.500000", "184524.000000", "184525.500000", "184527.000000", "184528.500000", "184530.000000", "184531.500000", "184533.000000", "184534.500000", "184536.000000", "184537.500000", "184539.000000", "184540.500000", "184542.000000", "184543.500000", "184545.000000", "184546.500000", "184548.000000", "184549.500000", "184551.000000", "184552.500000", "184554.000000", "184555.500000", "184557.000000", "184558.500000", "184600.000000", "184601.500000", "184603.000000", "184604.500000", "184606.000000", "184607.500000", "184609.000000", "184610.500000", "184612.000000", "184613.500000", "184615.000000", "184616.500000", "184618.000000", "184619.500000", "184621.000000", "184622.500000", "184624.000000", "184625.500000", "184627.000000", "184628.500000", "184630.000000", "184631.500000", "184633.000000", "184634.500000", "184636.000000", "184637.500000", "184639.000000", "184640.500000", "184642.000000", "184643.500000", "184645.000000", "184646.500000", "184648.000000", "184649.500000", "184651.000000", "184652.500000", "184654.000000", "184655.500000", "184657.000000", "184658.500000", "184700.000000", "184701.500000", "184703.000000", "184704.500000", "184706.000000", "184707.500000", "184709.000000", "184710.500000", "184712.000000", "184713.500000", "184715.000000", "184716.500000", "184718.000000", "184719.500000", "184721.000000", "184722.500000", "184724.000000", "184725.500000", "184727.000000", "184728.500000", "184730.000000", "184731.500000", "184733.000000", "184734.500000", "184736.000000", "184737.500000", "184739.000000", "184740.500000", "184742.000000", "184743.500000", "184745.000000", "184746.500000", "184748.000000", "184749.500000", "184751.000000", "184752.500000", "184754.000000", "184755.500000", "184757.000000", "184758.500000", "184800.000000", "184801.500000", "184803.000000", "184804.500000", "184806.000000", "184807.500000", "184809.000000", "184810.500000", "184812.000000", "184813.500000", "184815.000000", "184816.500000", "184818.000000", "184819.500000", "184821.000000", "184822.500000", "184824.000000", "184825.500000", "184827.000000", "184828.500000", "184830.000000", "184831.500000", "184833.000000", "184834.500000", "184836.000000", "184837.500000", "184839.000000", "184840.500000", "184842.000000", "184843.500000", "184845.000000", "184846.500000", "184848.000000", "184849.500000", "184851.000000", "184852.500000", "184854.000000", "184855.500000", "184857.000000", "184858.500000", "184900.000000", "184901.500000", "184903.000000", "184904.500000", "184906.000000", "184907.500000", "184909.000000", "184910.500000", "184912.000000", "184913.500000", "184915.000000", "184916.500000", "184918.000000", "184919.500000", "184921.000000", "184922.500000", "184924.000000", "184925.500000", "184927.000000", "184928.500000", "184930.000000", "184931.500000", "184933.000000", "184934.500000", "184936.000000", "184937.500000", "184939.000000", "184940.500000", "184942.000000", "184943.500000", "184945.000000", "184946.500000", "184948.000000", "184949.500000", "184951.000000", "184952.500000", "184954.000000", "184955.500000", "184957.000000", "184958.500000", "185000.000000", "185001.500000", "185003.000000", "185004.500000", "185006.000000", "185007.500000", "185009.000000", "185010.500000", "185012.000000", "185013.500000", "185015.000000", "185016.500000", "185018.000000", "185019.500000", "185021.000000", "185022.500000", "185024.000000", "185025.500000", "185027.000000", "185028.500000", "185030.000000", "185031.500000", "185033.000000", "185034.500000", "185036.000000", "185037.500000", "185039.000000", "185040.500000", "185042.000000", "185043.500000", "185045.000000", "185046.500000", "185048.000000", "185049.500000", "185051.000000", "185052.500000", "185054.000000", "185055.500000", "185057.000000", "185058.500000", "185100.000000", "185101.500000", "185103.000000", "185104.500000", "185106.000000", "185107.500000", "185109.000000", "185110.500000", "185112.000000", "185113.500000", "185115.000000", "185116.500000", "185118.000000", "185119.500000", "185121.000000", "185122.500000", "185124.000000", "185125.500000", "185127.000000", "185128.500000", "185130.000000", "185131.500000", "185133.000000", "185134.500000", "185136.000000", "185137.500000", "185139.000000", "185140.500000", "185142.000000", "185143.500000", "185145.000000", "185146.500000", "185148.000000", "185149.500000", "185151.000000", "185152.500000", "185154.000000", "185155.500000", "185157.000000", "185158.500000", "185200.000000", "185201.500000", "185203.000000", "185204.500000", "185206.000000", "185207.500000", "185209.000000", "185210.500000", "185212.000000", "185213.500000", "185215.000000", "185216.500000", "185218.000000", "185219.500000", "185221.000000", "185222.500000", "185224.000000", "185225.500000", "185227.000000", "185228.500000", "185230.000000", "185231.500000", "185233.000000", "185234.500000", "185236.000000", "185237.500000", "185239.000000", "185240.500000", "185242.000000", "185243.500000", "185245.000000", "185246.500000", "185248.000000", "185249.500000", "185251.000000", "185252.500000", "185254.000000", "185255.500000", "185257.000000", "185258.500000", "185300.000000", "185301.500000", "185303.000000", "185304.500000", "185306.000000", "185307.500000", "185309.000000", "185310.500000", "185312.000000", "185313.500000", "185315.000000", "185316.500000", "185318.000000", "185319.500000", "185321.000000", "185322.500000", "185324.000000", "185325.500000", "185327.000000", "185328.500000", "185330.000000", "185331.500000", "185333.000000", "185334.500000", "185336.000000", "185337.500000", "185339.000000", "185340.500000", "185342.000000", "185343.500000", "185345.000000", "185346.500000", "185348.000000", "185349.500000", "185351.000000", "185352.500000", "185354.000000", "185355.500000", "185357.000000", "185358.500000", "185400.000000", "185401.500000", "185403.000000", "185404.500000", "185406.000000", "185407.500000", "185409.000000", "185410.500000", "185412.000000", "185413.500000", "185415.000000", "185416.500000", "185418.000000", "185419.500000", "185421.000000", "185422.500000", "185424.000000", "185425.500000", "185427.000000", "185428.500000", "185430.000000", "185431.500000", "185433.000000", "185434.500000", "185436.000000", "185437.500000", "185439.000000", "185440.500000", "185442.000000", "185443.500000", "185445.000000", "185446.500000", "185448.000000", "185449.500000", "185451.000000", "185452.500000", "185454.000000", "185455.500000", "185457.000000", "185458.500000", "185500.000000", "185501.500000", "185503.000000", "185504.500000", "185506.000000", "185507.500000", "185509.000000", "185510.500000", "185512.000000", "185513.500000", "185515.000000", "185516.500000", "185518.000000", "185519.500000", "185521.000000", "185522.500000", "185524.000000", "185525.500000", "185527.000000", "185528.500000", "185530.000000", "185531.500000", "185533.000000", "185534.500000", "185536.000000", "185537.500000", "185539.000000", "185540.500000", "185542.000000", "185543.500000", "185545.000000", "185546.500000", "185548.000000", "185549.500000", "185551.000000", "185552.500000", "185554.000000", "185555.500000", "185557.000000", "185558.500000", "185600.000000", "185601.500000", "185603.000000", "185604.500000", "185606.000000", "185607.500000", "185609.000000", "185610.500000", "185612.000000", "185613.500000", "185615.000000", "185616.500000", "185618.000000", "185619.500000", "185621.000000", "185622.500000", "185624.000000", "185625.500000", "185627.000000", "185628.500000", "185630.000000", "185631.500000", "185633.000000", "185634.500000", "185636.000000", "185637.500000", "185639.000000", "185640.500000", "185642.000000", "185643.500000", "185645.000000", "185646.500000", "185648.000000", "185649.500000", "185651.000000", "185652.500000", "185654.000000", "185655.500000", "185657.000000", "185658.500000", "185700.000000", "185701.500000", "185703.000000", "185704.500000", "185706.000000", "185707.500000", "185709.000000", "185710.500000", "185712.000000", "185713.500000", "185715.000000", "185716.500000", "185718.000000", "185719.500000", "185721.000000", "185722.500000", "185724.000000", "185725.500000", "185727.000000", "185728.500000", "185730.000000", "185731.500000", "185733.000000", "185734.500000", "185736.000000", "185737.500000", "185739.000000", "185740.500000", "185742.000000", "185743.500000", "185745.000000", "185746.500000", "185748.000000", "185749.500000", "185751.000000", "185752.500000", "185754.000000", "185755.500000", "185757.000000", "185758.500000", "185800.000000", "185801.500000", "185803.000000", "185804.500000", "185806.000000", "185807.500000", "185809.000000", "185810.500000", "185812.000000", "185813.500000", "185815.000000", "185816.500000", "185818.000000", "185819.500000", "185821.000000", "185822.500000", "185824.000000", "185825.500000", "185827.000000", "185828.500000", "185830.000000", "185831.500000", "185833.000000", "185834.500000", "185836.000000", "185837.500000", "185839.000000", "185840.500000", "185842.000000", "185843.500000", "185845.000000", "185846.500000", "185848.000000", "185849.500000", "185851.000000", "185852.500000", "185854.000000", "185855.500000", "185857.000000", "185858.500000", "185900.000000", "185901.500000", "185903.000000", "185904.500000", "185906.000000", "185907.500000", "185909.000000", "185910.500000", "185912.000000", "185913.500000", "185915.000000", "185916.500000", "185918.000000", "185919.500000", "185921.000000", "185922.500000", "185924.000000", "185925.500000", "185927.000000", "185928.500000", "185930.000000", "185931.500000", "185933.000000", "185934.500000", "185936.000000", "185937.500000", "185939.000000", "185940.500000", "185942.000000", "185943.500000", "185945.000000", "185946.500000", "185948.000000", "185949.500000", "185951.000000", "185952.500000", "185954.000000", "185955.500000", "185957.000000", "185958.500000", "190000.000000", "190001.500000", "190003.000000", "190004.500000", "190006.000000", "190007.500000", "190009.000000", "190010.500000", "190012.000000", "190013.500000", "190015.000000", "190016.500000", "190018.000000", "190019.500000", "190021.000000", "190022.500000", "190024.000000", "190025.500000", "190027.000000", "190028.500000", "190030.000000", "190031.500000", "190033.000000", "190034.500000", "190036.000000", "190037.500000", "190039.000000", "190040.500000", "190042.000000", "190043.500000", "190045.000000", "190046.500000", "190048.000000", "190049.500000", "190051.000000", "190052.500000", "190054.000000", "190055.500000", "190057.000000", "190058.500000", "190100.000000", "190101.500000", "190103.000000", "190104.500000", "190106.000000", "190107.500000", "190109.000000", "190110.500000", "190112.000000", "190113.500000", "190115.000000", "190116.500000", "190118.000000", "190119.500000", "190121.000000", "190122.500000", "190124.000000", "190125.500000", "190127.000000", "190128.500000", "190130.000000", "190131.500000", "190133.000000", "190134.500000", "190136.000000", "190137.500000", "190139.000000", "190140.500000", "190142.000000", "190143.500000", "190145.000000", "190146.500000", "190148.000000", "190149.500000", "190151.000000", "190152.500000", "190154.000000", "190155.500000", "190157.000000", "190158.500000", "190200.000000", "190201.500000", "190203.000000", "190204.500000", "190206.000000", "190207.500000", "190209.000000", "190210.500000", "190212.000000", "190213.500000", "190215.000000", "190216.500000", "190218.000000", "190219.500000", "190221.000000", "190222.500000", "190224.000000", "190225.500000", "190227.000000", "190228.500000", "190230.000000", "190231.500000", "190233.000000", "190234.500000", "190236.000000", "190237.500000", "190239.000000", "190240.500000", "190242.000000", "190243.500000", "190245.000000", "190246.500000", "190248.000000", "190249.500000", "190251.000000", "190252.500000", "190254.000000", "190255.500000", "190257.000000", "190258.500000", "190300.000000", "190301.500000", "190303.000000", "190304.500000", "190306.000000", "190307.500000", "190309.000000", "190310.500000", "190312.000000", "190313.500000", "190315.000000", "190316.500000", "190318.000000", "190319.500000", "190321.000000", "190322.500000", "190324.000000", "190325.500000", "190327.000000", "190328.500000", "190330.000000", "190331.500000", "190333.000000", "190334.500000", "190336.000000", "190337.500000", "190339.000000", "190340.500000", "190342.000000", "190343.500000", "190345.000000", "190346.500000", "190348.000000", "190349.500000", "190351.000000", "190352.500000", "190354.000000", "190355.500000", "190357.000000", "190358.500000", "190400.000000", "190401.500000", "190403.000000", "190404.500000", "190406.000000", "190407.500000", "190409.000000", "190410.500000", "190412.000000", "190413.500000", "190415.000000", "190416.500000", "190418.000000", "190419.500000", "190421.000000", "190422.500000", "190424.000000", "190425.500000", "190427.000000", "190428.500000", "190430.000000", "190431.500000", "190433.000000", "190434.500000", "190436.000000", "190437.500000", "190439.000000", "190440.500000", "190442.000000", "190443.500000", "190445.000000", "190446.500000", "190448.000000", "190449.500000", "190451.000000", "190452.500000", "190454.000000", "190455.500000", "190457.000000", "190458.500000", "190500.000000", "190501.500000", "190503.000000", "190504.500000", "190506.000000", "190507.500000", "190509.000000", "190510.500000", "190512.000000", "190513.500000", "190515.000000", "190516.500000", "190518.000000", "190519.500000", "190521.000000", "190522.500000", "190524.000000", "190525.500000", "190527.000000", "190528.500000", "190530.000000", "190531.500000", "190533.000000", "190534.500000", "190536.000000", "190537.500000", "190539.000000", "190540.500000", "190542.000000", "190543.500000", "190545.000000", "190546.500000", "190548.000000", "190549.500000", "190551.000000", "190552.500000", "190554.000000", "190555.500000", "190557.000000", "190558.500000", "190600.000000", "190601.500000", "190603.000000", "190604.500000", "190606.000000", "190607.500000", "190609.000000", "190610.500000", "190612.000000", "190613.500000", "190615.000000", "190616.500000", "190618.000000", "190619.500000", "190621.000000", "190622.500000", "190624.000000", "190625.500000", "190627.000000", "190628.500000", "190630.000000", "190631.500000", "190633.000000", "190634.500000", "190636.000000", "190637.500000", "190639.000000", "190640.500000", "190642.000000", "190643.500000", "190645.000000", "190646.500000", "190648.000000", "190649.500000", "190651.000000", "190652.500000", "190654.000000", "190655.500000", "190657.000000", "190658.500000", "190700.000000", "190701.500000", "190703.000000", "190704.500000", "190706.000000", "190707.500000", "190709.000000", "190710.500000", "190712.000000", "190713.500000", "190715.000000", "190716.500000", "190718.000000", "190719.500000", "190721.000000", "190722.500000", "190724.000000", "190725.500000", "190727.000000", "190728.500000", "190730.000000", "190731.500000", "190733.000000", "190734.500000", "190736.000000", "190737.500000", "190739.000000", "190740.500000", "190742.000000", "190743.500000", "190745.000000", "190746.500000", "190748.000000", "190749.500000", "190751.000000", "190752.500000", "190754.000000", "190755.500000", "190757.000000", "190758.500000", "190800.000000", "190801.500000", "190803.000000", "190804.500000", "190806.000000", "190807.500000", "190809.000000", "190810.500000", "190812.000000", "190813.500000", "190815.000000", "190816.500000", "190818.000000", "190819.500000", "190821.000000", "190822.500000", "190824.000000", "190825.500000", "190827.000000", "190828.500000", "190830.000000", "190831.500000", "190833.000000", "190834.500000", "190836.000000", "190837.500000", "190839.000000", "190840.500000", "190842.000000", "190843.500000", "190845.000000", "190846.500000", "190848.000000", "190849.500000", "190851.000000", "190852.500000", "190854.000000"