{
  "AcquisitionMatrixPE": 106,
  "AcquisitionNumber": 1,
  "AcquisitionTime": "18:07:20.782500",
  "BandwidthPerPixelPhaseEncode": 13.477,
  "BaseResolution": 106,
  "BodyPartExamined": "BRAIN",
  "CoilCombinationMethod": "Sum of Squares",
  "ConsistencyInfo": "N4_VE11C_LATEST_20160120",
  "ConversionSoftware": "dcm2niix",
  "ConversionSoftwareVersion": "v1.0.20220720",
  "DerivedVendorReportedEchoSpacing": 0.000700005,
  "DeviceSerialNumber": "166108",
  "DwellTime": 2.6e-06,
  "EchoTime": 0.03,
  "EchoTrainLength": 80,
  "EffectiveEchoSpacing": 0.000700005,
  "FlipAngle": 62,
  "HeudiconvVersion": "1.3.0",
  "ImageComments": "Unaliased MB4/PE3/LB",
  "ImageOrientationPatientDICOM": [1, 0, 0, 0, 0.91496, -0.403545],
  "ImageOrientationText": "Tra>Cor(-23.8)",
  "ImageType": [
    "ORIGINAL",
    "PRIMARY",
    "M",
    "MB",
    "ND",
    "MOSAIC"
],
  "ImagingFrequency": 123.244,
  "InPlanePhaseEncodingDirectionDICOM": "COL",
  "InstitutionAddress": "Bedford Way 26,London,London,GB,WC1H 0AP",
  "InstitutionName": "University College",
  "InstitutionalDepartmentName": "Department",
  "MRAcquisitionType": "2D",
  "MagneticFieldStrength": 3,
  "Manufacturer": "Siemens",
  "ManufacturersModelName": "Prisma",
  "MatrixCoilMode": "SENSE",
  "Modality": "MR",
  "MultibandAccelerationFactor": 4,
  "NonlinearGradientCorrection": false,
  "PartialFourier": 0.75,
  "PatientPosition": "HFS",
  "PercentPhaseFOV": 100,
  "PercentSampling": 100,
  "PhaseEncodingDirection": "j-",
  "PhaseEncodingSteps": 80,
  "PhaseResolution": 1,
  "PixelBandwidth": 1815,
  "ProcedureStepDescription": "Tessa^LHON",
  "ProtocolName": "func-bold_task-motor_run-01",
  "PulseSequenceDetails": "%CustomerSeq%\\cmrr_mbep2d_bold",
  "ReceiveCoilActiveElements": "HEA;HEP",
  "ReceiveCoilName": "Head_32",
  "ReconMatrixPE": 106,
  "RepetitionTime": 1,
  "SAR": 0.0358197,
  "ScanOptions": "PFP\\FS\\EXT",
  "ScanningSequence": "EP",
  "SequenceName": "epfid2d1_106",
  "SequenceVariant": "SK\\SS",
  "SeriesDescription": "func-bold_task-motor_run-01",
  "SeriesNumber": 6,
  "ShimSetting": [-1499, 679, 7460, 170, -106, 285, 15, -45],
  "SliceThickness": 2,
  "SliceTiming": [0, 0.535, 0.09, 0.6225, 0.1775, 0.7125, 0.2675, 0.8025, 0.3575, 0.89, 0.445, 0, 0.535, 0.09, 0.6225, 0.1775, 0.7125, 0.2675, 0.8025, 0.3575, 0.89, 0.445, 0, 0.535, 0.09, 0.6225, 0.1775, 0.7125, 0.2675, 0.8025, 0.3575, 0.89, 0.445, 0, 0.535, 0.09, 0.6225, 0.1775, 0.7125, 0.2675, 0.8025, 0.3575, 0.89, 0.445],
  "SoftwareVersions": "syngo MR E11",
  "SpacingBetweenSlices": 2,
  "StationName": "AWP166108",
  "TaskName": "somatotopy",
  "TotalReadoutTime": 0.0735005,
  "TxRefAmp": 239.131,
  "WipMemBlock": "dce7e9ec-9b28-4eb8-936e-f4a0f2578ebc||Sequence: R016 ve11c/master r/e634e98; Dec 19 2017 11:00:25 by eja",
  "dcmmeta_affine": [
    [-2.0, 0.0, 0.0, 106.0],
    [0.0, 1.8299193382263184, -0.8070906400680542, -77.86621856689453],
    [0.0, 0.8070906400680542, 1.8299193382263184, -47.0571403503418],
    [0.0, 0.0, 0.0, 1.0]
],
  "dcmmeta_reorient_transform": [
    [0.0, -1.0, 0.0, 105.0],
    [1.0, 0.0, 0.0, 0.0],
    [0.0, 0.0, 1.0, 0.0],
    [0.0, 0.0, 0.0, 1.0]
],
  "dcmmeta_shape": [106, 106, 44, 467],
  "dcmmeta_slice_dim": 2,
  "dcmmeta_version": 0.6,
  "global": {
    "const": {
      "AcquisitionMatrix": [106, 0, 0, 106],
      "AngioFlag": "N",
      "BitsAllocated": 16,
      "BitsStored": 16,
      "BodyPartExamined": "BRAIN",
      "CardiacNumberOfImages": 1,
      "Columns": 742,
      "EchoNumbers": 1,
      "EchoTime": 30.0,
      "EchoTrainLength": 80,
      "FlipAngle": 62.0,
      "HighBit": 15,
      "ImageOrientationPatient": [1.0, 0.0, 0.0, 0.0, 0.91495965822336, -0.4035453181785],
      "ImagePositionPatient": [-742.0, -696.18965342261, 294.34219854482],
      "ImageType": [
        "ORIGINAL",
        "PRIMARY",
        "M",
        "MB",
        "ND",
        "MOSAIC"
],
      "ImagedNucleus": "1H",
      "ImagingFrequency": 123.243596,
      "InPlanePhaseEncodingDirection": "COL",
      "MRAcquisitionType": "2D",
      "MagneticFieldStrength": 3.0,
      "Manufacturer": "SIEMENS",
      "ManufacturerModelName": "Prisma",
      "Modality": "MR",
      "NominalInterval": 0,
      "NumberOfAverages": 1.0,
      "NumberOfPhaseEncodingSteps": 80,
      "PercentPhaseFieldOfView": 100.0,
      "PercentSampling": 100.0,
      "PerformedProcedureStepStartTime": "173414.821000",
      "PhotometricInterpretation": "MONOCHROME2",
      "PixelBandwidth": 1815.0,
      "PixelRepresentation": 0,
      "PixelSpacing": [2.0, 2.0],
      "ProtocolName": "func-bold_task-motor_run-01",
      "RepetitionTime": 1000.0,
      "Rows": 742,
      "SAR": 0.03581973518752,
      "SamplesPerPixel": 1,
      "ScanOptions": [
        "PFP",
        "FS",
        "EXT"
],
      "ScanningSequence": "EP",
      "SequenceName": "epfid2d1_106",
      "SequenceVariant": [
        "SK",
        "SS"
],
      "SeriesDescription": "func-bold_task-motor_run-01",
      "SeriesNumber": 6,
      "SeriesTime": "180749.578000",
      "SliceLocation": -11.632837821737,
      "SliceThickness": 2.0,
      "SmallestImagePixelValue": 0,
      "SoftwareVersions": "syngo MR E11",
      "SpacingBetweenSlices": 2.0000000486622,
      "SpecificCharacterSet": "ISO_IR 100",
      "StudyID": "1",
      "StudyTime": "173414.769000",
      "TransmitCoilName": "Body",
      "VariableFlipAngleFlag": "N",
      "WindowCenterWidthExplanation": "Algo1",
      "dBdt": 0.0},
    "slices": {}
  },
  "time": {
    "samples": {
      "AcquisitionNumber": [1, 2, 3, 4, 5, 6, 7, 8, 9, 10, 11, 12, 13, 14, 15, 16, 17, 18, 19, 20, 21, 22, 23, 24, 25, 26, 27, 28, 29, 30, 31, 32, 33, 34, 35, 36, 37, 38, 39, 40, 41, 42, 43, 44, 45, 46, 47, 48, 49, 50, 51, 52, 53, 54, 55, 56, 57, 58, 59, 60, 61, 62, 63, 64, 65, 66, 67, 68, 69, 70, 71, 72, 73, 74, 75, 76, 77, 78, 79, 80, 81, 82, 83, 84, 85, 86, 87, 88, 89, 90, 91, 92, 93, 94, 95, 96, 97, 98, 99, 100, 101, 102, 103, 104, 105, 106, 107, 108, 109, 110, 111, 112, 113, 114, 115, 116, 117, 118, 119, 120, 121, 122, 123, 124, 125, 126, 127, 128, 129, 130, 131, 132, 133, 134, 135, 136, 137, 138, 139, 140, 141, 142, 143, 144, 145, 146, 147, 148, 149, 150, 151, 152, 153, 154, 155, 156, 157, 158, 159, 160, 161, 162, 163, 164, 165, 166, 167, 168, 169, 170, 171, 172, 173, 174, 175, 176, 177, 178, 179, 180, 181, 182, 183, 184, 185, 186, 187, 188, 189, 190, 191, 192, 193, 194, 195, 196, 197, 198, 199, 200, 201, 202, 203, 204, 205, 206, 207, 208, 209, 210, 211, 212, 213, 214, 215, 216, 217, 218, 219, 220, 221, 222, 223, 224, 225, 226, 227, 228, 229, 230, 231, 232, 233, 234, 235, 236, 237, 238, 239, 240, 241, 242, 243, 244, 245, 246, 247, 248, 249, 250, 251, 252, 253, 254, 255, 256, 257, 258, 259, 260, 261, 262, 263, 264, 265, 266, 267, 268, 269, 270, 271, 272, 273, 274, 275, 276, 277, 278, 279, 280, 281, 282, 283, 284, 285, 286, 287, 288, 289, 290, 291, 292, 293, 294, 295, 296, 297, 298, 299, 300, 301, 302, 303, 304, 305, 306, 307, 308, 309, 310, 311, 312, 313, 314, 315, 316, 317, 318, 319, 320, 321, 322, 323, 324, 325, 326, 327, 328, 329, 330, 331, 332, 333, 334, 335, 336, 337, 338, 339, 340, 341, 342, 343, 344, 345, 346, 347, 348, 349, 350, 351, 352, 353, 354, 355, 356, 357, 358, 359, 360, 361, 362, 363, 364, 365, 366, 367, 368, 369, 370, 371, 372, 373, 374, 375, 376, 377, 378, 379, 380, 381, 382, 383, 384, 385, 386, 387, 388, 389, 390, 391, 392, 393, 394, 395, 396, 397, 398, 399, 400, 401, 402, 403, 404, 405, 406, 407, 408, 409, 410, 411, 412, 413, 414, 415, 416, 417, 418, 419, 420, 421, 422, 423, 424, 425, 426, 427, 428, 429, 430, 431, 432, 433, 434, 435, 436, 437, 438, 439, 440, 441, 442, 443, 444, 445, 446, 447, 448, 449, 450, 451, 452, 453, 454, 455, 456, 457, 458, 459, 460, 461, 462, 463, 464, 465, 466, 467],
      "AcquisitionTime": ["180720.782500", "180721.782500", "180722.782500", "180723.782500", "180724.782500", "180725.782500", "180726.782500", "180727.782500", "180728.782500", "180729.782500", "180730.782500", "180731.782500", "180732.782500", "180733.782500", "180734.782500", "180735.782500", "180736.782500", "180737.782500", "180738.782500", "180739.782500", "180740.782500", "180741.782500", "180742.782500", "180743.782500", "180744.782500", "180745.782500", "180746.782500", "180747.782500", "180748.782500", "180749.782500", "180750.782500", "180751.782500", "180752.782500", "180753.782500", "180754.782500", "180755.782500", "180756.782500", "180757.782500", "180758.782500", "180759.782500", "180800.782500", "180801.782500", "180802.782500", "180803.782500", "180804.782500", "180805.782500", "180806.782500", "180807.782500", "180808.782500", "180809.782500", "180810.782500", "180811.782500", "180812.782500", "180813.782500", "180814.782500", "180815.782500", "180816.782500", "180817.782500", "180818.782500", "180819.782500", "180820.782500", "180821.782500", "180822.782500", "180823.782500", "180824.782500", "180825.782500", "180826.782500", "180827.782500", "180828.782500", "180829.782500", "180830.782500", "180831.782500", "180832.782500", "180833.782500", "180834.782500", "180835.782500", "180836.782500", "180837.782500", "180838.782500", "180839.782500", "180840.782500", "180841.782500", "180842.782500", "180843.782500", "180844.782500", "180845.782500", "180846.782500", "180847.782500", "180848.782500", "180849.782500", "180850.782500", "180851.782500", "180852.782500", "180853.782500", "180854.782500", "180855.782500", "180856.782500", "180857.782500", "180858.782500", "180859.782500", "180900.782500", "180901.782500", "180902.782500", "180903.782500", "180904.782500", "180905.782500", "180906.782500", "180907.782500", "180908.782500", "180909.782500", "180910.782500", "180911.782500", "180912.782500", "180913.782500", "180914.782500", "180915.782500", "180916.782500", "180917.782500", "180918.782500", "180919.782500", "180920.782500", "180921.782500", "180922.782500", "180923.782500", "180924.782500", "180925.782500", "180926.782500", "180927.782500", "180928.782500", "180929.782500", "180930.782500", "180931.782500", "180932.782500", "180933.782500", "180934.782500", "180935.782500", "180936.782500", "180937.782500", "180938.782500", "180939.782500", "180940.782500", "180941.782500", "180942.782500", "180943.782500", "180944.782500", "180945.782500", "180946.782500", "180947.782500", "180948.782500", "180949.782500", "180950.782500", "180951.782500", "180952.782500", "180953.782500", "180954.782500", "180955.782500", "180956.782500", "180957.782500", "180958.782500", "180959.782500", "181000.782500", "181001.782500", "181002.782500", "181003.782500", "181004.782500", "181005.782500", "181006.782500", "181007.782500", "181008.782500", "181009.782500", "181010.782500", "181011.782500", "181012.782500", "181013.782500", "181014.782500", "181015.782500", "181016.782500", "181017.782500", "181018.782500", "181019.782500", "181020.782500", "181021.782500", "181022.782500", "181023.782500", "181024.782500", "181025.782500", "181026.782500", "181027.782500", "181028.782500", "181029.782500", "181030.782500", "181031.782500", "181032.782500", "181033.782500", "181034.782500", "181035.782500", "181036.782500", "181037.782500", "181038.782500", "181039.782500", "181040.782500", "181041.782500", "181042.782500", "181043.782500", "181044.782500", "181045.782500", "181046.782500", "181047.782500", "181048.782500", "181049.782500", "181050.782500", "181051.782500", "181052.782500", "181053.782500", "181054.782500", "181055.782500", "181056.782500", "181057.782500", "181058.782500", "181059.782500", "181100.782500", "181101.782500", "181102.782500", "181103.782500", "181104.782500", "181105.782500", "181106.782500", "181107.782500", "181108.782500", "181109.782500", "181110.782500", "181111.782500", "181112.782500", "181113.782500", "181114.782500", "181115.782500", "181116.782500", "181117.782500", "181118.782500", "181119.782500", "181120.782500", "181121.782500", "181122.782500", "181123.782500", "181124.782500", "181125.782500", "181126.782500", "181127.782500", "181128.782500", "181129.782500", "181130.782500", "181131.782500", "181132.782500", "181133.782500", "181134.782500", "181135.782500", "181136.782500", "181137.782500", "181138.782500", "181139.782500", "181140.782500", "181141.782500", "181142.782500", "181143.782500", "181144.782500", "181145.782500", "181146.782500", "181147.782500", "181148.782500", "181149.782500", "181150.782500", "181151.782500", "181152.782500", "181153.782500", "181154.782500", "181155.782500", "181156.782500", "181157.782500", "181158.782500", "181159.782500", "181200.782500", "181201.782500", "181202.782500", "181203.782500", "181204.782500", "181205.782500", "181206.782500", "181207.782500", "181208.782500", "181209.782500", "181210.782500", "181211.782500", "181212.782500", "181213.782500", "181214.782500", "181215.782500", "181216.782500", "181217.782500", "181218.782500", "181219.782500", "181220.782500", "181221.782500", "181222.782500", "181223.782500", "181224.782500", "181225.782500", "181226.782500", "181227.782500", "181228.782500", "181229.782500", "181230.782500", "181231.782500", "181232.782500", "181233.782500", "181234.782500", "181235.782500", "181236.782500", "181237.782500", "181238.782500", "181239.782500", "181240.782500", "181241.782500", "181242.782500", "181243.782500", "181244.782500", "181245.782500", "181246.782500", "181247.782500", "181248.782500", "181249.782500", "181250.782500", "181251.782500", "181252.782500", "181253.782500", "181254.782500", "181255.782500", "181256.782500", "181257.782500", "181258.782500", "181259.782500", "181300.782500", "181301.782500", "181302.782500", "181303.782500", "181304.782500", "181305.782500", "181306.782500", "181307.782500", "181308.782500", "181309.782500", "181310.782500", "181311.782500", "181312.782500", "181313.782500", "181314.782500", "181315.782500", "181316.782500", "181317.782500", "181318.782500", "181319.782500", "181320.782500", "181321.782500", "181322.782500", "181323.782500", "181324.782500", "181325.782500", "181326.782500", "181327.782500", "181328.782500", "181329.782500", "181330.782500", "181331.782500", "181332.782500", "181333.782500", "181334.782500", "181335.782500", "181336.782500", "181337.782500", "181338.782500", "181339.782500", "181340.782500", "181341.782500", "181342.782500", "181343.782500", "181344.782500", "181345.782500", "181346.782500", "181347.782500", "181348.782500", "181349.782500", "181350.782500", "181351.782500", "181352.782500", "181353.782500", "181354.782500", "181355.782500", "181356.782500", "181357.782500", "181358.782500", "181359.782500", "181400.782500", "181401.782500", "181402.782500", "181403.782500", "181404.782500", "181405.782500", "181406.782500", "181407.782500", "181408.782500", "181409.782500", "181410.782500", "181411.782500", "181412.782500", "181413.782500", "181414.782500", "181415.782500", "181416.782500", "181417.782500", "181418.782500", "181419.782500", "181420.782500", "181421.782500", "181422.782500", "181423.782500", "181424.782500", "181425.782500", "181426.782500", "181427.782500", "181428.782500", "181429.782500", "181430.782500", "181431.782500", "181432.782500", "181433.782500", "181434.782500", "181435.782500", "181436.782500", "181437.782500", "181438.782500", "181439.782500", "181440.782500", "181441.782500", "181442.782500", "181443.782500", "181444.782500", "181445.782500", "181446.782500", "181447.782500", "181448.782500", "181449.782500", "181450.782500", "181451.782500", "181452.782500", "181453.782500", "181454.782500", "181455.782500", "181456.782500", "181457.782500", "181458.782500", "181459.782500", "181500.782500", "181501.782500", "181502.782500", "181503.782500", "181504.782500", "181505.782500", "181506.782500"],
      "ContentTime": ["180749.580000", "180749.583000", "180749.586000", "180749.588000", "180749.591000", "180749.593000", "180749.596000", "180749.599000", "180749.601000", "180749.604000", "180749.606000", "180749.609000", "180749.611000", "180749.614000", "180749.622000", "180749.624000", "180749.627000", "180749.629000", "180749.632000", "180749.634000", "180749.637000", "180749.639000", "180749.642000", "180749.647000", "180749.649000", "180749.651000", "180749.654000", "180749.657000", "180809.554000", "180809.557000", "180809.560000", "180809.563000", "180809.565000", "180809.567000", "180809.570000", "180809.572000", "180809.575000", "180809.577000", "180809.580000", "180809.582000", "180809.585000", "180809.587000", "180809.590000", "180809.592000", "180809.595000", "180809.604000", "180809.607000", "180809.609000", "180829.554000", "180829.557000", "180829.560000", "180829.562000", "180829.565000", "180829.567000", "180829.570000", "180829.572000", "180829.574000", "180829.577000", "180829.579000", "180829.582000", "180829.584000", "180829.587000", "180829.589000", "180829.592000", "180829.594000", "180829.597000", "180829.599000", "180829.602000", "180849.555000", "180849.558000", "180849.561000", "180849.563000", "180849.565000", "180849.568000", "180849.570000", "180849.573000", "180849.575000", "180849.578000", "180849.581000", "180849.583000", "180849.585000", "180849.588000", "180849.590000", "180849.593000", "180849.595000", "180849.607000", "180849.609000", "180849.611000", "180909.555000", "180909.558000", "180909.561000", "180909.563000", "180909.565000", "180909.568000", "180909.570000", "180909.573000", "180909.575000", "180909.578000", "180909.580000", "180909.583000", "180909.585000", "180909.588000", "180909.590000", "180909.593000", "180909.595000", "180909.598000", "180909.600000", "180909.603000", "180929.555000", "180929.558000", "180929.561000", "180929.563000", "180929.566000", "180929.568000", "180929.571000", "180929.573000", "180929.575000", "180929.578000", "180929.580000", "180929.583000", "180929.585000", "180929.588000", "180929.590000", "180929.593000", "180929.595000", "180929.597000", "180929.600000", "180929.603000", "180949.556000", "180949.558000", "180949.561000", "180949.563000", "180949.566000", "180949.568000", "180949.571000", "180949.573000", "180949.576000", "180949.578000", "180949.581000", "180949.583000", "180949.585000", "180949.588000", "180949.590000", "180949.593000", "180949.595000", "180949.598000", "180949.600000", "180949.603000", "181009.554000", "181009.557000", "181009.560000", "181009.562000", "181009.565000", "181009.567000", "181009.570000", "181009.572000", "181009.575000", "181009.577000", "181009.580000", "181009.582000", "181009.585000", "181009.587000", "181009.590000", "181009.592000", "181009.595000", "181009.597000", "181009.600000", "181009.602000", "181029.554000", "181029.557000", "181029.560000", "181029.562000", "181029.564000", "181029.567000", "181029.570000", "181029.572000", "181029.574000", "181029.577000", "181029.579000", "181029.582000", "181029.584000", "181029.587000", "181029.589000", "181029.592000", "181029.594000", "181029.597000", "181029.599000", "181029.602000", "181049.554000", "181049.557000", "181049.560000", "181049.562000", "181049.565000", "181049.567000", "181049.570000", "181049.572000", "181049.580000", "181049.583000", "181049.585000", "181049.588000", "181049.590000", "181049.593000", "181049.595000", "181049.598000", "181049.600000", "181049.603000", "181049.606000", "181049.608000", "181109.555000", "181109.558000", "181109.561000", "181109.563000", "181109.565000", "181109.568000", "181109.570000", "181109.573000", "181109.575000", "181109.578000", "181109.580000", "181109.583000", "181109.585000", "181109.588000", "181109.590000", "181109.593000", "181109.595000", "181109.598000", "181109.600000", "181109.603000", "181129.555000", "181129.558000", "181129.561000", "181129.563000", "181129.566000", "181129.568000", "181129.571000", "181129.573000", "181129.576000", "181129.578000", "181129.581000", "181129.583000", "181129.586000", "181129.588000", "181129.591000", "181129.593000", "181129.595000", "181129.598000", "181129.601000", "181129.603000", "181149.555000", "181149.558000", "181149.561000", "181149.563000", "181149.566000", "181149.568000", "181149.570000", "181149.573000", "181149.575000", "181149.578000", "181149.580000", "181149.583000", "181149.585000", "181149.588000", "181149.591000", "181149.593000", "181149.596000", "181149.598000", "181149.601000", "181149.603000", "181209.555000", "181209.558000", "181209.561000", "181209.563000", "181209.566000", "181209.568000", "181209.571000", "181209.573000", "181209.575000", "181209.578000", "181209.581000", "181209.583000", "181209.586000", "181209.588000", "181209.591000", "181209.593000", "181209.596000", "181209.598000", "181209.601000", "181209.603000", "181229.554000", "181229.557000", "181229.560000", "181229.562000", "181229.565000", "181229.567000", "181229.570000", "181229.572000", "181229.575000", "181229.577000", "181229.580000", "181229.582000", "181229.584000", "181229.587000", "181229.589000", "181229.592000", "181229.594000", "181229.597000", "181229.599000", "181229.602000", "181249.554000", "181249.557000", "181249.560000", "181249.562000", "181249.565000", "181249.567000", "181249.570000", "181249.572000", "181249.575000", "181249.577000", "181249.580000", "181249.582000", "181249.585000", "181249.587000", "181249.590000", "181249.592000", "181249.595000", "181249.597000", "181249.600000", "181249.602000", "181309.554000", "181309.557000", "181309.560000", "181309.562000", "181309.565000", "181309.567000", "181309.570000", "181309.572000", "181309.575000", "181309.577000", "181309.580000", "181309.582000", "181309.584000", "181309.587000", "181309.589000", "181309.592000", "181309.594000", "181309.597000", "181309.600000", "181309.602000", "181329.555000", "181329.558000", "181329.561000", "181329.563000", "181329.566000", "181329.568000", "181329.571000", "181329.573000", "181329.576000", "181329.578000", "181329.581000", "181329.583000", "181329.586000", "181329.588000", "181329.591000", "181329.593000", "181329.596000", "181329.598000", "181329.601000", "181329.603000", "181349.556000", "181349.558000", "181349.561000", "181349.563000", "181349.566000", "181349.568000", "181349.571000", "181349.573000", "181349.576000", "181349.578000", "181349.581000", "181349.583000", "181349.586000", "181349.588000", "181349.591000", "181349.593000", "181349.596000", "181349.598000", "181349.601000", "181349.603000", "181409.555000", "181409.558000", "181409.569000", "181409.571000", "181409.574000", "181409.576000", "181409.579000", "181409.581000", "181409.584000", "181409.586000", "181409.589000", "181409.591000", "181409.594000", "181409.596000", "181409.599000", "181409.602000", "181409.604000", "181409.607000", "181409.609000", "181409.612000", "181429.556000", "181429.558000", "181429.574000", "181429.577000", "181429.579000", "181429.581000", "181429.584000", "181429.587000", "181429.589000", "181429.591000", "181429.594000", "181429.596000", "181429.599000", "181429.601000", "181429.604000", "181429.606000", "181429.609000", "181429.611000", "181429.614000", "181429.617000", "181449.554000", "181449.557000", "181449.560000", "181449.562000", "181449.565000", "181449.567000", "181449.570000", "181449.572000", "181449.575000", "181449.577000", "181449.580000", "181449.582000", "181449.585000", "181449.587000", "181449.590000", "181449.592000", "181449.595000", "181449.597000", "181449.600000", "181449.602000", "181507.982000", "181507.985000", "181507.988000", "181507.990000", "181507.994000", "181507.996000", "181508.000000", "181508.003000", "181508.006000", "181508.009000", "181508.012000", "181508.015000", "181508.018000", "181508.021000", "181508.023000", "181508.026000", "181508.028000", "181508.031000", "181508.033000"],
