{
  "AcquisitionMatrixPE": 106,
  "AcquisitionNumber": 1,
  "AcquisitionTime": "17:58:33.840000",
  "BandwidthPerPixelPhaseEncode": 13.477,
  "BaseResolution": 106,
  "BodyPartExamined": "BRAIN",
  "CoilCombinationMethod": "Sum of Squares",
  "ConsistencyInfo": "N4_VE11C_LATEST_20160120",
  "ConversionSoftware": "dcm2niix",
  "ConversionSoftwareVersion": "v1.0.20220720",
  "DerivedVendorReportedEchoSpacing": 0.000700005,
  "DeviceSerialNumber": "166108",
  "DwellTime": 2.6e-06,
  "EchoTime": 0.03,
  "EchoTrainLength": 80,
  "EffectiveEchoSpacing": 0.000700005,
  "FlipAngle": 62,
  "HeudiconvVersion": "1.3.0",
  "ImageComments": "Unaliased MB4/PE3/LB",
  "ImageOrientationPatientDICOM": [1, 0, 0, 0, 0.91496, -0.403545],
  "ImageOrientationText": "Tra>Cor(-23.8)",
  "ImageType": [
    "ORIGINAL",
    "PRIMARY",
    "M",
    "MB",
    "ND",
    "MOSAIC"
],
  "ImagingFrequency": 123.244,
  "InPlanePhaseEncodingDirectionDICOM": "COL",
  "InstitutionAddress": "Bedford Way 26,London,London,GB,WC1H 0AP",
  "InstitutionName": "University College",
  "InstitutionalDepartmentName": "Department",
  "MRAcquisitionType": "2D",
  "MagneticFieldStrength": 3,
  "Manufacturer": "Siemens",
  "ManufacturersModelName": "Prisma",
  "MatrixCoilMode": "SENSE",
  "Modality": "MR",
  "MultibandAccelerationFactor": 4,
  "NonlinearGradientCorrection": false,
  "PartialFourier": 0.75,
  "PatientPosition": "HFS",
  "PercentPhaseFOV": 100,
  "PercentSampling": 100,
  "PhaseEncodingDirection": "j-",
  "PhaseEncodingSteps": 80,
  "PhaseResolution": 1,
  "PixelBandwidth": 1815,
  "ProcedureStepDescription": "Tessa^LHON",
  "ProtocolName": "func-bold_task-motor_run-02",
  "PulseSequenceDetails": "%CustomerSeq%\\cmrr_mbep2d_bold",
  "ReceiveCoilActiveElements": "HEA;HEP",
  "ReceiveCoilName": "Head_32",
  "ReconMatrixPE": 106,
  "RepetitionTime": 1,
  "SAR": 0.0358204,
  "ScanOptions": "PFP\\FS\\EXT",
  "ScanningSequence": "EP",
  "SequenceName": "epfid2d1_106",
  "SequenceVariant": "SK\\SS",
  "SeriesDescription": "func-bold_task-motor_run-02",
  "SeriesNumber": 4,
  "ShimSetting": [-1499, 679, 7460, 170, -106, 285, 15, -45],
  "SliceThickness": 2,
  "SliceTiming": [0, 0.535, 0.09, 0.625, 0.18, 0.7125, 0.2675, 0.8025, 0.3575, 0.8925, 0.4475, 0, 0.535, 0.09, 0.625, 0.18, 0.7125, 0.2675, 0.8025, 0.3575, 0.8925, 0.4475, 0, 0.535, 0.09, 0.625, 0.18, 0.7125, 0.2675, 0.8025, 0.3575, 0.8925, 0.4475, 0, 0.535, 0.09, 0.625, 0.18, 0.7125, 0.2675, 0.8025, 0.3575, 0.8925, 0.4475],
  "SoftwareVersions": "syngo MR E11",
  "SpacingBetweenSlices": 2,
  "StationName": "AWP166108",
  "TaskName": "somatotopy",
  "TotalReadoutTime": 0.0735005,
  "TxRefAmp": 239.131,
  "WipMemBlock": "4bea0ebb-11f1-4335-8b03-6fcaf27c91ea||Sequence: R016 ve11c/master r/e634e98; Dec 19 2017 11:00:25 by eja",
  "dcmmeta_affine": [
    [-2.0, 0.0, 0.0, 106.0],
    [0.0, 1.8299193382263184, -0.8070906400680542, -77.86621856689453],
    [0.0, 0.8070906400680542, 1.8299193382263184, -47.0571403503418],
    [0.0, 0.0, 0.0, 1.0]
],
  "dcmmeta_reorient_transform": [
    [0.0, -1.0, 0.0, 105.0],
    [1.0, 0.0, 0.0, 0.0],
    [0.0, 0.0, 1.0, 0.0],
    [0.0, 0.0, 0.0, 1.0]
],
  "dcmmeta_shape": [106, 106, 44, 469],
  "dcmmeta_slice_dim": 2,
  "dcmmeta_version": 0.6,
  "global": {
    "const": {
      "AcquisitionMatrix": [106, 0, 0, 106],
      "AngioFlag": "N",
      "BitsAllocated": 16,
      "BitsStored": 16,
      "BodyPartExamined": "BRAIN",
      "CardiacNumberOfImages": 1,
      "Columns": 742,
      "EchoNumbers": 1,
      "EchoTime": 30.0,
      "EchoTrainLength": 80,
      "FlipAngle": 62.0,
      "HighBit": 15,
      "ImageOrientationPatient": [1.0, 0.0, 0.0, 0.0, 0.91495965822336, -0.4035453181785],
      "ImagePositionPatient": [-742.0, -696.18965342261, 294.34219854482],
      "ImageType": [
        "ORIGINAL",
        "PRIMARY",
        "M",
        "MB",
        "ND",
        "MOSAIC"
],
      "ImagedNucleus": "1H",
      "ImagingFrequency": 123.243594,
      "InPlanePhaseEncodingDirection": "COL",
      "MRAcquisitionType": "2D",
      "MagneticFieldStrength": 3.0,
      "Manufacturer": "SIEMENS",
      "ManufacturerModelName": "Prisma",
      "Modality": "MR",
      "NominalInterval": 0,
      "NumberOfAverages": 1.0,
      "NumberOfPhaseEncodingSteps": 80,
      "PercentPhaseFieldOfView": 100.0,
      "PercentSampling": 100.0,
      "PerformedProcedureStepStartTime": "173414.821000",
      "PhotometricInterpretation": "MONOCHROME2",
      "PixelBandwidth": 1815.0,
      "PixelRepresentation": 0,
      "PixelSpacing": [2.0, 2.0],
      "ProtocolName": "func-bold_task-motor_run-02",
      "RepetitionTime": 1000.0,
      "Rows": 742,
      "SAR": 0.03582040790205,
      "SamplesPerPixel": 1,
      "ScanOptions": [
        "PFP",
        "FS",
        "EXT"
],
      "ScanningSequence": "EP",
      "SequenceName": "epfid2d1_106",
      "SequenceVariant": [
        "SK",
        "SS"
],
      "SeriesDescription": "func-bold_task-motor_run-02",
      "SeriesNumber": 4,
      "SeriesTime": "175908.285000",
      "SliceLocation": -11.632837821737,
      "SliceThickness": 2.0,
      "SmallestImagePixelValue": 0,
      "SoftwareVersions": "syngo MR E11",
      "SpacingBetweenSlices": 2.0000000486622,
      "SpecificCharacterSet": "ISO_IR 100",
      "StudyID": "1",
      "StudyTime": "173414.769000",
      "TransmitCoilName": "Body",
      "VariableFlipAngleFlag": "N",
      "WindowCenterWidthExplanation": "Algo1",
      "dBdt": 0.0},
    "slices": {}
  },
  "time": {
    "samples": {
      "AcquisitionNumber": [1, 2, 3, 4, 5, 6, 7, 8, 9, 10, 11, 12, 13, 14, 15, 16, 17, 18, 19, 20, 21, 22, 23, 24, 25, 26, 27, 28, 29, 30, 31, 32, 33, 34, 35, 36, 37, 38, 39, 40, 41, 42, 43, 44, 45, 46, 47, 48, 49, 50, 51, 52, 53, 54, 55, 56, 57, 58, 59, 60, 61, 62, 63, 64, 65, 66, 67, 68, 69, 70, 71, 72, 73, 74, 75, 76, 77, 78, 79, 80, 81, 82, 83, 84, 85, 86, 87, 88, 89, 90, 91, 92, 93, 94, 95, 96, 97, 98, 99, 100, 101, 102, 103, 104, 105, 106, 107, 108, 109, 110, 111, 112, 113, 114, 115, 116, 117, 118, 119, 120, 121, 122, 123, 124, 125, 126, 127, 128, 129, 130, 131, 132, 133, 134, 135, 136, 137, 138, 139, 140, 141, 142, 143, 144, 145, 146, 147, 148, 149, 150, 151, 152, 153, 154, 155, 156, 157, 158, 159, 160, 161, 162, 163, 164, 165, 166, 167, 168, 169, 170, 171, 172, 173, 174, 175, 176, 177, 178, 179, 180, 181, 182, 183, 184, 185, 186, 187, 188, 189, 190, 191, 192, 193, 194, 195, 196, 197, 198, 199, 200, 201, 202, 203, 204, 205, 206, 207, 208, 209, 210, 211, 212, 213, 214, 215, 216, 217, 218, 219, 220, 221, 222, 223, 224, 225, 226, 227, 228, 229, 230, 231, 232, 233, 234, 235, 236, 237, 238, 239, 240, 241, 242, 243, 244, 245, 246, 247, 248, 249, 250, 251, 252, 253, 254, 255, 256, 257, 258, 259, 260, 261, 262, 263, 264, 265, 266, 267, 268, 269, 270, 271, 272, 273, 274, 275, 276, 277, 278, 279, 280, 281, 282, 283, 284, 285, 286, 287, 288, 289, 290, 291, 292, 293, 294, 295, 296, 297, 298, 299, 300, 301, 302, 303, 304, 305, 306, 307, 308, 309, 310, 311, 312, 313, 314, 315, 316, 317, 318, 319, 320, 321, 322, 323, 324, 325, 326, 327, 328, 329, 330, 331, 332, 333, 334, 335, 336, 337, 338, 339, 340, 341, 342, 343, 344, 345, 346, 347, 348, 349, 350, 351, 352, 353, 354, 355, 356, 357, 358, 359, 360, 361, 362, 363, 364, 365, 366, 367, 368, 369, 370, 371, 372, 373, 374, 375, 376, 377, 378, 379, 380, 381, 382, 383, 384, 385, 386, 387, 388, 389, 390, 391, 392, 393, 394, 395, 396, 397, 398, 399, 400, 401, 402, 403, 404, 405, 406, 407, 408, 409, 410, 411, 412, 413, 414, 415, 416, 417, 418, 419, 420, 421, 422, 423, 424, 425, 426, 427, 428, 429, 430, 431, 432, 433, 434, 435, 436, 437, 438, 439, 440, 441, 442, 443, 444, 445, 446, 447, 448, 449, 450, 451, 452, 453, 454, 455, 456, 457, 458, 459, 460, 461, 462, 463, 464, 465, 466, 467, 468, 469],
      "AcquisitionTime": ["175833.840000", "175834.840000", "175835.840000", "175836.840000", "175837.840000", "175838.840000", "175839.840000", "175840.840000", "175841.840000", "175842.840000", "175843.840000", "175844.840000", "175845.840000", "175846.840000", "175847.840000", "175848.840000", "175849.840000", "175850.840000", "175851.840000", "175852.840000", "175853.840000", "175854.840000", "175855.840000", "175856.840000", "175857.840000", "175858.840000", "175859.840000", "175900.840000", "175901.840000", "175902.840000", "175903.840000", "175904.840000", "175905.840000", "175906.840000", "175907.840000", "175908.840000", "175909.840000", "175910.840000", "175911.840000", "175912.840000", "175913.840000", "175914.840000", "175915.840000", "175916.840000", "175917.840000", "175918.840000", "175919.840000", "175920.840000", "175921.840000", "175922.840000", "175923.840000", "175924.840000", "175925.840000", "175926.840000", "175927.840000", "175928.840000", "175929.840000", "175930.840000", "175931.840000", "175932.840000", "175933.840000", "175934.840000", "175935.840000", "175936.840000", "175937.840000", "175938.840000", "175939.840000", "175940.840000", "175941.840000", "175942.840000", "175943.840000", "175944.840000", "175945.840000", "175946.840000", "175947.840000", "175948.840000", "175949.840000", "175950.840000", "175951.840000", "175952.840000", "175953.840000", "175954.840000", "175955.840000", "175956.840000", "175957.840000", "175958.840000", "175959.840000", "180000.840000", "180001.840000", "180002.840000", "180003.840000", "180004.840000", "180005.840000", "180006.840000", "180007.840000", "180008.840000", "180009.840000", "180010.840000", "180011.840000", "180012.840000", "180013.840000", "180014.840000", "180015.840000", "180016.840000", "180017.840000", "180018.840000", "180019.840000", "180020.840000", "180021.840000", "180022.840000", "180023.840000", "180024.840000", "180025.840000", "180026.840000", "180027.840000", "180028.840000", "180029.840000", "180030.840000", "180031.840000", "180032.840000", "180033.840000", "180034.840000", "180035.840000", "180036.840000", "180037.840000", "180038.840000", "180039.840000", "180040.840000", "180041.840000", "180042.840000", "180043.840000", "180044.840000", "180045.840000", "180046.840000", "180047.840000", "180048.840000", "180049.840000", "180050.840000", "180051.840000", "180052.840000", "180053.840000", "180054.840000", "180055.840000", "180056.840000", "180057.840000", "180058.840000", "180059.840000", "180100.840000", "180101.840000", "180102.840000", "180103.840000", "180104.840000", "180105.840000", "180106.840000", "180107.840000", "180108.840000", "180109.840000", "180110.840000", "180111.840000", "180112.840000", "180113.840000", "180114.840000", "180115.840000", "180116.840000", "180117.840000", "180118.840000", "180119.840000", "180120.840000", "180121.840000", "180122.840000", "180123.840000", "180124.840000", "180125.840000", "180126.840000", "180127.840000", "180128.840000", "180129.840000", "180130.840000", "180131.840000", "180132.840000", "180133.840000", "180134.840000", "180135.840000", "180136.840000", "180137.840000", "180138.840000", "180139.840000", "180140.840000", "180141.840000", "180142.840000", "180143.840000", "180144.840000", "180145.840000", "180146.840000", "180147.840000", "180148.840000", "180149.840000", "180150.840000", "180151.840000", "180152.840000", "180153.840000", "180154.840000", "180155.840000", "180156.840000", "180157.840000", "180158.840000", "180159.840000", "180200.840000", "180201.840000", "180202.840000", "180203.840000", "180204.840000", "180205.840000", "180206.840000", "180207.840000", "180208.840000", "180209.840000", "180210.840000", "180211.840000", "180212.840000", "180213.840000", "180214.840000", "180215.840000", "180216.840000", "180217.840000", "180218.840000", "180219.840000", "180220.840000", "180221.840000", "180222.840000", "180223.840000", "180224.840000", "180225.840000", "180226.840000", "180227.840000", "180228.840000", "180229.840000", "180230.840000", "180231.840000", "180232.840000", "180233.840000", "180234.840000", "180235.840000", "180236.840000", "180237.840000", "180238.840000", "180239.840000", "180240.840000", "180241.840000", "180242.840000", "180243.840000", "180244.840000", "180245.840000", "180246.840000", "180247.840000", "180248.840000", "180249.840000", "180250.840000", "180251.840000", "180252.840000", "180253.840000", "180254.840000", "180255.840000", "180256.840000", "180257.840000", "180258.840000", "180259.840000", "180300.840000", "180301.840000", "180302.840000", "180303.840000", "180304.840000", "180305.840000", "180306.840000", "180307.840000", "180308.840000", "180309.840000", "180310.840000", "180311.840000", "180312.840000", "180313.840000", "180314.840000", "180315.840000", "180316.840000", "180317.840000", "180318.840000", "180319.840000", "180320.840000", "180321.840000", "180322.840000", "180323.840000", "180324.840000", "180325.840000", "180326.840000", "180327.840000", "180328.840000", "180329.840000", "180330.840000", "180331.840000", "180332.840000", "180333.840000", "180334.840000", "180335.840000", "180336.840000", "180337.840000", "180338.840000", "180339.840000", "180340.840000", "180341.840000", "180342.840000", "180343.840000", "180344.840000", "180345.840000", "180346.840000", "180347.840000", "180348.840000", "180349.840000", "180350.840000", "180351.840000", "180352.840000", "180353.840000", "180354.840000", "180355.840000", "180356.840000", "180357.840000", "180358.840000", "180359.840000", "180400.840000", "180401.840000", "180402.840000", "180403.840000", "180404.840000", "180405.840000", "180406.840000", "180407.840000", "180408.840000", "180409.840000", "180410.840000", "180411.840000", "180412.840000", "180413.840000", "180414.840000", "180415.840000", "180416.840000", "180417.840000", "180418.840000", "180419.840000", "180420.840000", "180421.840000", "180422.840000", "180423.840000", "180424.840000", "180425.840000", "180426.840000", "180427.840000", "180428.840000", "180429.840000", "180430.840000", "180431.840000", "180432.840000", "180433.840000", "180434.840000", "180435.840000", "180436.840000", "180437.840000", "180438.840000", "180439.840000", "180440.840000", "180441.840000", "180442.840000", "180443.840000", "180444.840000", "180445.840000", "180446.840000", "180447.840000", "180448.840000", "180449.840000", "180450.840000", "180451.840000", "180452.840000", "180453.840000", "180454.840000", "180455.840000", "180456.840000", "180457.840000", "180458.840000", "180459.840000", "180500.840000", "180501.840000", "180502.840000", "180503.840000", "180504.840000", "180505.840000", "180506.840000", "180507.840000", "180508.840000", "180509.840000", "180510.840000", "180511.840000", "180512.840000", "180513.840000", "180514.840000", "180515.840000", "180516.840000", "180517.840000", "180518.840000", "180519.840000", "180520.840000", "180521.840000", "180522.840000", "180523.840000", "180524.840000", "180525.840000", "180526.840000", "180527.840000", "180528.840000", "180529.840000", "180530.840000", "180531.840000", "180532.840000", "180533.840000", "180534.840000", "180535.840000", "180536.840000", "180537.840000", "180538.840000", "180539.840000", "180540.840000", "180541.840000", "180542.840000", "180543.840000", "180544.840000", "180545.840000", "180546.840000", "180547.840000", "180548.840000", "180549.840000", "180550.840000", "180551.840000", "180552.840000", "180553.840000", "180554.840000", "180555.840000", "180556.840000", "180557.840000", "180558.840000", "180559.840000", "180600.840000", "180601.840000", "180602.840000", "180603.840000", "180604.840000", "180605.840000", "180606.840000", "180607.840000", "180608.840000", "180609.840000", "180610.840000", "180611.840000", "180612.840000", "180613.840000", "180614.840000", "180615.840000", "180616.840000", "180617.840000", "180618.840000", "180619.840000", "180620.840000", "180621.840000"],
      "ContentTime": ["175908.287000", "175908.290000", "175908.293000", "175908.296000", "175908.298000", "175908.301000", "175908.304000", "175908.306000", "175908.309000", "175908.311000", "175908.314000", "175908.316000", "175908.319000", "175908.321000", "175908.324000", "175908.345000", "175908.348000", "175908.351000", "175908.353000", "175908.356000", "175908.358000", "175908.361000", "175908.364000", "175908.366000", "175908.369000", "175908.371000", "175908.374000", "175908.379000", "175908.382000", "175908.384000", "175908.387000", "175908.390000", "175908.392000", "175908.395000", "175928.254000", "175928.257000", "175928.260000", "175928.262000", "175928.265000", "175928.267000", "175928.270000", "175928.272000", "175928.275000", "175928.277000", "175928.280000", "175928.283000", "175928.285000", "175928.288000", "175928.290000", "175928.293000", "175928.295000", "175928.298000", "175928.301000", "175928.303000", "175948.255000", "175948.258000", "175948.261000", "175948.263000", "175948.266000", "175948.268000", "175948.270000", "175948.273000", "175948.276000", "175948.278000", "175948.281000", "175948.283000", "175948.286000", "175948.288000", "175948.291000", "175948.293000", "175948.296000", "175948.298000", "175948.301000", "175948.303000", "180008.255000", "180008.258000", "180008.261000", "180008.263000", "180008.266000", "180008.268000", "180008.271000", "180008.274000", "180008.276000", "180008.279000", "180008.281000", "180008.284000", "180008.286000", "180008.288000", "180008.291000", "180008.293000", "180008.296000", "180008.298000", "180008.301000", "180008.303000", "180028.255000", "180028.258000", "180028.260000", "180028.263000", "180028.266000", "180028.268000", "180028.271000", "180028.274000", "180028.276000", "180028.278000", "180028.281000", "180028.284000", "180028.286000", "180028.289000", "180028.291000", "180028.294000", "180028.297000", "180028.299000", "180028.302000", "180028.304000", "180048.255000", "180048.258000", "180048.260000", "180048.263000", "180048.266000", "180048.268000", "180048.271000", "180048.278000", "180048.280000", "180048.283000", "180048.285000", "180048.288000", "180048.290000", "180048.293000", "180048.295000", "180048.298000", "180048.300000", "180048.303000", "180048.305000", "180048.308000", "180108.255000", "180108.258000", "180108.261000", "180108.263000", "180108.266000", "180108.268000", "180108.271000", "180108.273000", "180108.276000", "180108.278000", "180108.281000", "180108.283000", "180108.286000", "180108.288000", "180108.291000", "180108.293000", "180108.296000", "180108.298000", "180108.301000", "180108.303000", "180128.255000", "180128.258000", "180128.261000", "180128.263000", "180128.266000", "180128.268000", "180128.271000", "180128.274000", "180128.276000", "180128.279000", "180128.281000", "180128.284000", "180128.286000", "180128.289000", "180128.291000", "180128.294000", "180128.296000", "180128.298000", "180128.301000", "180128.304000", "180148.255000", "180148.257000", "180148.260000", "180148.262000", "180148.265000", "180148.267000", "180148.270000", "180148.272000", "180148.275000", "180148.277000", "180148.280000", "180148.282000", "180148.292000", "180148.294000", "180148.297000", "180148.299000", "180148.302000", "180148.304000", "180148.307000", "180148.309000", "180208.255000", "180208.258000", "180208.261000", "180208.263000", "180208.266000", "180208.268000", "180208.271000", "180208.273000", "180208.276000", "180208.278000", "180208.281000", "180208.283000", "180208.286000", "180208.288000", "180208.291000", "180208.293000", "180208.296000", "180208.298000", "180208.301000", "180208.303000", "180228.256000", "180228.258000", "180228.261000", "180228.263000", "180228.266000", "180228.268000", "180228.271000", "180228.273000", "180228.276000", "180228.278000", "180228.281000", "180228.283000", "180228.286000", "180228.288000", "180228.291000", "180228.293000", "180228.296000", "180228.298000", "180228.301000", "180228.304000", "180248.255000", "180248.258000", "180248.260000", "180248.263000", "180248.266000", "180248.268000", "180248.271000", "180248.273000", "180248.276000", "180248.278000", "180248.281000", "180248.293000", "180248.295000", "180248.298000", "180248.300000", "180248.303000", "180248.305000", "180248.308000", "180248.310000", "180248.313000", "180308.256000", "180308.258000", "180308.261000", "180308.263000", "180308.266000", "180308.268000", "180308.271000", "180308.273000", "180308.276000", "180308.278000", "180308.281000", "180308.284000", "180308.286000", "180308.289000", "180308.291000", "180308.294000", "180308.296000", "180308.299000", "180308.301000", "180308.304000", "180328.255000", "180328.258000", "180328.260000", "180328.263000", "180328.266000", "180328.268000", "180328.271000", "180328.273000", "180328.276000", "180328.278000", "180328.281000", "180328.283000", "180328.286000", "180328.288000", "180328.291000", "180328.293000", "180328.296000", "180328.298000", "180328.301000", "180328.303000", "180348.256000", "180348.258000", "180348.261000", "180348.263000", "180348.266000", "180348.268000", "180348.271000", "180348.273000", "180348.276000", "180348.278000", "180348.281000", "180348.283000", "180348.286000", "180348.288000", "180348.291000", "180348.293000", "180348.296000", "180348.299000", "180348.301000", "180348.304000", "180408.255000", "180408.258000", "180408.260000", "180408.263000", "180408.266000", "180408.268000", "180408.271000", "180408.273000", "180408.276000", "180408.278000", "180408.281000", "180408.283000", "180408.286000", "180408.288000", "180408.291000", "180408.293000", "180408.296000", "180408.298000", "180408.301000", "180408.303000", "180428.255000", "180428.258000", "180428.261000", "180428.263000", "180428.266000", "180428.268000", "180428.271000", "180428.273000", "180428.276000", "180428.278000", "180428.281000", "180428.283000", "180428.286000", "180428.288000", "180428.291000", "180428.293000", "180428.296000", "180428.298000", "180428.301000", "180428.303000", "180448.255000", "180448.258000", "180448.261000", "180448.263000", "180448.266000", "180448.277000", "180448.279000", "180448.282000", "180448.284000", "180448.287000", "180448.289000", "180448.292000", "180448.294000", "180448.297000", "180448.299000", "180448.302000", "180448.304000", "180448.307000", "180448.309000", "180448.312000", "180508.256000", "180508.258000", "180508.261000", "180508.264000", "180508.266000", "180508.268000", "180508.271000", "180508.274000", "180508.276000", "180508.279000", "180508.281000", "180508.283000", "180508.286000", "180508.288000", "180508.291000", "180508.293000", "180508.296000", "180508.298000", "180508.301000", "180508.304000", "180528.255000", "180528.258000", "180528.261000", "180528.263000", "180528.266000", "180528.268000", "180528.271000", "180528.273000", "180528.276000", "180528.278000", "180528.281000", "180528.283000", "180528.286000", "180528.288000", "180528.291000", "180528.293000", "180528.296000", "180528.298000", "180528.301000", "180528.303000", "180548.255000", "180548.258000", "180548.261000", "180548.263000", "180548.266000", "180548.268000", "180548.271000", "180548.273000", "180548.276000", "180548.278000", "180548.281000", "180548.283000", "180548.286000", "180548.288000", "180548.291000", "180548.293000", "180548.296000", "180548.298000", "180548.301000", "180548.303000", "180608.255000", "180608.258000", "180608.261000", "180608.263000", "180608.266000", "180608.268000", "180608.271000", "180608.273000", "180608.276000", "180608.286000", "180608.289000", "180608.291000", "180608.294000", "180608.296000", "180608.299000", "180608.301000", "180608.304000", "180608.306000", "180608.309000", "180608.311000", "180623.037000", "180623.040000", "180623.043000", "180623.045000", "180623.048000", "180623.050000", "180623.053000", "180623.055000", "180623.058000", "180623.061000", "180623.063000", "180623.066000", "180623.068000", "180623.071000", "180623.073000"],
