{
  "AcquisitionMatrixPE": 106,
  "AcquisitionNumber": 1,
  "AcquisitionTime": "18:21:54.897500",
  "BandwidthPerPixelPhaseEncode": 16.846,
  "BaseResolution": 106,
  "BodyPartExamined": "BRAIN",
  "CoilCombinationMethod": "Sum of Squares",
  "ConsistencyInfo": "N4_VE11C_LATEST_20160120",
  "ConversionSoftware": "dcm2niix",
  "ConversionSoftwareVersion": "v1.0.20220720",
  "DerivedVendorReportedEchoSpacing": 0.000560012,
  "DeviceSerialNumber": "166108",
  "DwellTime": 1.8e-06,
  "EchoTime": 0.0352,
  "EchoTrainLength": 106,
  "EffectiveEchoSpacing": 0.000560012,
  "FlipAngle": 60,
  "HeudiconvVersion": "1.3.0",
  "ImageComments": "Unaliased MB4/PE3/LB",
  "ImageOrientationPatientDICOM": [1, 0, 0, 0, 0.856267, -0.516533],
  "ImageOrientationText": "Tra>Cor(-31.1)",
  "ImageType": [
    "ORIGINAL",
    "PRIMARY",
    "M",
    "MB",
    "ND",
    "MOSAIC"
],
  "ImagingFrequency": 123.244,
  "InPlanePhaseEncodingDirectionDICOM": "COL",
  "InstitutionAddress": "Bedford Way 26,London,London,GB,WC1H 0AP",
  "InstitutionName": "University College",
  "InstitutionalDepartmentName": "Department",
  "MRAcquisitionType": "2D",
  "MagneticFieldStrength": 3,
  "Manufacturer": "Siemens",
  "ManufacturersModelName": "Prisma",
  "MatrixCoilMode": "SENSE",
  "Modality": "MR",
  "MultibandAccelerationFactor": 4,
  "NonlinearGradientCorrection": false,
  "PartialFourier": 1,
  "PatientPosition": "HFS",
  "PercentPhaseFOV": 100,
  "PercentSampling": 100,
  "PhaseEncodingDirection": "j-",
  "PhaseEncodingSteps": 106,
  "PhaseResolution": 1,
  "PixelBandwidth": 2620,
  "ProcedureStepDescription": "Tessa^LHON",
  "ProtocolName": "func-bold_task-pRF_run-01",
  "PulseSequenceDetails": "%CustomerSeq%\\cmrr_mbep2d_bold",
  "ReceiveCoilActiveElements": "HEA;HEP",
  "ReceiveCoilName": "Head_32",
  "ReconMatrixPE": 106,
  "RepetitionTime": 1,
  "SAR": 0.0641637,
  "ScanOptions": "FS\\EXT",
  "ScanningSequence": "EP",
  "SequenceName": "epfid2d1_106",
  "SequenceVariant": "SK\\SS",
  "SeriesDescription": "func-bold_task-pRF_run-01",
  "SeriesNumber": 10,
  "ShimSetting": [-1503, 677, 7482, 287, -117, 254, 4, -49],
  "SliceThickness": 2,
  "SliceTiming": [0, 0.4075, 0.8175, 0.245, 0.6525, 0.0825, 0.49, 0.8975, 0.3275, 0.735, 0.1625, 0.5725, 0, 0.4075, 0.8175, 0.245, 0.6525, 0.0825, 0.49, 0.8975, 0.3275, 0.735, 0.1625, 0.5725, 0, 0.4075, 0.8175, 0.245, 0.6525, 0.0825, 0.49, 0.8975, 0.3275, 0.735, 0.1625, 0.5725, 0, 0.4075, 0.8175, 0.245, 0.6525, 0.0825, 0.49, 0.8975, 0.3275, 0.735, 0.1625, 0.5725],
  "SoftwareVersions": "syngo MR E11",
  "SpacingBetweenSlices": 2,
  "StationName": "AWP166108",
  "TaskName": "retinotopy",
  "TotalReadoutTime": 0.0588013,
  "TxRefAmp": 239.131,
  "WipMemBlock": "e74c7eda-f4c8-4f7c-a773-0bcb18b82baa||Sequence: R016 ve11c/master r/e634e98; Dec 19 2017 11:00:25 by eja",
  "dcmmeta_affine": [
    [-2.0, 0.0, 0.0, 106.0],
    [0.0, 1.7125341892242432, -1.0330666303634644, -62.3072395324707],
    [0.0, 1.0330666303634644, 1.7125341892242432, -61.270042419433594],
    [0.0, 0.0, 0.0, 1.0]
],
  "dcmmeta_reorient_transform": [
    [0.0, -1.0, 0.0, 105.0],
    [1.0, 0.0, 0.0, 0.0],
    [0.0, 0.0, 1.0, 0.0],
    [0.0, 0.0, 0.0, 1.0]
],
  "dcmmeta_shape": [106, 106, 48, 356],
  "dcmmeta_slice_dim": 2,
  "dcmmeta_version": 0.6,
  "global": {
    "const": {
      "AcquisitionMatrix": [106, 0, 0, 106],
      "AngioFlag": "N",
      "BitsAllocated": 16,
      "BitsStored": 16,
      "BodyPartExamined": "BRAIN",
      "CardiacNumberOfImages": 1,
      "Columns": 742,
      "EchoNumbers": 1,
      "EchoTime": 35.2,
      "EchoTrainLength": 106,
      "FlipAngle": 60.0,
      "HighBit": 15,
      "ImageOrientationPatient": [1.0, 0.0, 0.0, 0.0, 0.85626708284959, -0.5165333317689],
      "ImagePositionPatient": [-742.0, -662.09471092056, 375.71715500881],
      "ImageType": [
        "ORIGINAL",
        "PRIMARY",
        "M",
        "MB",
        "ND",
        "MOSAIC"
],
      "ImagedNucleus": "1H",
      "ImagingFrequency": 123.243591,
      "InPlanePhaseEncodingDirection": "COL",
      "MRAcquisitionType": "2D",
      "MagneticFieldStrength": 3.0,
      "Manufacturer": "SIEMENS",
      "ManufacturerModelName": "Prisma",
      "Modality": "MR",
      "NominalInterval": 0,
      "NumberOfAverages": 1.0,
      "NumberOfPhaseEncodingSteps": 106,
      "PercentPhaseFieldOfView": 100.0,
      "PercentSampling": 100.0,
      "PerformedProcedureStepStartTime": "173414.821000",
      "PhotometricInterpretation": "MONOCHROME2",
      "PixelBandwidth": 2620.0,
      "PixelRepresentation": 0,
      "PixelSpacing": [2.0, 2.0],
      "ProtocolName": "func-bold_task-pRF_run-01",
      "RepetitionTime": 1000.0,
      "Rows": 742,
      "SAR": 0.06416368985918,
      "SamplesPerPixel": 1,
      "ScanOptions": [
        "FS",
        "EXT"
],
      "ScanningSequence": "EP",
      "SequenceName": "epfid2d1_106",
      "SequenceVariant": [
        "SK",
        "SS"
],
      "SeriesDescription": "func-bold_task-pRF_run-01",
      "SeriesNumber": 10,
      "SeriesTime": "182228.305000",
      "SliceLocation": -20.279754682408,
      "SliceThickness": 2.0,
      "SmallestImagePixelValue": 0,
      "SoftwareVersions": "syngo MR E11",
      "SpacingBetweenSlices": 2.0000000165226,
      "SpecificCharacterSet": "ISO_IR 100",
      "StudyID": "1",
      "StudyTime": "173414.769000",
      "TransmitCoilName": "Body",
      "VariableFlipAngleFlag": "N",
      "WindowCenterWidthExplanation": "Algo1",
      "dBdt": 0.0},
    "slices": {}
  },
  "time": {
    "samples": {
      "AcquisitionNumber": [1, 2, 3, 4, 5, 6, 7, 8, 9, 10, 11, 12, 13, 14, 15, 16, 17, 18, 19, 20, 21, 22, 23, 24, 25, 26, 27, 28, 29, 30, 31, 32, 33, 34, 35, 36, 37, 38, 39, 40, 41, 42, 43, 44, 45, 46, 47, 48, 49, 50, 51, 52, 53, 54, 55, 56, 57, 58, 59, 60, 61, 62, 63, 64, 65, 66, 67, 68, 69, 70, 71, 72, 73, 74, 75, 76, 77, 78, 79, 80, 81, 82, 83, 84, 85, 86, 87, 88, 89, 90, 91, 92, 93, 94, 95, 96, 97, 98, 99, 100, 101, 102, 103, 104, 105, 106, 107, 108, 109, 110, 111, 112, 113, 114, 115, 116, 117, 118, 119, 120, 121, 122, 123, 124, 125, 126, 127, 128, 129, 130, 131, 132, 133, 134, 135, 136, 137, 138, 139, 140, 141, 142, 143, 144, 145, 146, 147, 148, 149, 150, 151, 152, 153, 154, 155, 156, 157, 158, 159, 160, 161, 162, 163, 164, 165, 166, 167, 168, 169, 170, 171, 172, 173, 174, 175, 176, 177, 178, 179, 180, 181, 182, 183, 184, 185, 186, 187, 188, 189, 190, 191, 192, 193, 194, 195, 196, 197, 198, 199, 200, 201, 202, 203, 204, 205, 206, 207, 208, 209, 210, 211, 212, 213, 214, 215, 216, 217, 218, 219, 220, 221, 222, 223, 224, 225, 226, 227, 228, 229, 230, 231, 232, 233, 234, 235, 236, 237, 238, 239, 240, 241, 242, 243, 244, 245, 246, 247, 248, 249, 250, 251, 252, 253, 254, 255, 256, 257, 258, 259, 260, 261, 262, 263, 264, 265, 266, 267, 268, 269, 270, 271, 272, 273, 274, 275, 276, 277, 278, 279, 280, 281, 282, 283, 284, 285, 286, 287, 288, 289, 290, 291, 292, 293, 294, 295, 296, 297, 298, 299, 300, 301, 302, 303, 304, 305, 306, 307, 308, 309, 310, 311, 312, 313, 314, 315, 316, 317, 318, 319, 320, 321, 322, 323, 324, 325, 326, 327, 328, 329, 330, 331, 332, 333, 334, 335, 336, 337, 338, 339, 340, 341, 342, 343, 344, 345, 346, 347, 348, 349, 350, 351, 352, 353, 354, 355, 356],
      "AcquisitionTime": ["182154.897500", "182155.897500", "182156.897500", "182157.897500", "182158.897500", "182159.897500", "182200.897500", "182201.897500", "182202.897500", "182203.897500", "182204.897500", "182205.897500", "182206.897500", "182207.897500", "182208.897500", "182209.897500", "182210.897500", "182211.897500", "182212.897500", "182213.897500", "182214.897500", "182215.897500", "182216.897500", "182217.897500", "182218.897500", "182219.897500", "182220.897500", "182221.897500", "182222.897500", "182223.897500", "182224.897500", "182225.897500", "182226.897500", "182227.897500", "182228.897500", "182229.897500", "182230.897500", "182231.897500", "182232.897500", "182233.897500", "182234.897500", "182235.897500", "182236.897500", "182237.897500", "182238.897500", "182239.897500", "182240.897500", "182241.897500", "182242.897500", "182243.897500", "182244.897500", "182245.897500", "182246.897500", "182247.897500", "182248.897500", "182249.897500", "182250.897500", "182251.897500", "182252.897500", "182253.897500", "182254.897500", "182255.897500", "182256.897500", "182257.897500", "182258.897500", "182259.897500", "182300.897500", "182301.897500", "182302.897500", "182303.897500", "182304.897500", "182305.897500", "182306.897500", "182307.897500", "182308.897500", "182309.897500", "182310.897500", "182311.897500", "182312.897500", "182313.897500", "182314.897500", "182315.897500", "182316.897500", "182317.897500", "182318.897500", "182319.897500", "182320.897500", "182321.897500", "182322.897500", "182323.897500", "182324.897500", "182325.897500", "182326.897500", "182327.897500", "182328.897500", "182329.897500", "182330.897500", "182331.897500", "182332.897500", "182333.897500", "182334.897500", "182335.897500", "182336.897500", "182337.897500", "182338.897500", "182339.897500", "182340.897500", "182341.897500", "182342.897500", "182343.897500", "182344.897500", "182345.897500", "182346.897500", "182347.897500", "182348.897500", "182349.897500", "182350.897500", "182351.897500", "182352.897500", "182353.897500", "182354.897500", "182355.897500", "182356.897500", "182357.897500", "182358.897500", "182359.897500", "182400.897500", "182401.897500", "182402.897500", "182403.897500", "182404.897500", "182405.897500", "182406.897500", "182407.897500", "182408.897500", "182409.897500", "182410.897500", "182411.897500", "182412.897500", "182413.897500", "182414.897500", "182415.897500", "182416.897500", "182417.897500", "182418.897500", "182419.897500", "182420.897500", "182421.897500", "182422.897500", "182423.897500", "182424.897500", "182425.897500", "182426.897500", "182427.897500", "182428.897500", "182429.897500", "182430.897500", "182431.897500", "182432.897500", "182433.897500", "182434.897500", "182435.897500", "182436.897500", "182437.897500", "182438.897500", "182439.897500", "182440.897500", "182441.897500", "182442.897500", "182443.897500", "182444.897500", "182445.897500", "182446.897500", "182447.897500", "182448.897500", "182449.897500", "182450.897500", "182451.897500", "182452.897500", "182453.897500", "182454.897500", "182455.897500", "182456.897500", "182457.897500", "182458.897500", "182459.897500", "182500.897500", "182501.897500", "182502.897500", "182503.897500", "182504.897500", "182505.897500", "182506.897500", "182507.897500", "182508.897500", "182509.897500", "182510.897500", "182511.897500", "182512.897500", "182513.897500", "182514.897500", "182515.897500", "182516.897500", "182517.897500", "182518.897500", "182519.897500", "182520.897500", "182521.897500", "182522.897500", "182523.897500", "182524.897500", "182525.897500", "182526.897500", "182527.897500", "182528.897500", "182529.897500", "182530.897500", "182531.897500", "182532.897500", "182533.897500", "182534.897500", "182535.897500", "182536.897500", "182537.897500", "182538.897500", "182539.897500", "182540.897500", "182541.897500", "182542.897500", "182543.897500", "182544.897500", "182545.897500", "182546.897500", "182547.897500", "182548.897500", "182549.897500", "182550.897500", "182551.897500", "182552.897500", "182553.897500", "182554.897500", "182555.897500", "182556.897500", "182557.897500", "182558.897500", "182559.897500", "182600.897500", "182601.897500", "182602.897500", "182603.897500", "182604.897500", "182605.897500", "182606.897500", "182607.897500", "182608.897500", "182609.897500", "182610.897500", "182611.897500", "182612.897500", "182613.897500", "182614.897500", "182615.897500", "182616.897500", "182617.897500", "182618.897500", "182619.897500", "182620.897500", "182621.897500", "182622.897500", "182623.897500", "182624.897500", "182625.897500", "182626.897500", "182627.897500", "182628.897500", "182629.897500", "182630.897500", "182631.897500", "182632.897500", "182633.897500", "182634.897500", "182635.897500", "182636.897500", "182637.897500", "182638.897500", "182639.897500", "182640.897500", "182641.897500", "182642.897500", "182643.897500", "182644.897500", "182645.897500", "182646.897500", "182647.897500", "182648.897500", "182649.897500", "182650.897500", "182651.897500", "182652.897500", "182653.897500", "182654.897500", "182655.897500", "182656.897500", "182657.897500", "182658.897500", "182659.897500", "182700.897500", "182701.897500", "182702.897500", "182703.897500", "182704.897500", "182705.897500", "182706.897500", "182707.897500", "182708.897500", "182709.897500", "182710.897500", "182711.897500", "182712.897500", "182713.897500", "182714.897500", "182715.897500", "182716.897500", "182717.897500", "182718.897500", "182719.897500", "182720.897500", "182721.897500", "182722.897500", "182723.897500", "182724.897500", "182725.897500", "182726.897500", "182727.897500", "182728.897500", "182729.897500", "182730.897500", "182731.897500", "182732.897500", "182733.897500", "182734.897500", "182735.897500", "182736.897500", "182737.897500", "182738.897500", "182739.897500", "182740.897500", "182741.897500", "182742.897500", "182743.897500", "182744.897500", "182745.897500", "182746.897500", "182747.897500", "182748.897500", "182749.897500"],
      "ContentTime": ["182228.307000", "182228.310000", "182228.313000", "182228.315000", "182228.318000", "182228.320000", "182228.323000", "182228.325000", "182228.328000", "182228.331000", "182228.333000", "182228.336000", "182228.338000", "182228.341000", "182228.343000", "182228.350000", "182228.353000", "182228.355000", "182228.358000", "182228.360000", "182228.363000", "182228.365000", "182228.368000", "182228.370000", "182228.373000", "182228.375000", "182228.378000", "182228.380000", "182228.383000", "182228.385000", "182228.388000", "182228.391000", "182248.255000", "182248.265000", "182248.267000", "182248.270000", "182248.272000", "182248.275000", "182248.277000", "182248.280000", "182248.282000", "182248.285000", "182248.287000", "182248.290000", "182248.292000", "182248.295000", "182248.298000", "182248.300000", "182248.303000", "182248.315000", "182248.317000", "182248.320000", "182308.255000", "182308.258000", "182308.261000", "182308.263000", "182308.266000", "182308.268000", "182308.271000", "182308.280000", "182308.282000", "182308.285000", "182308.288000", "182308.290000", "182308.293000", "182308.295000", "182308.298000", "182308.300000", "182308.303000", "182308.305000", "182308.308000", "182308.310000", "182328.255000", "182328.258000", "182328.261000", "182328.263000", "182328.266000", "182328.274000", "182328.276000", "182328.279000", "182328.281000", "182328.284000", "182328.286000", "182328.289000", "182328.291000", "182328.294000", "182328.296000", "182328.299000", "182328.301000", "182328.304000", "182328.307000", "182328.323000", "182348.255000", "182348.258000", "182348.264000", "182348.266000", "182348.269000", "182348.271000", "182348.274000", "182348.276000", "182348.279000", "182348.281000", "182348.284000", "182348.286000", "182348.289000", "182348.292000", "182348.294000", "182348.297000", "182348.299000", "182348.302000", "182348.304000", "182348.307000", "182408.255000", "182408.258000", "182408.261000", "182408.263000", "182408.266000", "182408.268000", "182408.271000", "182408.273000", "182408.276000", "182408.278000", "182408.281000", "182408.283000", "182408.286000", "182408.288000", "182408.291000", "182408.293000", "182408.296000", "182408.298000", "182408.301000", "182408.303000", "182428.255000", "182428.258000", "182428.261000", "182428.263000", "182428.266000", "182428.268000", "182428.271000", "182428.274000", "182428.276000", "182428.279000", "182428.281000", "182428.284000", "182428.286000", "182428.289000", "182428.291000", "182428.294000", "182428.296000", "182428.299000", "182428.302000", "182428.304000", "182448.255000", "182448.265000", "182448.268000", "182448.270000", "182448.273000", "182448.276000", "182448.278000", "182448.281000", "182448.283000", "182448.286000", "182448.288000", "182448.291000", "182448.293000", "182448.296000", "182448.299000", "182448.301000", "182448.304000", "182448.306000", "182448.309000", "182448.311000", "182508.256000", "182508.259000", "182508.261000", "182508.263000", "182508.266000", "182508.269000", "182508.271000", "182508.274000", "182508.276000", "182508.279000", "182508.281000", "182508.284000", "182508.286000", "182508.289000", "182508.291000", "182508.294000", "182508.296000", "182508.299000", "182508.302000", "182508.304000", "182528.256000", "182528.259000", "182528.261000", "182528.263000", "182528.266000", "182528.269000", "182528.271000", "182528.274000", "182528.276000", "182528.279000", "182528.281000", "182528.284000", "182528.286000", "182528.289000", "182528.291000", "182528.294000", "182528.296000", "182528.299000", "182528.301000", "182528.304000", "182548.255000", "182548.258000", "182548.261000", "182548.264000", "182548.266000", "182548.269000", "182548.271000", "182548.274000", "182548.276000", "182548.279000", "182548.282000", "182548.284000", "182548.287000", "182548.289000", "182548.292000", "182548.294000", "182548.297000", "182548.299000", "182548.302000", "182548.304000", "182608.255000", "182608.259000", "182608.261000", "182608.264000", "182608.266000", "182608.269000", "182608.271000", "182608.274000", "182608.276000", "182608.279000", "182608.282000", "182608.284000", "182608.286000", "182608.289000", "182608.292000", "182608.294000", "182608.297000", "182608.299000", "182608.302000", "182608.304000", "182628.255000", "182628.258000", "182628.261000", "182628.263000", "182628.266000", "182628.268000", "182628.271000", "182628.273000", "182628.276000", "182628.279000", "182628.281000", "182628.284000", "182628.286000", "182628.289000", "182628.291000", "182628.294000", "182628.296000", "182628.299000", "182628.301000", "182628.304000", "182648.256000", "182648.259000", "182648.261000", "182648.264000", "182648.266000", "182648.269000", "182648.271000", "182648.274000", "182648.276000", "182648.279000", "182648.282000", "182648.284000", "182648.287000", "182648.289000", "182648.292000", "182648.294000", "182648.297000", "182648.299000", "182648.302000", "182648.304000", "182708.255000", "182708.258000", "182708.261000", "182708.263000", "182708.266000", "182708.269000", "182708.271000", "182708.274000", "182708.276000", "182708.279000", "182708.281000", "182708.284000", "182708.286000", "182708.289000", "182708.292000", "182708.294000", "182708.310000", "182708.313000", "182708.316000", "182708.318000", "182728.256000", "182728.258000", "182728.261000", "182728.263000", "182728.266000", "182728.269000", "182728.271000", "182728.274000", "182728.276000", "182728.279000", "182728.281000", "182728.284000", "182728.286000", "182728.289000", "182728.292000", "182728.294000", "182728.297000", "182728.299000", "182728.302000", "182728.304000", "182748.255000", "182748.258000", "182748.261000", "182748.263000", "182748.266000", "182748.269000", "182748.271000", "182748.274000", "182748.276000", "182748.279000", "182748.281000", "182748.284000", "182748.286000", "182748.289000", "182748.292000", "182748.294000", "182748.297000", "182748.299000", "182748.302000", "182748.304000", "182751.918000", "182751.921000", "182751.924000", "182751.926000"],
      "InstanceCreationTime": ["182228.307000", "182228.310000", "182228.313000", "182228.315000", "182228.318000", "182228.320000", "182228.323000", "182228.325000", "182228.328000", "182228.331000", "182228.333000", "182228.336000", "182228.338000", "182228.341000", "182228.343000", "182228.350000", "182228.353000", "182228.355000", "182228.358000", "182228.360000", "182228.363000", "182228.365000", "182228.368000", "182228.370000", "182228.373000", "182228.375000", "182228.378000", "182228.380000", "182228.383000", "182228.385000", "182228.388000", "182228.391000", "182248.255000", "182248.265000", "182248.267000", "182248.270000", "182248.272000", "182248.275000", "182248.277000", "182248.280000", "182248.282000", "182248.285000", "182248.287000", "182248.290000", "182248.292000", "182248.295000", "182248.298000", "182248.300000", "182248.303000", "182248.315000", "182248.317000", "182248.320000", "182308.255000", "182308.258000", "182308.261000", "182308.263000", "182308.266000", "182308.268000", "182308.271000", "182308.280000", "182308.282000", "182308.285000", "182308.288000", "182308.290000", "182308.293000", "182308.295000", "182308.298000", "182308.300000", "182308.303000", "182308.305000", "182308.308000", "182308.310000", "182328.255000", "182328.258000", "182328.261000", "182328.263000", "182328.266000", "182328.274000", "182328.276000", "182328.279000", "182328.281000", "182328.284000", "182328.286000", "182328.289000", "182328.291000", "182328.294000", "182328.296000", "182328.299000", "182328.301000", "182328.304000", "182328.307000", "182328.323000", "182348.255000", "182348.258000", "182348.264000", "182348.266000", "182348.269000", "182348.271000", "182348.274000", "182348.276000", "182348.279000", "182348.281000", "182348.284000", "182348.286000", "182348.289000", "182348.292000", "182348.294000", "182348.297000", "182348.299000", "182348.302000", "182348.304000", "182348.307000", "182408.255000", "182408.258000", "182408.261000", "182408.263000", "182408.266000", "182408.268000", "182408.271000", "182408.273000", "182408.276000", "182408.278000", "182408.281000", "182408.283000", "182408.286000", "182408.288000", "182408.291000", "182408.293000", "182408.296000", "182408.298000", "182408.301000", "182408.303000", "182428.255000", "182428.258000", "182428.261000", "182428.263000", "182428.266000", "182428.268000", "182428.271000", "182428.274000", "182428.276000", "182428.279000", "182428.281000", "182428.284000", "182428.286000", "182428.289000", "182428.291000", "182428.294000", "182428.296000", "182428.299000", "182428.302000", "182428.304000", "182448.255000", "182448.265000", "182448.268000", "182448.270000", "182448.273000", "182448.276000", "182448.278000", "182448.281000", "182448.283000", "182448.286000", "182448.288000", "182448.291000", "182448.293000", "182448.296000", "182448.299000", "182448.301000", "182448.304000", "182448.306000", "182448.309000", "182448.311000", "182508.256000", "182508.259000", "182508.261000", "182508.263000", "182508.266000", "182508.269000", "182508.271000", "182508.274000", "182508.276000", "182508.279000", "182508.281000", "182508.284000", "182508.286000", "182508.289000", "182508.291000", "182508.294000", "182508.296000", "182508.299000", "182508.302000", "182508.304000", "182528.256000", "182528.259000", "182528.261000", "182528.263000", "182528.266000", "182528.269000", "182528.271000", "182528.274000", "182528.276000", "182528.279000", "182528.281000", "182528.284000", "182528.286000", "182528.289000", "182528.291000", "182528.294000", "182528.296000", "182528.299000", "182528.301000", "182528.304000", "182548.255000", "182548.258000", "182548.261000", "182548.264000", "182548.266000", "182548.269000", "182548.271000", "182548.274000", "182548.276000", "182548.279000", "182548.282000", "182548.284000", "182548.287000", "182548.289000", "182548.292000", "182548.294000", "182548.297000", "182548.299000", "182548.302000", "182548.304000", "182608.255000", "182608.259000", "182608.261000", "182608.264000", "182608.266000", "182608.269000", "182608.271000", "182608.274000", "182608.276000", "182608.279000", "182608.282000", "182608.284000", "182608.286000", "182608.289000", "182608.292000", "182608.294000", "182608.297000", "182608.299000", "182608.302000", "182608.304000", "182628.255000", "182628.258000", "182628.261000", "182628.263000", "182628.266000", "182628.268000", "182628.271000", "182628.273000", "182628.276000", "182628.279000", "182628.281000", "182628.284000", "182628.286000", "182628.289000", "182628.291000", "182628.294000", "182628.296000", "182628.299000", "182628.301000", "182628.304000", "182648.256000", "182648.259000", "182648.261000", "182648.264000", "182648.266000", "182648.269000", "182648.271000", "182648.274000", "182648.276000", "182648.279000", "182648.282000", "182648.284000", "182648.287000", "182648.289000", "182648.292000", "182648.294000", "182648.297000", "182648.299000", "182648.302000", "182648.304000", "182708.255000", "182708.258000", "182708.261000", "182708.263000", "182708.266000", "182708.269000", "182708.271000", "182708.274000", "182708.276000", "182708.279000", "182708.281000", "182708.284000", "182708.286000", "182708.289000", "182708.292000", "182708.294000", "182708.310000", "182708.313000", "182708.316000", "182708.318000", "182728.256000", "182728.258000", "182728.261000", "182728.263000", "182728.266000", "182728.269000", "182728.271000", "182728.274000", "182728.276000", "182728.279000", "182728.281000", "182728.284000", "182728.286000", "182728.289000", "182728.292000", "182728.294000", "182728.297000", "182728.299000", "182728.302000", "182728.304000", "182748.255000", "182748.258000", "182748.261000", "182748.263000", "182748.266000", "182748.269000", "182748.271000", "182748.274000", "182748.276000", "182748.279000", "182748.281000", "182748.284000", "182748.286000", "182748.289000", "182748.292000", "182748.294000", "182748.297000", "182748.299000", "182748.302000", "182748.304000", "182751.918000", "182751.921000", "182751.924000", "182751.926000"],
      "InstanceNumber": [1, 2, 3, 4, 5, 6, 7, 8, 9, 10, 11, 12, 13, 14, 15, 16, 17, 18, 19, 20, 21, 22, 23, 24, 25, 26, 27, 28, 29, 30, 31, 32, 33, 34, 35, 36, 37, 38, 39, 40, 41, 42, 43, 44, 45, 46, 47, 48, 49, 50, 51, 52, 53, 54, 55, 56, 57, 58, 59, 60, 61, 62, 63, 64, 65, 66, 67, 68, 69, 70, 71, 72, 73, 74, 75, 76, 77, 78, 79, 80, 81, 82, 83, 84, 85, 86, 87, 88, 89, 90, 91, 92, 93, 94, 95, 96, 97, 98, 99, 100, 101, 102, 103, 104, 105, 106, 107, 108, 109, 110, 111, 112, 113, 114, 115, 116, 117, 118, 119, 120, 121, 122, 123, 124, 125, 126, 127, 128, 129, 130, 131, 132, 133, 134, 135, 136, 137, 138, 139, 140, 141, 142, 143, 144, 145, 146, 147, 148, 149, 150, 151, 152, 153, 154, 155, 156, 157, 158, 159, 160, 161, 162, 163, 164, 165, 166, 167, 168, 169, 170, 171, 172, 173, 174, 175, 176, 177, 178, 179, 180, 181, 182, 183, 184, 185, 186, 187, 188, 189, 190, 191, 192, 193, 194, 195, 196, 197, 198, 199, 200, 201, 202, 203, 204, 205, 206, 207, 208, 209, 210, 211, 212, 213, 214, 215, 216, 217, 218, 219, 220, 221, 222, 223, 224, 225, 226, 227, 228, 229, 230, 231, 232, 233, 234, 235, 236, 237, 238, 239, 240, 241, 242, 243, 244, 245, 246, 247, 248, 249, 250, 251, 252, 253, 254, 255, 256, 257, 258, 259, 260, 261, 262, 263, 264, 265, 266, 267, 268, 269, 270, 271, 272, 273, 274, 275, 276, 277, 278, 279, 280, 281, 282, 283, 284, 285, 286, 287, 288, 289, 290, 291, 292, 293, 294, 295, 296, 297, 298, 299, 300, 301, 302, 303, 304, 305, 306, 307, 308, 309, 310, 311, 312, 313, 314, 315, 316, 317, 318, 319, 320, 321, 322, 323, 324, 325, 326, 327, 328, 329, 330, 331, 332, 333, 334, 335, 336, 337, 338, 339, 340, 341, 342, 343, 344, 345, 346, 347, 348, 349, 350, 351, 352, 353, 354, 355, 356],
      "LargestImagePixelValue": [10320, 10116, 10005, 9851, 9797, 9870, 9646, 9737, 9843, 9667, 9696, 9648, 9757, 9686, 9744, 9674, 9853, 9828, 9728, 9852, 9823, 9747, 9661, 9646, 9752, 9660, 9718, 9804, 9737, 9662, 9776, 9713, 9771, 9828, 9697, 9777, 9738, 9809, 9730, 9747, 9716, 9703, 9772, 9780, 9770, 9745, 9814, 9699, 9742, 9845, 9670, 9676, 9623, 9828, 9797, 9732, 9809, 9753, 9751, 9701, 9812, 9864, 9866, 9657, 9852, 9827, 9716, 9861, 9625, 9736, 9927, 9784, 9666, 9759, 9856, 9815, 9785, 9815, 9792, 9804, 9752, 9881, 9800, 9924, 9836, 9826, 9839, 9671, 9811, 9657, 9762, 9661, 9758, 9689, 9792, 9831, 9886, 9812, 9777, 9708, 9718, 9820, 9824, 9816, 9861, 9680, 9696, 9860, 9760, 9763, 9720, 9765, 9755, 9777, 9719, 9779, 9755, 9748, 9703, 9722, 9685, 9801, 9842, 9716, 9633, 9824, 9858, 9647, 9814, 9815, 9692, 9740, 9796, 9669, 9832, 9814, 9729, 9693, 9751, 9885, 9723, 9737, 9696, 9805, 9648, 9778, 9921, 9727, 9892, 9777, 9824, 9777, 9709, 9822, 9819, 9829, 9876, 9817, 9705, 9877, 9835, 9733, 9791, 9813, 9805, 9751, 9782, 9876, 9806, 9828, 9720, 9798, 9885, 9840, 9858, 9835, 9758, 9720, 9742, 9824, 9759, 9807, 9652, 9775, 9807, 9775, 9715, 9776, 9811, 9709, 9845, 9693, 9776, 9913, 9705, 9752, 9748, 9847, 9775, 9789, 9672, 9710, 9831, 9664, 9741, 9835, 9716, 9734, 9881, 9812, 9869, 9737, 9863, 9741, 9764, 9748, 9973, 9785, 9837, 9912, 9952, 9822, 9809, 9761, 9688, 9971, 9762, 9791, 9870, 9899, 9791, 9991, 9808, 9790, 9767, 9835, 9663, 9716, 9931, 9779, 9828, 9943, 9703, 9783, 9813, 9840, 9894, 9635, 9836, 9901, 9761, 9717, 9802, 9788, 9708, 9916, 9701, 9763, 9843, 9870, 9764, 9784, 9829, 9754, 9785, 9752, 9726, 9763, 9849, 9880, 9791, 9794, 9860, 9771, 9799, 9735, 9795, 9723, 9801, 9702, 9911, 9716, 9586, 9722, 9911, 9810, 9819, 9776, 9607, 9826, 9705, 9718, 9597, 9844, 9647, 9692, 9738, 9640, 9777, 9808, 9689, 9762, 9688, 9697, 9712, 9764, 9728, 9857, 9787, 9642, 9781, 9903, 9802, 9817, 9889, 9804, 9714, 9819, 9786, 9720, 9832, 9739, 9675, 9856, 9631, 9842, 9831, 9584, 9748, 9726, 9783, 9707, 9759, 9665, 9782, 9675, 9631, 9700, 9619, 9724, 9812, 9827, 9816, 9858, 9801, 9795, 9695, 9661, 9805, 9847, 9691, 9643, 9758, 9591, 9839, 9698],
