{
  "AcquisitionMatrixPE": 106,
  "AcquisitionNumber": 1,
  "AcquisitionTime": "14:43:47.667500",
  "BandwidthPerPixelPhaseEncode": 16.846,
  "BaseResolution": 106,
  "BodyPartExamined": "BRAIN",
  "CoilCombinationMethod": "Sum of Squares",
  "ConsistencyInfo": "N4_VE11C_LATEST_20160120",
  "ConversionSoftware": "dcm2niix",
  "ConversionSoftwareVersion": "v1.0.20220720",
  "DerivedVendorReportedEchoSpacing": 0.000560012,
  "DeviceSerialNumber": "166108",
  "DwellTime": 1.8e-06,
  "EchoTime": 0.0352,
  "EchoTrainLength": 106,
  "EffectiveEchoSpacing": 0.000560012,
  "FlipAngle": 60,
  "HeudiconvVersion": "1.3.0",
  "ImageComments": "Unaliased MB4/PE3/LB",
  "ImageOrientationPatientDICOM": [1, 0, 0, 0, 0.988756, -0.149535],
  "ImageOrientationText": "Tra>Cor(-8.6)",
  "ImageType": [
    "ORIGINAL",
    "PRIMARY",
    "M",
    "MB",
    "ND",
    "MOSAIC"
],
  "ImagingFrequency": 123.244,
  "InPlanePhaseEncodingDirectionDICOM": "COL",
  "InstitutionAddress": "Bedford Way 26,London,London,GB,WC1H 0AP",
  "InstitutionName": "University College",
  "InstitutionalDepartmentName": "Department",
  "MRAcquisitionType": "2D",
  "MagneticFieldStrength": 3,
  "Manufacturer": "Siemens",
  "ManufacturersModelName": "Prisma",
  "MatrixCoilMode": "SENSE",
  "Modality": "MR",
  "MultibandAccelerationFactor": 4,
  "NonlinearGradientCorrection": false,
  "PartialFourier": 1,
  "PatientPosition": "HFS",
  "PercentPhaseFOV": 100,
  "PercentSampling": 100,
  "PhaseEncodingDirection": "j-",
  "PhaseEncodingSteps": 106,
  "PhaseResolution": 1,
  "PixelBandwidth": 2620,
  "ProcedureStepDescription": "Egor^MovieProject2",
  "ProtocolName": "func-bold_task-pRF_run-03",
  "PulseSequenceDetails": "%CustomerSeq%\\cmrr_mbep2d_bold",
  "ReceiveCoilActiveElements": "HEA;HEP",
  "ReceiveCoilName": "Head_32",
  "ReconMatrixPE": 106,
  "RepetitionTime": 1,
  "SAR": 0.0706831,
  "ScanOptions": "FS\\EXT",
  "ScanningSequence": "EP",
  "SequenceName": "epfid2d1_106",
  "SequenceVariant": "SK\\SS",
  "SeriesDescription": "func-bold_task-pRF_run-03",
  "SeriesNumber": 14,
  "ShimSetting": [-1576, 647, 7430, 531, -18, 76, -49, -8],
  "SliceThickness": 2,
  "SliceTiming": [0, 0.41, 0.8175, 0.245, 0.655, 0.0825, 0.49, 0.9, 0.3275, 0.735, 0.165, 0.5725, 0, 0.41, 0.8175, 0.245, 0.655, 0.0825, 0.49, 0.9, 0.3275, 0.735, 0.165, 0.5725, 0, 0.41, 0.8175, 0.245, 0.655, 0.0825, 0.49, 0.9, 0.3275, 0.735, 0.165, 0.5725, 0, 0.41, 0.8175, 0.245, 0.655, 0.0825, 0.49, 0.9, 0.3275, 0.735, 0.165, 0.5725],
  "SoftwareVersions": "syngo MR E11",
  "SpacingBetweenSlices": 2,
  "StationName": "AWP166108",
  "TaskName": "retinotopy",
  "TotalReadoutTime": 0.0588013,
  "TxRefAmp": 235.586,
  "WipMemBlock": "a03f8cb3-97fe-41f0-aa4d-65a6e06ef6f9||Sequence: R016 ve11c/master r/e634e98; Dec 19 2017 11:00:25 by eja",
  "dcmmeta_affine": [
    [-2.0, 0.0, 0.0, 106.0],
    [0.0, 1.9775127172470093, -0.29907065629959106, -89.01696014404297],
    [0.0, 0.29907068610191345, 1.9775127172470093, -33.64731979370117],
    [0.0, 0.0, 0.0, 1.0]
],
  "dcmmeta_reorient_transform": [
    [0.0, -1.0, 0.0, 105.0],
    [1.0, 0.0, 0.0, 0.0],
    [0.0, 0.0, 1.0, 0.0],
    [0.0, 0.0, 0.0, 1.0]
],
  "dcmmeta_shape": [106, 106, 48, 356],
  "dcmmeta_slice_dim": 2,
  "dcmmeta_version": 0.6,
  "global": {
    "const": {
      "AcquisitionMatrix": [106, 0, 0, 106],
      "AngioFlag": "N",
      "BitsAllocated": 16,
      "BitsStored": 16,
      "BodyPartExamined": "BRAIN",
      "CardiacNumberOfImages": 1,
      "Columns": 742,
      "EchoNumbers": 1,
      "EchoTime": 35.2,
      "EchoTrainLength": 106,
      "FlipAngle": 60.0,
      "HighBit": 15,
      "ImageOrientationPatient": [1.0, 0.0, 0.0, 0.0, 0.98875638160626, -0.1495353397458],
      "ImagePositionPatient": [-742.0, -747.47093868883, 92.859576186872],
      "ImageType": [
        "ORIGINAL",
        "PRIMARY",
        "M",
        "MB",
        "ND",
        "MOSAIC"
],
      "ImagedNucleus": "1H",
      "ImagingFrequency": 123.243688,
      "InPlanePhaseEncodingDirection": "COL",
      "MRAcquisitionType": "2D",
      "MagneticFieldStrength": 3.0,
      "Manufacturer": "SIEMENS",
      "ManufacturerModelName": "Prisma",
      "Modality": "MR",
      "NominalInterval": 0,
      "NumberOfAverages": 1.0,
      "NumberOfPhaseEncodingSteps": 106,
      "PercentPhaseFieldOfView": 100.0,
      "PercentSampling": 100.0,
      "PerformedProcedureStepStartTime": "134612.786000",
      "PhotometricInterpretation": "MONOCHROME2",
      "PixelBandwidth": 2620.0,
      "PixelRepresentation": 0,
      "PixelSpacing": [2.0, 2.0],
      "ProtocolName": "func-bold_task-pRF_run-03",
      "RepetitionTime": 1000.0,
      "Rows": 742,
      "SAR": 0.07068310235259,
      "SamplesPerPixel": 1,
      "ScanOptions": [
        "FS",
        "EXT"
],
      "ScanningSequence": "EP",
      "SequenceName": "epfid2d1_106",
      "SequenceVariant": [
        "SK",
        "SS"
],
      "SeriesDescription": "func-bold_task-pRF_run-03",
      "SeriesNumber": 14,
      "SeriesTime": "144415.990000",
      "SliceLocation": -19.957822218954,
      "SliceThickness": 2.0,
      "SmallestImagePixelValue": 0,
      "SoftwareVersions": "syngo MR E11",
      "SpacingBetweenSlices": 1.9999999237911,
      "SpecificCharacterSet": "ISO_IR 100",
      "StudyID": "1",
      "StudyTime": "134612.725000",
      "TransmitCoilName": "Body",
      "VariableFlipAngleFlag": "N",
      "WindowCenterWidthExplanation": "Algo1",
      "dBdt": 0.0},
    "slices": {}
  },
  "time": {
    "samples": {
      "AcquisitionNumber": [1, 2, 3, 4, 5, 6, 7, 8, 9, 10, 11, 12, 13, 14, 15, 16, 17, 18, 19, 20, 21, 22, 23, 24, 25, 26, 27, 28, 29, 30, 31, 32, 33, 34, 35, 36, 37, 38, 39, 40, 41, 42, 43, 44, 45, 46, 47, 48, 49, 50, 51, 52, 53, 54, 55, 56, 57, 58, 59, 60, 61, 62, 63, 64, 65, 66, 67, 68, 69, 70, 71, 72, 73, 74, 75, 76, 77, 78, 79, 80, 81, 82, 83, 84, 85, 86, 87, 88, 89, 90, 91, 92, 93, 94, 95, 96, 97, 98, 99, 100, 101, 102, 103, 104, 105, 106, 107, 108, 109, 110, 111, 112, 113, 114, 115, 116, 117, 118, 119, 120, 121, 122, 123, 124, 125, 126, 127, 128, 129, 130, 131, 132, 133, 134, 135, 136, 137, 138, 139, 140, 141, 142, 143, 144, 145, 146, 147, 148, 149, 150, 151, 152, 153, 154, 155, 156, 157, 158, 159, 160, 161, 162, 163, 164, 165, 166, 167, 168, 169, 170, 171, 172, 173, 174, 175, 176, 177, 178, 179, 180, 181, 182, 183, 184, 185, 186, 187, 188, 189, 190, 191, 192, 193, 194, 195, 196, 197, 198, 199, 200, 201, 202, 203, 204, 205, 206, 207, 208, 209, 210, 211, 212, 213, 214, 215, 216, 217, 218, 219, 220, 221, 222, 223, 224, 225, 226, 227, 228, 229, 230, 231, 232, 233, 234, 235, 236, 237, 238, 239, 240, 241, 242, 243, 244, 245, 246, 247, 248, 249, 250, 251, 252, 253, 254, 255, 256, 257, 258, 259, 260, 261, 262, 263, 264, 265, 266, 267, 268, 269, 270, 271, 272, 273, 274, 275, 276, 277, 278, 279, 280, 281, 282, 283, 284, 285, 286, 287, 288, 289, 290, 291, 292, 293, 294, 295, 296, 297, 298, 299, 300, 301, 302, 303, 304, 305, 306, 307, 308, 309, 310, 311, 312, 313, 314, 315, 316, 317, 318, 319, 320, 321, 322, 323, 324, 325, 326, 327, 328, 329, 330, 331, 332, 333, 334, 335, 336, 337, 338, 339, 340, 341, 342, 343, 344, 345, 346, 347, 348, 349, 350, 351, 352, 353, 354, 355, 356],
      "AcquisitionTime": ["144347.667500", "144348.667500", "144349.667500", "144350.667500", "144351.667500", "144352.667500", "144353.667500", "144354.667500", "144355.667500", "144356.667500", "144357.667500", "144358.667500", "144359.667500", "144400.667500", "144401.667500", "144402.667500", "144403.667500", "144404.667500", "144405.667500", "144406.667500", "144407.667500", "144408.667500", "144409.667500", "144410.667500", "144411.667500", "144412.667500", "144413.667500", "144414.667500", "144415.667500", "144416.667500", "144417.667500", "144418.667500", "144419.667500", "144420.667500", "144421.667500", "144422.667500", "144423.667500", "144424.667500", "144425.667500", "144426.667500", "144427.667500", "144428.667500", "144429.667500", "144430.667500", "144431.667500", "144432.667500", "144433.667500", "144434.667500", "144435.667500", "144436.667500", "144437.667500", "144438.667500", "144439.667500", "144440.667500", "144441.667500", "144442.667500", "144443.667500", "144444.667500", "144445.667500", "144446.667500", "144447.667500", "144448.667500", "144449.667500", "144450.667500", "144451.667500", "144452.667500", "144453.667500", "144454.667500", "144455.667500", "144456.667500", "144457.667500", "144458.667500", "144459.667500", "144500.667500", "144501.667500", "144502.667500", "144503.667500", "144504.667500", "144505.667500", "144506.667500", "144507.667500", "144508.667500", "144509.667500", "144510.667500", "144511.667500", "144512.667500", "144513.667500", "144514.667500", "144515.667500", "144516.667500", "144517.667500", "144518.667500", "144519.667500", "144520.667500", "144521.667500", "144522.667500", "144523.667500", "144524.667500", "144525.667500", "144526.667500", "144527.667500", "144528.667500", "144529.667500", "144530.667500", "144531.667500", "144532.667500", "144533.667500", "144534.667500", "144535.667500", "144536.667500", "144537.667500", "144538.667500", "144539.667500", "144540.667500", "144541.667500", "144542.667500", "144543.667500", "144544.667500", "144545.667500", "144546.667500", "144547.667500", "144548.667500", "144549.667500", "144550.667500", "144551.667500", "144552.667500", "144553.667500", "144554.667500", "144555.667500", "144556.667500", "144557.667500", "144558.667500", "144559.667500", "144600.667500", "144601.667500", "144602.667500", "144603.667500", "144604.667500", "144605.667500", "144606.667500", "144607.667500", "144608.667500", "144609.667500", "144610.667500", "144611.667500", "144612.667500", "144613.667500", "144614.667500", "144615.667500", "144616.667500", "144617.667500", "144618.667500", "144619.667500", "144620.667500", "144621.667500", "144622.667500", "144623.667500", "144624.667500", "144625.667500", "144626.667500", "144627.667500", "144628.667500", "144629.667500", "144630.667500", "144631.667500", "144632.667500", "144633.667500", "144634.667500", "144635.667500", "144636.667500", "144637.667500", "144638.667500", "144639.667500", "144640.667500", "144641.667500", "144642.667500", "144643.667500", "144644.667500", "144645.667500", "144646.667500", "144647.667500", "144648.667500", "144649.667500", "144650.667500", "144651.667500", "144652.667500", "144653.667500", "144654.667500", "144655.667500", "144656.667500", "144657.667500", "144658.667500", "144659.667500", "144700.667500", "144701.667500", "144702.667500", "144703.667500", "144704.667500", "144705.667500", "144706.667500", "144707.667500", "144708.667500", "144709.667500", "144710.667500", "144711.667500", "144712.667500", "144713.667500", "144714.667500", "144715.667500", "144716.667500", "144717.667500", "144718.667500", "144719.667500", "144720.667500", "144721.667500", "144722.667500", "144723.667500", "144724.667500", "144725.667500", "144726.667500", "144727.667500", "144728.667500", "144729.667500", "144730.667500", "144731.667500", "144732.667500", "144733.667500", "144734.667500", "144735.667500", "144736.667500", "144737.667500", "144738.667500", "144739.667500", "144740.667500", "144741.667500", "144742.667500", "144743.667500", "144744.667500", "144745.667500", "144746.667500", "144747.667500", "144748.667500", "144749.667500", "144750.667500", "144751.667500", "144752.667500", "144753.667500", "144754.667500", "144755.667500", "144756.667500", "144757.667500", "144758.667500", "144759.667500", "144800.667500", "144801.667500", "144802.667500", "144803.667500", "144804.667500", "144805.667500", "144806.667500", "144807.667500", "144808.667500", "144809.667500", "144810.667500", "144811.667500", "144812.667500", "144813.667500", "144814.667500", "144815.667500", "144816.667500", "144817.667500", "144818.667500", "144819.667500", "144820.667500", "144821.667500", "144822.667500", "144823.667500", "144824.667500", "144825.667500", "144826.667500", "144827.667500", "144828.667500", "144829.667500", "144830.667500", "144831.667500", "144832.667500", "144833.667500", "144834.667500", "144835.667500", "144836.667500", "144837.667500", "144838.667500", "144839.667500", "144840.667500", "144841.667500", "144842.667500", "144843.667500", "144844.667500", "144845.667500", "144846.667500", "144847.667500", "144848.667500", "144849.667500", "144850.667500", "144851.667500", "144852.667500", "144853.667500", "144854.667500", "144855.667500", "144856.667500", "144857.667500", "144858.667500", "144859.667500", "144900.667500", "144901.667500", "144902.667500", "144903.667500", "144904.667500", "144905.667500", "144906.667500", "144907.667500", "144908.667500", "144909.667500", "144910.667500", "144911.667500", "144912.667500", "144913.667500", "144914.667500", "144915.667500", "144916.667500", "144917.667500", "144918.667500", "144919.667500", "144920.667500", "144921.667500", "144922.667500", "144923.667500", "144924.667500", "144925.667500", "144926.667500", "144927.667500", "144928.667500", "144929.667500", "144930.667500", "144931.667500", "144932.667500", "144933.667500", "144934.667500", "144935.667500", "144936.667500", "144937.667500", "144938.667500", "144939.667500", "144940.667500", "144941.667500", "144942.667500"],
      "ContentTime": ["144415.992000", "144416.002000", "144416.004000", "144416.007000", "144416.009000", "144416.012000", "144416.014000", "144416.017000", "144416.019000", "144416.022000", "144416.024000", "144416.027000", "144416.029000", "144416.032000", "144416.034000", "144416.037000", "144416.039000", "144416.042000", "144416.044000", "144416.047000", "144416.049000", "144416.052000", "144416.054000", "144416.057000", "144416.059000", "144416.062000", "144416.064000", "144416.066000", "144435.965000", "144435.968000", "144435.971000", "144435.973000", "144435.975000", "144435.978000", "144435.985000", "144435.987000", "144435.989000", "144435.992000", "144435.994000", "144435.997000", "144436.000000", "144436.003000", "144436.005000", "144436.008000", "144436.010000", "144436.013000", "144436.015000", "144436.018000", "144455.965000", "144455.968000", "144455.971000", "144455.973000", "144455.976000", "144455.978000", "144455.981000", "144455.983000", "144455.986000", "144455.988000", "144455.991000", "144455.993000", "144455.996000", "144455.998000", "144456.002000", "144456.004000", "144456.007000", "144456.009000", "144456.011000", "144456.014000", "144515.966000", "144515.968000", "144515.971000", "144515.973000", "144515.976000", "144515.978000", "144515.981000", "144515.983000", "144515.986000", "144515.988000", "144515.991000", "144515.993000", "144515.996000", "144515.998000", "144516.002000", "144516.004000", "144516.007000", "144516.009000", "144516.012000", "144516.014000", "144535.966000", "144535.968000", "144535.971000", "144535.985000", "144535.987000", "144535.990000", "144535.992000", "144535.995000", "144535.997000", "144536.000000", "144536.002000", "144536.004000", "144536.007000", "144536.009000", "144536.012000", "144536.014000", "144536.017000", "144536.019000", "144536.022000", "144536.024000", "144555.965000", "144555.968000", "144555.970000", "144555.973000", "144555.975000", "144555.978000", "144555.980000", "144555.983000", "144555.985000", "144555.988000", "144555.990000", "144555.993000", "144555.995000", "144555.997000", "144556.001000", "144556.004000", "144556.006000", "144556.009000", "144556.011000", "144556.014000", "144615.965000", "144615.968000", "144615.971000", "144615.973000", "144615.976000", "144615.978000", "144615.981000", "144615.983000", "144615.986000", "144615.988000", "144615.991000", "144615.993000", "144615.995000", "144615.998000", "144616.001000", "144616.004000", "144616.006000", "144616.009000", "144616.011000", "144616.014000", "144635.966000", "144635.968000", "144635.971000", "144635.973000", "144635.976000", "144635.978000", "144635.981000", "144635.983000", "144635.986000", "144635.988000", "144635.991000", "144635.993000", "144635.996000", "144635.998000", "144636.002000", "144636.004000", "144636.007000", "144636.009000", "144636.012000", "144636.014000", "144655.965000", "144655.968000", "144655.971000", "144655.973000", "144655.976000", "144655.978000", "144655.981000", "144655.983000", "144655.986000", "144655.988000", "144655.990000", "144655.993000", "144655.995000", "144655.998000", "144656.001000", "144656.004000", "144656.006000", "144656.009000", "144656.011000", "144656.014000", "144715.966000", "144715.968000", "144715.971000", "144715.973000", "144715.976000", "144715.979000", "144715.981000", "144715.983000", "144715.986000", "144715.989000", "144715.991000", "144715.994000", "144715.996000", "144716.000000", "144716.002000", "144716.005000", "144716.008000", "144716.010000", "144716.012000", "144716.015000", "144735.965000", "144735.968000", "144735.971000", "144735.973000", "144735.975000", "144735.978000", "144735.980000", "144735.983000", "144735.985000", "144735.993000", "144735.996000", "144735.998000", "144736.001000", "144736.004000", "144736.006000", "144736.009000", "144736.012000", "144736.014000", "144736.016000", "144736.019000", "144755.965000", "144755.968000", "144755.971000", "144755.973000", "144755.976000", "144755.978000", "144755.981000", "144755.983000", "144755.986000", "144755.988000", "144755.991000", "144755.993000", "144755.996000", "144755.998000", "144756.002000", "144756.004000", "144756.007000", "144756.009000", "144756.012000", "144756.014000", "144815.966000", "144815.968000", "144815.971000", "144815.973000", "144815.976000", "144815.978000", "144815.981000", "144815.983000", "144815.986000", "144815.988000", "144815.991000", "144815.993000", "144815.996000", "144815.998000", "144816.002000", "144816.004000", "144816.007000", "144816.009000", "144816.011000", "144816.014000", "144835.965000", "144835.968000", "144835.971000", "144835.973000", "144835.976000", "144835.978000", "144835.980000", "144835.983000", "144835.985000", "144835.988000", "144835.990000", "144835.993000", "144835.995000", "144835.998000", "144836.001000", "144836.004000", "144836.006000", "144836.009000", "144836.011000", "144836.014000", "144855.966000", "144855.968000", "144855.971000", "144855.973000", "144855.976000", "144855.978000", "144855.981000", "144855.983000", "144855.986000", "144855.988000", "144855.991000", "144855.993000", "144855.996000", "144855.998000", "144856.002000", "144856.004000", "144856.006000", "144856.009000", "144856.011000", "144856.014000", "144915.978000", "144915.981000", "144915.984000", "144915.986000", "144915.989000", "144915.991000", "144915.994000", "144915.996000", "144916.000000", "144916.002000", "144916.005000", "144916.007000", "144916.010000", "144916.012000", "144916.015000", "144916.017000", "144916.020000", "144916.022000", "144916.025000", "144916.027000", "144935.965000", "144935.968000", "144935.970000", "144935.973000", "144935.976000", "144935.978000", "144935.981000", "144935.983000", "144935.986000", "144935.988000", "144935.990000", "144935.993000", "144935.996000", "144935.998000", "144936.001000", "144936.004000", "144936.006000", "144936.009000", "144936.011000", "144936.014000", "144943.791000", "144943.795000", "144943.798000", "144943.801000", "144943.804000", "144943.807000", "144943.810000", "144943.813000"],
      "InstanceCreationTime": ["144415.992000", "144416.002000", "144416.004000", "144416.007000", "144416.009000", "144416.012000", "144416.014000", "144416.017000", "144416.019000", "144416.022000", "144416.024000", "144416.027000", "144416.029000", "144416.032000", "144416.034000", "144416.037000", "144416.039000", "144416.042000", "144416.044000", "144416.047000", "144416.049000", "144416.052000", "144416.054000", "144416.057000", "144416.059000", "144416.062000", "144416.064000", "144416.066000", "144435.965000", "144435.968000", "144435.971000", "144435.973000", "144435.975000", "144435.978000", "144435.985000", "144435.987000", "144435.989000", "144435.992000", "144435.994000", "144435.997000", "144436.000000", "144436.003000", "144436.005000", "144436.008000", "144436.010000", "144436.013000", "144436.015000", "144436.018000", "144455.965000", "144455.968000", "144455.971000", "144455.973000", "144455.976000", "144455.978000", "144455.981000", "144455.983000", "144455.986000", "144455.988000", "144455.991000", "144455.993000", "144455.996000", "144455.998000", "144456.002000", "144456.004000", "144456.007000", "144456.009000", "144456.011000", "144456.014000", "144515.966000", "144515.968000", "144515.971000", "144515.973000", "144515.976000", "144515.978000", "144515.981000", "144515.983000", "144515.986000", "144515.988000", "144515.991000", "144515.993000", "144515.996000", "144515.998000", "144516.002000", "144516.004000", "144516.007000", "144516.009000", "144516.012000", "144516.014000", "144535.966000", "144535.968000", "144535.971000", "144535.985000", "144535.987000", "144535.990000", "144535.992000", "144535.995000", "144535.997000", "144536.000000", "144536.002000", "144536.004000", "144536.007000", "144536.009000", "144536.012000", "144536.014000", "144536.017000", "144536.019000", "144536.022000", "144536.024000", "144555.965000", "144555.968000", "144555.970000", "144555.973000", "144555.975000", "144555.978000", "144555.980000", "144555.983000", "144555.985000", "144555.988000", "144555.990000", "144555.993000", "144555.995000", "144555.997000", "144556.001000", "144556.004000", "144556.006000", "144556.009000", "144556.011000", "144556.014000", "144615.965000", "144615.968000", "144615.971000", "144615.973000", "144615.976000", "144615.978000", "144615.981000", "144615.983000", "144615.986000", "144615.988000", "144615.991000", "144615.993000", "144615.995000", "144615.998000", "144616.001000", "144616.004000", "144616.006000", "144616.009000", "144616.011000", "144616.014000", "144635.966000", "144635.968000", "144635.971000", "144635.973000", "144635.976000", "144635.978000", "144635.981000", "144635.983000", "144635.986000", "144635.988000", "144635.991000", "144635.993000", "144635.996000", "144635.998000", "144636.002000", "144636.004000", "144636.007000", "144636.009000", "144636.012000", "144636.014000", "144655.965000", "144655.968000", "144655.971000", "144655.973000", "144655.976000", "144655.978000", "144655.981000", "144655.983000", "144655.986000", "144655.988000", "144655.990000", "144655.993000", "144655.995000", "144655.998000", "144656.001000", "144656.004000", "144656.006000", "144656.009000", "144656.011000", "144656.014000", "144715.966000", "144715.968000", "144715.971000", "144715.973000", "144715.976000", "144715.979000", "144715.981000", "144715.983000", "144715.986000", "144715.989000", "144715.991000", "144715.994000", "144715.996000", "144716.000000", "144716.002000", "144716.005000", "144716.008000", "144716.010000", "144716.012000", "144716.015000", "144735.965000", "144735.968000", "144735.971000", "144735.973000", "144735.975000", "144735.978000", "144735.980000", "144735.983000", "144735.985000", "144735.993000", "144735.996000", "144735.998000", "144736.001000", "144736.004000", "144736.006000", "144736.009000", "144736.012000", "144736.014000", "144736.016000", "144736.019000", "144755.965000", "144755.968000", "144755.971000", "144755.973000", "144755.976000", "144755.978000", "144755.981000", "144755.983000", "144755.986000", "144755.988000", "144755.991000", "144755.993000", "144755.996000", "144755.998000", "144756.002000", "144756.004000", "144756.007000", "144756.009000", "144756.012000", "144756.014000", "144815.966000", "144815.968000", "144815.971000", "144815.973000", "144815.976000", "144815.978000", "144815.981000", "144815.983000", "144815.986000", "144815.988000", "144815.991000", "144815.993000", "144815.996000", "144815.998000", "144816.002000", "144816.004000", "144816.007000", "144816.009000", "144816.011000", "144816.014000", "144835.965000", "144835.968000", "144835.971000", "144835.973000", "144835.976000", "144835.978000", "144835.980000", "144835.983000", "144835.985000", "144835.988000", "144835.990000", "144835.993000", "144835.995000", "144835.998000", "144836.001000", "144836.004000", "144836.006000", "144836.009000", "144836.011000", "144836.014000", "144855.966000", "144855.968000", "144855.971000", "144855.973000", "144855.976000", "144855.978000", "144855.981000", "144855.983000", "144855.986000", "144855.988000", "144855.991000", "144855.993000", "144855.996000", "144855.998000", "144856.002000", "144856.004000", "144856.006000", "144856.009000", "144856.011000", "144856.014000", "144915.978000", "144915.981000", "144915.984000", "144915.986000", "144915.989000", "144915.991000", "144915.994000", "144915.996000", "144916.000000", "144916.002000", "144916.005000", "144916.007000", "144916.010000", "144916.012000", "144916.015000", "144916.017000", "144916.020000", "144916.022000", "144916.025000", "144916.027000", "144935.965000", "144935.968000", "144935.970000", "144935.973000", "144935.976000", "144935.978000", "144935.981000", "144935.983000", "144935.986000", "144935.988000", "144935.990000", "144935.993000", "144935.996000", "144935.998000", "144936.001000", "144936.004000", "144936.006000", "144936.009000", "144936.011000", "144936.014000", "144943.791000", "144943.795000", "144943.798000", "144943.801000", "144943.804000", "144943.807000", "144943.810000", "144943.813000"],
      "InstanceNumber": [1, 2, 3, 4, 5, 6, 7, 8, 9, 10, 11, 12, 13, 14, 15, 16, 17, 18, 19, 20, 21, 22, 23, 24, 25, 26, 27, 28, 29, 30, 31, 32, 33, 34, 35, 36, 37, 38, 39, 40, 41, 42, 43, 44, 45, 46, 47, 48, 49, 50, 51, 52, 53, 54, 55, 56, 57, 58, 59, 60, 61, 62, 63, 64, 65, 66, 67, 68, 69, 70, 71, 72, 73, 74, 75, 76, 77, 78, 79, 80, 81, 82, 83, 84, 85, 86, 87, 88, 89, 90, 91, 92, 93, 94, 95, 96, 97, 98, 99, 100, 101, 102, 103, 104, 105, 106, 107, 108, 109, 110, 111, 112, 113, 114, 115, 116, 117, 118, 119, 120, 121, 122, 123, 124, 125, 126, 127, 128, 129, 130, 131, 132, 133, 134, 135, 136, 137, 138, 139, 140, 141, 142, 143, 144, 145, 146, 147, 148, 149, 150, 151, 152, 153, 154, 155, 156, 157, 158, 159, 160, 161, 162, 163, 164, 165, 166, 167, 168, 169, 170, 171, 172, 173, 174, 175, 176, 177, 178, 179, 180, 181, 182, 183, 184, 185, 186, 187, 188, 189, 190, 191, 192, 193, 194, 195, 196, 197, 198, 199, 200, 201, 202, 203, 204, 205, 206, 207, 208, 209, 210, 211, 212, 213, 214, 215, 216, 217, 218, 219, 220, 221, 222, 223, 224, 225, 226, 227, 228, 229, 230, 231, 232, 233, 234, 235, 236, 237, 238, 239, 240, 241, 242, 243, 244, 245, 246, 247, 248, 249, 250, 251, 252, 253, 254, 255, 256, 257, 258, 259, 260, 261, 262, 263, 264, 265, 266, 267, 268, 269, 270, 271, 272, 273, 274, 275, 276, 277, 278, 279, 280, 281, 282, 283, 284, 285, 286, 287, 288, 289, 290, 291, 292, 293, 294, 295, 296, 297, 298, 299, 300, 301, 302, 303, 304, 305, 306, 307, 308, 309, 310, 311, 312, 313, 314, 315, 316, 317, 318, 319, 320, 321, 322, 323, 324, 325, 326, 327, 328, 329, 330, 331, 332, 333, 334, 335, 336, 337, 338, 339, 340, 341, 342, 343, 344, 345, 346, 347, 348, 349, 350, 351, 352, 353, 354, 355, 356],
      "LargestImagePixelValue": [11838, 11384, 11200, 10918, 11105, 11370, 10915, 11310, 11120, 10987, 10798, 11111, 10890, 10814, 10947, 10849, 10729, 10907, 10986, 11114, 10950, 10886, 10870, 10758, 10997, 10797, 10931, 11038, 10926, 11140, 10940, 10815, 10723, 10839, 10812, 10799, 10858, 10885, 10921, 10842, 10925, 11032, 10966, 11040, 11010, 11110, 11199, 11082, 11016, 11077, 11010, 11093, 10979, 11039, 11005, 11122, 11159, 11157, 11209, 11141, 11139, 11048, 11134, 11180, 11072, 11191, 11126, 11073, 11131, 11310, 11202, 11218, 11126, 11162, 11244, 11239, 11177, 11284, 11160, 11138, 11279, 11051, 11108, 11125, 11268, 11358, 11118, 11222, 11053, 11241, 11111, 11232, 11128, 11055, 11069, 11040, 11100, 11205, 11197, 11232, 11079, 11228, 11156, 11244, 11281, 11218, 11035, 11057, 11037, 11183, 11205, 11202, 11298, 11428, 11267, 11278, 11258, 11277, 11233, 11349, 11178, 11282, 11319, 11278, 11257, 11201, 11332, 11263, 11401, 11299, 11281, 11102, 11145, 11162, 11310, 11129, 11200, 11277, 11201, 11193, 11208, 11190, 11121, 11248, 11192, 11127, 11179, 11168, 11166, 11170, 11132, 11192, 11163, 11419, 11285, 11170, 11183, 11193, 11171, 11135, 11086, 11588, 11231, 11191, 11125, 11132, 11201, 11202, 11307, 11281, 11113, 11179, 11100, 11077, 11138, 11290, 11266, 11263, 11333, 11289, 11201, 11051, 11197, 11191, 11171, 11233, 11242, 11227, 11310, 11212, 11305, 11360, 11233, 11232, 11978, 12023, 11274, 11203, 11385, 11231, 11088, 10954, 10954, 10951, 10924, 10973, 10874, 10901, 11033, 10855, 11117, 11061, 10994, 11009, 11069, 11173, 10936, 10905, 11152, 11096, 11082, 11177, 11282, 11255, 11095, 11168, 11319, 11076, 11022, 11189, 11236, 10979, 11068, 11137, 11010, 11056, 11154, 11191, 10928, 11055, 11134, 10972, 11196, 11138, 11051, 11107, 11232, 11009, 10867, 11008, 11046, 10862, 10752, 10905, 10816, 10868, 10961, 10861, 10785, 10847, 10861, 10839, 10961, 10879, 10856, 10879, 10841, 10905, 10890, 10908, 10836, 10743, 10930, 10966, 11071, 10815, 10824, 10992, 11035, 10862, 10807, 10801, 10799, 10967, 10922, 10976, 11019, 10983, 10962, 11061, 11091, 10928, 10857, 10813, 10832, 10907, 10810, 10842, 10943, 11071, 11032, 10974, 10996, 11041, 11092, 10977, 10969, 10909, 11143, 10794, 10950, 10992, 10942, 10826, 10974, 10970, 11044, 11090, 11023, 10898, 11037, 10987, 11099, 11144, 11212, 10998, 10932, 10983, 10996, 11058, 11151, 10818, 10724, 10835, 10813, 10846, 10755, 10961, 10835, 10759, 10844, 10829, 10757, 10726, 10813, 10845, 10952, 10976, 10937, 11023, 10861, 10758, 10750, 10922, 10767, 10729],
