{
  "AcquisitionMatrixPE": 106,
  "AcquisitionNumber": 1,
  "AcquisitionTime": "15:02:13.502500",
  "BandwidthPerPixelPhaseEncode": 13.477,
  "BaseResolution": 106,
  "BodyPartExamined": "BRAIN",
  "CoilCombinationMethod": "Sum of Squares",
  "ConsistencyInfo": "N4_VE11C_LATEST_20160120",
  "ConversionSoftware": "dcm2niix",
  "ConversionSoftwareVersion": "v1.0.20220720",
  "DerivedVendorReportedEchoSpacing": 0.000700005,
  "DeviceSerialNumber": "166108",
  "DwellTime": 2.6e-06,
  "EchoTime": 0.03,
  "EchoTrainLength": 80,
  "EffectiveEchoSpacing": 0.000700005,
  "FlipAngle": 62,
  "HeudiconvVersion": "1.3.0",
  "ImageComments": "Unaliased MB4/PE3/LB",
  "ImageOrientationPatientDICOM": [1, 0, 0, 0, 0.969872, -0.243615],
  "ImageOrientationText": "Tra>Cor(-14.1)",
  "ImageType": [
    "ORIGINAL",
    "PRIMARY",
    "M",
    "MB",
    "ND",
    "MOSAIC"
],
  "ImagingFrequency": 123.244,
  "InPlanePhaseEncodingDirectionDICOM": "COL",
  "InstitutionAddress": "Bedford Way 26,London,London,GB,WC1H 0AP",
  "InstitutionName": "University College",
  "InstitutionalDepartmentName": "Department",
  "MRAcquisitionType": "2D",
  "MagneticFieldStrength": 3,
  "Manufacturer": "Siemens",
  "ManufacturersModelName": "Prisma",
  "MatrixCoilMode": "SENSE",
  "Modality": "MR",
  "MultibandAccelerationFactor": 4,
  "NonlinearGradientCorrection": false,
  "PartialFourier": 0.75,
  "PatientPosition": "HFS",
  "PercentPhaseFOV": 100,
  "PercentSampling": 100,
  "PhaseEncodingDirection": "j-",
  "PhaseEncodingSteps": 80,
  "PhaseResolution": 1,
  "PixelBandwidth": 1815,
  "ProcedureStepDescription": "Egor^MovieProject2",
  "ProtocolName": "func-bold_task-tono_run-01",
  "PulseSequenceDetails": "%CustomerSeq%\\cmrr_mbep2d_bold",
  "ReceiveCoilActiveElements": "HEA;HEP",
  "ReceiveCoilName": "Head_32",
  "ReconMatrixPE": 106,
  "RepetitionTime": 1,
  "SAR": 0.0421962,
  "ScanOptions": "PFP\\FS\\EXT",
  "ScanningSequence": "EP",
  "SequenceName": "epfid2d1_106",
  "SequenceVariant": "SK\\SS",
  "SeriesDescription": "func-bold_task-tono_run-01",
  "SeriesNumber": 19,
  "ShimSetting": [-1569, 661, 7437, 595, 19, 91, -91, -30],
  "SliceThickness": 2,
  "SliceTiming": [0, 0.535, 0.09, 0.625, 0.18, 0.715, 0.2675, 0.8025, 0.3575, 0.8925, 0.4475, 0, 0.535, 0.09, 0.625, 0.18, 0.715, 0.2675, 0.8025, 0.3575, 0.8925, 0.4475, 0, 0.535, 0.09, 0.625, 0.18, 0.715, 0.2675, 0.8025, 0.3575, 0.8925, 0.4475, 0, 0.535, 0.09, 0.625, 0.18, 0.715, 0.2675, 0.8025, 0.3575, 0.8925, 0.4475],
  "SoftwareVersions": "syngo MR E11",
  "SpacingBetweenSlices": 2,
  "StationName": "AWP166108",
  "TaskName": "tonotopy",
  "TotalReadoutTime": 0.0735005,
  "TxRefAmp": 240.096,
  "WipMemBlock": "697d7179-5fbe-4d31-9c1d-fbed17abd2d6||Sequence: R016 ve11c/master r/e634e98; Dec 19 2017 11:00:25 by eja",
  "dcmmeta_affine": [
    [-2.0, 0.0, 0.0, 106.0],
    [0.0, 1.939743995666504, -0.4872300326824188, -73.398681640625],
    [0.0, 0.4872300326824188, 1.9397441148757935, -39.47477722167969],
    [0.0, 0.0, 0.0, 1.0]
],
  "dcmmeta_reorient_transform": [
    [0.0, -1.0, 0.0, 105.0],
    [1.0, 0.0, 0.0, 0.0],
    [0.0, 0.0, 1.0, 0.0],
    [0.0, 0.0, 0.0, 1.0]
],
  "dcmmeta_shape": [106, 106, 44, 264],
  "dcmmeta_slice_dim": 2,
  "dcmmeta_version": 0.6,
  "global": {
    "const": {
      "AcquisitionMatrix": [106, 0, 0, 106],
      "AngioFlag": "N",
      "BitsAllocated": 16,
      "BitsStored": 16,
      "BodyPartExamined": "BRAIN",
      "CardiacNumberOfImages": 1,
      "Columns": 742,
      "EchoNumbers": 1,
      "EchoTime": 30.0,
      "EchoTrainLength": 80,
      "FlipAngle": 62.0,
      "HighBit": 15,
      "ImageOrientationPatient": [1.0, 0.0, 0.0, 0.0, 0.96987201493677, -0.2436150131714],
      "ImagePositionPatient": [-742.0, -747.11304121712, 166.62352484703],
      "ImageType": [
        "ORIGINAL",
        "PRIMARY",
        "M",
        "MB",
        "ND",
        "MOSAIC"
],
      "ImagedNucleus": "1H",
      "ImagingFrequency": 123.243689,
      "InPlanePhaseEncodingDirection": "COL",
      "MRAcquisitionType": "2D",
      "MagneticFieldStrength": 3.0,
      "Manufacturer": "SIEMENS",
      "ManufacturerModelName": "Prisma",
      "Modality": "MR",
      "NominalInterval": 0,
      "NumberOfAverages": 1.0,
      "NumberOfPhaseEncodingSteps": 80,
      "PercentPhaseFieldOfView": 100.0,
      "PercentSampling": 100.0,
      "PerformedProcedureStepStartTime": "134612.786000",
      "PhotometricInterpretation": "MONOCHROME2",
      "PixelBandwidth": 1815.0,
      "PixelRepresentation": 0,
      "PixelSpacing": [2.0, 2.0],
      "ProtocolName": "func-bold_task-tono_run-01",
      "RepetitionTime": 1000.0,
      "Rows": 742,
      "SAR": 0.04219620536195,
      "SamplesPerPixel": 1,
      "ScanOptions": [
        "PFP",
        "FS",
        "EXT"
],
      "ScanningSequence": "EP",
      "SequenceName": "epfid2d1_106",
      "SequenceVariant": [
        "SK",
        "SS"
],
      "SeriesDescription": "func-bold_task-tono_run-01",
      "SeriesNumber": 19,
      "SeriesTime": "150235.997000",
      "SliceLocation": -20.404459597375,
      "SliceThickness": 2.0,
      "SmallestImagePixelValue": 0,
      "SoftwareVersions": "syngo MR E11",
      "SpacingBetweenSlices": 2.0000000280024,
      "SpecificCharacterSet": "ISO_IR 100",
      "StudyID": "1",
      "StudyTime": "134612.725000",
      "TransmitCoilName": "Body",
      "VariableFlipAngleFlag": "N",
      "WindowCenterWidthExplanation": "Algo1",
      "dBdt": 0.0},
    "slices": {}
  },
  "time": {
    "samples": {
      "AcquisitionNumber": [1, 2, 3, 4, 5, 6, 7, 8, 9, 10, 11, 12, 13, 14, 15, 16, 17, 18, 19, 20, 21, 22, 23, 24, 25, 26, 27, 28, 29, 30, 31, 32, 33, 34, 35, 36, 37, 38, 39, 40, 41, 42, 43, 44, 45, 46, 47, 48, 49, 50, 51, 52, 53, 54, 55, 56, 57, 58, 59, 60, 61, 62, 63, 64, 65, 66, 67, 68, 69, 70, 71, 72, 73, 74, 75, 76, 77, 78, 79, 80, 81, 82, 83, 84, 85, 86, 87, 88, 89, 90, 91, 92, 93, 94, 95, 96, 97, 98, 99, 100, 101, 102, 103, 104, 105, 106, 107, 108, 109, 110, 111, 112, 113, 114, 115, 116, 117, 118, 119, 120, 121, 122, 123, 124, 125, 126, 127, 128, 129, 130, 131, 132, 133, 134, 135, 136, 137, 138, 139, 140, 141, 142, 143, 144, 145, 146, 147, 148, 149, 150, 151, 152, 153, 154, 155, 156, 157, 158, 159, 160, 161, 162, 163, 164, 165, 166, 167, 168, 169, 170, 171, 172, 173, 174, 175, 176, 177, 178, 179, 180, 181, 182, 183, 184, 185, 186, 187, 188, 189, 190, 191, 192, 193, 194, 195, 196, 197, 198, 199, 200, 201, 202, 203, 204, 205, 206, 207, 208, 209, 210, 211, 212, 213, 214, 215, 216, 217, 218, 219, 220, 221, 222, 223, 224, 225, 226, 227, 228, 229, 230, 231, 232, 233, 234, 235, 236, 237, 238, 239, 240, 241, 242, 243, 244, 245, 246, 247, 248, 249, 250, 251, 252, 253, 254, 255, 256, 257, 258, 259, 260, 261, 262, 263, 264],
      "AcquisitionTime": ["150213.502500", "150214.502500", "150215.502500", "150216.502500", "150217.502500", "150218.502500", "150219.502500", "150220.502500", "150221.502500", "150222.502500", "150223.502500", "150224.502500", "150225.502500", "150226.502500", "150227.502500", "150228.502500", "150229.502500", "150230.502500", "150231.502500", "150232.502500", "150233.502500", "150234.502500", "150235.502500", "150236.502500", "150237.502500", "150238.502500", "150239.502500", "150240.502500", "150241.502500", "150242.502500", "150243.502500", "150244.502500", "150245.502500", "150246.502500", "150247.502500", "150248.502500", "150249.502500", "150250.502500", "150251.502500", "150252.502500", "150253.502500", "150254.502500", "150255.502500", "150256.502500", "150257.502500", "150258.502500", "150259.502500", "150300.502500", "150301.502500", "150302.502500", "150303.502500", "150304.502500", "150305.502500", "150306.502500", "150307.502500", "150308.502500", "150309.502500", "150310.502500", "150311.502500", "150312.502500", "150313.502500", "150314.502500", "150315.502500", "150316.502500", "150317.502500", "150318.502500", "150319.502500", "150320.502500", "150321.502500", "150322.502500", "150323.502500", "150324.502500", "150325.502500", "150326.502500", "150327.502500", "150328.502500", "150329.502500", "150330.502500", "150331.502500", "150332.502500", "150333.502500", "150334.502500", "150335.502500", "150336.502500", "150337.502500", "150338.502500", "150339.502500", "150340.502500", "150341.502500", "150342.502500", "150343.502500", "150344.502500", "150345.502500", "150346.502500", "150347.502500", "150348.502500", "150349.502500", "150350.502500", "150351.502500", "150352.502500", "150353.502500", "150354.502500", "150355.502500", "150356.502500", "150357.502500", "150358.502500", "150359.502500", "150400.502500", "150401.502500", "150402.502500", "150403.502500", "150404.502500", "150405.502500", "150406.502500", "150407.502500", "150408.502500", "150409.502500", "150410.502500", "150411.502500", "150412.502500", "150413.502500", "150414.502500", "150415.502500", "150416.502500", "150417.502500", "150418.502500", "150419.502500", "150420.502500", "150421.502500", "150422.502500", "150423.502500", "150424.502500", "150425.502500", "150426.502500", "150427.502500", "150428.502500", "150429.502500", "150430.502500", "150431.502500", "150432.502500", "150433.502500", "150434.502500", "150435.502500", "150436.502500", "150437.502500", "150438.502500", "150439.502500", "150440.502500", "150441.502500", "150442.502500", "150443.502500", "150444.502500", "150445.502500", "150446.502500", "150447.502500", "150448.502500", "150449.502500", "150450.502500", "150451.502500", "150452.502500", "150453.502500", "150454.502500", "150455.502500", "150456.502500", "150457.502500", "150458.502500", "150459.502500", "150500.502500", "150501.502500", "150502.502500", "150503.502500", "150504.502500", "150505.502500", "150506.502500", "150507.502500", "150508.502500", "150509.502500", "150510.502500", "150511.502500", "150512.502500", "150513.502500", "150514.502500", "150515.502500", "150516.502500", "150517.502500", "150518.502500", "150519.502500", "150520.502500", "150521.502500", "150522.502500", "150523.502500", "150524.502500", "150525.502500", "150526.502500", "150527.502500", "150528.502500", "150529.502500", "150530.502500", "150531.502500", "150532.502500", "150533.502500", "150534.502500", "150535.502500", "150536.502500", "150537.502500", "150538.502500", "150539.502500", "150540.502500", "150541.502500", "150542.502500", "150543.502500", "150544.502500", "150545.502500", "150546.502500", "150547.502500", "150548.502500", "150549.502500", "150550.502500", "150551.502500", "150552.502500", "150553.502500", "150554.502500", "150555.502500", "150556.502500", "150557.502500", "150558.502500", "150559.502500", "150600.502500", "150601.502500", "150602.502500", "150603.502500", "150604.502500", "150605.502500", "150606.502500", "150607.502500", "150608.502500", "150609.502500", "150610.502500", "150611.502500", "150612.502500", "150613.502500", "150614.502500", "150615.502500", "150616.502500", "150617.502500", "150618.502500", "150619.502500", "150620.502500", "150621.502500", "150622.502500", "150623.502500", "150624.502500", "150625.502500", "150626.502500", "150627.502500", "150628.502500", "150629.502500", "150630.502500", "150631.502500", "150632.502500", "150633.502500", "150634.502500", "150635.502500", "150636.502500"],
      "ContentTime": ["150236.000000", "150236.003000", "150236.006000", "150236.008000", "150236.011000", "150236.013000", "150236.016000", "150236.018000", "150236.020000", "150236.023000", "150236.025000", "150236.030000", "150236.032000", "150236.035000", "150236.037000", "150236.039000", "150236.042000", "150236.044000", "150236.047000", "150236.049000", "150236.052000", "150236.054000", "150255.965000", "150255.968000", "150255.970000", "150255.973000", "150255.975000", "150255.978000", "150255.980000", "150255.983000", "150255.985000", "150255.987000", "150255.990000", "150255.992000", "150255.995000", "150255.997000", "150256.001000", "150256.003000", "150256.006000", "150256.008000", "150256.011000", "150256.013000", "150315.965000", "150315.968000", "150315.970000", "150315.973000", "150315.975000", "150315.978000", "150315.980000", "150315.983000", "150315.985000", "150315.987000", "150315.990000", "150315.992000", "150315.995000", "150315.997000", "150316.001000", "150316.003000", "150316.005000", "150316.008000", "150316.010000", "150316.013000", "150335.965000", "150335.968000", "150335.986000", "150335.989000", "150335.991000", "150335.993000", "150335.996000", "150335.998000", "150336.002000", "150336.004000", "150336.007000", "150336.009000", "150336.011000", "150336.014000", "150336.016000", "150336.019000", "150336.021000", "150336.023000", "150336.026000", "150336.028000", "150355.965000", "150355.968000", "150355.977000", "150355.979000", "150355.981000", "150355.984000", "150355.986000", "150355.989000", "150355.991000", "150355.994000", "150355.996000", "150355.998000", "150356.002000", "150356.004000", "150356.007000", "150356.009000", "150356.012000", "150356.014000", "150356.016000", "150356.019000", "150415.965000", "150415.968000", "150415.970000", "150415.973000", "150415.975000", "150415.978000", "150415.980000", "150415.983000", "150415.985000", "150415.988000", "150415.990000", "150415.992000", "150415.995000", "150415.997000", "150416.001000", "150416.003000", "150416.006000", "150416.008000", "150416.011000", "150416.013000", "150435.965000", "150435.968000", "150435.971000", "150435.973000", "150435.975000", "150435.978000", "150435.980000", "150435.983000", "150435.985000", "150435.988000", "150435.990000", "150435.993000", "150435.995000", "150435.998000", "150436.000000", "150436.002000", "150436.005000", "150436.007000", "150436.010000", "150436.012000", "150455.965000", "150455.968000", "150455.971000", "150455.973000", "150455.976000", "150455.978000", "150455.980000", "150455.983000", "150455.985000", "150455.988000", "150455.990000", "150455.993000", "150455.995000", "150455.997000", "150456.001000", "150456.003000", "150456.006000", "150456.008000", "150456.010000", "150456.013000", "150515.965000", "150515.968000", "150515.971000", "150515.973000", "150515.976000", "150515.978000", "150515.981000", "150515.983000", "150515.985000", "150515.988000", "150515.990000", "150515.993000", "150515.995000", "150515.998000", "150516.001000", "150516.003000", "150516.006000", "150516.008000", "150516.011000", "150516.013000", "150535.965000", "150535.968000", "150535.971000", "150535.973000", "150535.976000", "150535.978000", "150535.980000", "150535.983000", "150535.985000", "150535.988000", "150535.990000", "150535.993000", "150535.995000", "150535.997000", "150536.001000", "150536.003000", "150536.006000", "150536.008000", "150536.011000", "150536.013000", "150555.965000", "150555.968000", "150555.970000", "150555.973000", "150555.975000", "150555.978000", "150555.980000", "150555.983000", "150555.985000", "150555.988000", "150555.990000", "150555.993000", "150555.995000", "150555.997000", "150556.001000", "150556.003000", "150556.006000", "150556.008000", "150556.011000", "150556.013000", "150615.966000", "150615.968000", "150615.971000", "150615.973000", "150615.976000", "150615.978000", "150615.981000", "150615.983000", "150615.986000", "150615.988000", "150615.991000", "150615.993000", "150615.995000", "150615.998000", "150616.001000", "150616.004000", "150616.006000", "150616.009000", "150616.011000", "150616.013000", "150635.965000", "150635.968000", "150635.970000", "150635.973000", "150635.975000", "150635.978000", "150635.980000", "150635.983000", "150635.985000", "150635.988000", "150635.990000", "150635.992000", "150635.995000", "150635.997000", "150636.001000", "150636.003000", "150636.006000", "150636.008000", "150636.010000", "150636.013000", "150637.823000", "150637.826000"],
      "InstanceCreationTime": ["150236.000000", "150236.003000", "150236.006000", "150236.008000", "150236.011000", "150236.013000", "150236.016000", "150236.018000", "150236.020000", "150236.023000", "150236.025000", "150236.030000", "150236.032000", "150236.035000", "150236.037000", "150236.039000", "150236.042000", "150236.044000", "150236.047000", "150236.049000", "150236.052000", "150236.054000", "150255.965000", "150255.968000", "150255.970000", "150255.973000", "150255.975000", "150255.978000", "150255.980000", "150255.983000", "150255.985000", "150255.987000", "150255.990000", "150255.992000", "150255.995000", "150255.997000", "150256.001000", "150256.003000", "150256.006000", "150256.008000", "150256.011000", "150256.013000", "150315.965000", "150315.968000", "150315.970000", "150315.973000", "150315.975000", "150315.978000", "150315.980000", "150315.983000", "150315.985000", "150315.987000", "150315.990000", "150315.992000", "150315.995000", "150315.997000", "150316.001000", "150316.003000", "150316.005000", "150316.008000", "150316.010000", "150316.013000", "150335.965000", "150335.968000", "150335.986000", "150335.989000", "150335.991000", "150335.993000", "150335.996000", "150335.998000", "150336.002000", "150336.004000", "150336.007000", "150336.009000", "150336.011000", "150336.014000", "150336.016000", "150336.019000", "150336.021000", "150336.023000", "150336.026000", "150336.028000", "150355.965000", "150355.968000", "150355.977000", "150355.979000", "150355.981000", "150355.984000", "150355.986000", "150355.989000", "150355.991000", "150355.994000", "150355.996000", "150355.998000", "150356.002000", "150356.004000", "150356.007000", "150356.009000", "150356.012000", "150356.014000", "150356.016000", "150356.019000", "150415.965000", "150415.968000", "150415.970000", "150415.973000", "150415.975000", "150415.978000", "150415.980000", "150415.983000", "150415.985000", "150415.988000", "150415.990000", "150415.992000", "150415.995000", "150415.997000", "150416.001000", "150416.003000", "150416.006000", "150416.008000", "150416.011000", "150416.013000", "150435.965000", "150435.968000", "150435.971000", "150435.973000", "150435.975000", "150435.978000", "150435.980000", "150435.983000", "150435.985000", "150435.988000", "150435.990000", "150435.993000", "150435.995000", "150435.998000", "150436.000000", "150436.002000", "150436.005000", "150436.007000", "150436.010000", "150436.012000", "150455.965000", "150455.968000", "150455.971000", "150455.973000", "150455.976000", "150455.978000", "150455.980000", "150455.983000", "150455.985000", "150455.988000", "150455.990000", "150455.993000", "150455.995000", "150455.997000", "150456.001000", "150456.003000", "150456.006000", "150456.008000", "150456.010000", "150456.013000", "150515.965000", "150515.968000", "150515.971000", "150515.973000", "150515.976000", "150515.978000", "150515.981000", "150515.983000", "150515.985000", "150515.988000", "150515.990000", "150515.993000", "150515.995000", "150515.998000", "150516.001000", "150516.003000", "150516.006000", "150516.008000", "150516.011000", "150516.013000", "150535.965000", "150535.968000", "150535.971000", "150535.973000", "150535.976000", "150535.978000", "150535.980000", "150535.983000", "150535.985000", "150535.988000", "150535.990000", "150535.993000", "150535.995000", "150535.997000", "150536.001000", "150536.003000", "150536.006000", "150536.008000", "150536.011000", "150536.013000", "150555.965000", "150555.968000", "150555.970000", "150555.973000", "150555.975000", "150555.978000", "150555.980000", "150555.983000", "150555.985000", "150555.988000", "150555.990000", "150555.993000", "150555.995000", "150555.997000", "150556.001000", "150556.003000", "150556.006000", "150556.008000", "150556.011000", "150556.013000", "150615.966000", "150615.968000", "150615.971000", "150615.973000", "150615.976000", "150615.978000", "150615.981000", "150615.983000", "150615.986000", "150615.988000", "150615.991000", "150615.993000", "150615.995000", "150615.998000", "150616.001000", "150616.004000", "150616.006000", "150616.009000", "150616.011000", "150616.013000", "150635.965000", "150635.968000", "150635.970000", "150635.973000", "150635.975000", "150635.978000", "150635.980000", "150635.983000", "150635.985000", "150635.988000", "150635.990000", "150635.992000", "150635.995000", "150635.997000", "150636.001000", "150636.003000", "150636.006000", "150636.008000", "150636.010000", "150636.013000", "150637.823000", "150637.826000"],
      "InstanceNumber": [1, 2, 3, 4, 5, 6, 7, 8, 9, 10, 11, 12, 13, 14, 15, 16, 17, 18, 19, 20, 21, 22, 23, 24, 25, 26, 27, 28, 29, 30, 31, 32, 33, 34, 35, 36, 37, 38, 39, 40, 41, 42, 43, 44, 45, 46, 47, 48, 49, 50, 51, 52, 53, 54, 55, 56, 57, 58, 59, 60, 61, 62, 63, 64, 65, 66, 67, 68, 69, 70, 71, 72, 73, 74, 75, 76, 77, 78, 79, 80, 81, 82, 83, 84, 85, 86, 87, 88, 89, 90, 91, 92, 93, 94, 95, 96, 97, 98, 99, 100, 101, 102, 103, 104, 105, 106, 107, 108, 109, 110, 111, 112, 113, 114, 115, 116, 117, 118, 119, 120, 121, 122, 123, 124, 125, 126, 127, 128, 129, 130, 131, 132, 133, 134, 135, 136, 137, 138, 139, 140, 141, 142, 143, 144, 145, 146, 147, 148, 149, 150, 151, 152, 153, 154, 155, 156, 157, 158, 159, 160, 161, 162, 163, 164, 165, 166, 167, 168, 169, 170, 171, 172, 173, 174, 175, 176, 177, 178, 179, 180, 181, 182, 183, 184, 185, 186, 187, 188, 189, 190, 191, 192, 193, 194, 195, 196, 197, 198, 199, 200, 201, 202, 203, 204, 205, 206, 207, 208, 209, 210, 211, 212, 213, 214, 215, 216, 217, 218, 219, 220, 221, 222, 223, 224, 225, 226, 227, 228, 229, 230, 231, 232, 233, 234, 235, 236, 237, 238, 239, 240, 241, 242, 243, 244, 245, 246, 247, 248, 249, 250, 251, 252, 253, 254, 255, 256, 257, 258, 259, 260, 261, 262, 263, 264],
      "LargestImagePixelValue": [12475, 12140, 11973, 11954, 11935, 11838, 11868, 11983, 11936, 11814, 11863, 11980, 11951, 11853, 11817, 11910, 11858, 11824, 11860, 11778, 11822, 11841, 11844, 11878, 11855, 11831, 11975, 11981, 11988, 11882, 11944, 12068, 12018, 12055, 12062, 11913, 11887, 11937, 11982, 12032, 11983, 11925, 12035, 12199, 12021, 12062, 11970, 12032, 12052, 11974, 11928, 11896, 11830, 11878, 11903, 11837, 11911, 11751, 11695, 11676, 11812, 11744, 11804, 11733, 11903, 11723, 11555, 11544, 11830, 11627, 11529, 11438, 11357, 11522, 11448, 11589, 11614, 11336, 11528, 11480, 11351, 11424, 11574, 11482, 11455, 11674, 11669, 11668, 11715, 11801, 11805, 11801, 11906, 11858, 11973, 11874, 11872, 11818, 11860, 11864, 11830, 11804, 11785, 11708, 11655, 11599, 11682, 11658, 11616, 11641, 11545, 11510, 11263, 11453, 11398, 11337, 11441, 11240, 11122, 11236, 11341, 11130, 11270, 11440, 11443, 11390, 11531, 11383, 11282, 11436, 11490, 11350, 11617, 11484, 11397, 11391, 11320, 11157, 11358, 11375, 11326, 11365, 11375, 11373, 11362, 11634, 11624, 11353, 11542, 11427, 11144, 11332, 11416, 11237, 11446, 11466, 11362, 11282, 11538, 11509, 11377, 11541, 11471, 11439, 11753, 11692, 11651, 11635, 11609, 11278, 11454, 11443, 11226, 11400, 11583, 11318, 11109, 11574, 11508, 11493, 11599, 11583, 11534, 11524, 11621, 11642, 11587, 11643, 11556, 11408, 11478, 11642, 11205, 11321, 11598, 11184, 11281, 11712, 11454, 11294, 11430, 11445, 11250, 11300, 11458, 11293, 11318, 11558, 11599, 11442, 11455, 11265, 11230, 11518, 11336, 11201, 11403, 11591, 11675, 11463, 11657, 11560, 11351, 11366, 11541, 11190, 11128, 11398, 11250, 11203, 11343, 11344, 11388, 11480, 11673, 11588, 11559, 11658, 11544, 11425, 11530, 11583, 11424, 11522, 11558, 11388, 11245, 11535, 11426, 11521, 11534, 11538, 11441, 11466, 11559, 11339, 11217, 11429, 11426, 11419, 11376, 11596, 11523, 11443],
      "TriggerTime": [8102.5, 9102.5, 10102.5, 11102.5, 12102.5, 13102.5, 14102.5, 15102.5, 16102.5, 17102.5, 18102.5, 19102.5, 20102.5, 21102.5, 22102.5, 23102.5, 24102.5, 25102.5, 26102.5, 27102.5, 28102.5, 29102.5, 30102.5, 31102.5, 32102.5, 33102.5, 34102.5, 35102.5, 36102.5, 37102.5, 38102.5, 39102.5, 40102.5, 41102.5, 42102.5, 43102.5, 44102.5, 45102.5, 46102.5, 47102.5, 48102.5, 49102.5, 50102.5, 51102.5, 52102.5, 53102.5, 54102.5, 55102.5, 56102.5, 57102.5, 58102.5, 59102.5, 60102.5, 61102.5, 62102.5, 63102.5, 64102.5, 65102.5, 66102.5, 67102.5, 68102.5, 69102.5, 70102.5, 71102.5, 72102.5, 73102.5, 74102.5, 75102.5, 76102.5, 77102.5, 78102.5, 79102.5, 80102.5, 81102.5, 82102.5, 83102.5, 84102.5, 85102.5, 86102.5, 87102.5, 88102.5, 89102.5, 90102.5, 91102.5, 92102.5, 93102.5, 94102.5, 95102.5, 96102.5, 97102.5, 98102.5, 99102.5, 100102.5, 101102.5, 102102.5, 103102.5, 104102.5, 105102.5, 106102.5, 107102.5, 108102.5, 109102.5, 110102.5, 111102.5, 112102.5, 113102.5, 114102.5, 115102.5, 116102.5, 117102.5, 118102.5, 119102.5, 120102.5, 121102.5, 122102.5, 123102.5, 124102.5, 125102.5, 126102.5, 127102.5, 128102.5, 129102.5, 130102.5, 131102.5, 132102.5, 133102.5, 134102.5, 135102.5, 136102.5, 137102.5, 138102.5, 139102.5, 140102.5, 141102.5, 142102.5, 143102.5, 144102.5, 145102.5, 146102.5, 147102.5, 148102.5, 149102.5, 150102.5, 151102.5, 152102.5, 153102.5, 154102.5, 155102.5, 156102.5, 157102.5, 158102.5, 159102.5, 160102.5, 161102.5, 162102.5, 163102.5, 164102.5, 165102.5, 166102.5, 167102.5, 168102.5, 169102.5, 170102.5, 171102.5, 172102.5, 173102.5, 174102.5, 175102.5, 176102.5, 177102.5, 178102.5, 179102.5, 180102.5, 181102.5, 182102.5, 183102.5, 184102.5, 185102.5, 186102.5, 187102.5, 188102.5, 189102.5, 190102.5, 191102.5, 192102.5, 193102.5, 194102.5, 195102.5, 196102.5, 197102.5, 198102.5, 199102.5, 200102.5, 201102.5, 202102.5, 203102.5, 204102.5, 205102.5, 206102.5, 207102.5, 208102.5, 209102.5, 210102.5, 211102.5, 212102.5, 213102.5, 214102.5, 215102.5, 216102.5, 217102.5, 218102.5, 219102.5, 220102.5, 221102.5, 222102.5, 223102.5, 224102.5, 225102.5, 226102.5, 227102.5, 228102.5, 229102.5, 230102.5, 231102.5, 232102.5, 233102.5, 234102.5, 235102.5, 236102.5, 237102.5, 238102.5, 239102.5, 240102.5, 241102.5, 242102.5, 243102.5, 244102.5, 245102.5, 246102.5, 247102.5, 248102.5, 249102.5, 250102.5, 251102.5, 252102.5, 253102.5, 254102.5, 255102.5, 256102.5, 257102.5, 258102.5, 259102.5, 260102.5, 261102.5, 262102.5, 263102.5, 264102.5, 265102.5, 266102.5, 267102.5, 268102.5, 269102.5, 270102.5, 271102.5],
      "WindowCenter": [4734.0, 4717.0, 4706.0, 4694.0, 4695.0, 4693.0, 4708.0, 4708.0, 4708.0, 4712.0, 4708.0, 4710.0, 4708.0, 4712.0, 4710.0, 4708.0, 4706.0, 4712.0, 4707.0, 4710.0, 4709.0, 4707.0, 4706.0, 4706.0, 4710.0, 4711.0, 4708.0, 4706.0, 4707.0, 4708.0, 4710.0, 4720.0, 4719.0, 4718.0, 4725.0, 4721.0, 4721.0, 4711.0, 4709.0, 4718.0, 4707.0, 4721.0, 4719.0, 4720.0, 4732.0, 4722.0, 4723.0, 4719.0, 4719.0, 4709.0, 4706.0, 4707.0, 4707.0, 4707.0, 4710.0, 4718.0, 4708.0, 4708.0, 4706.0, 4707.0, 4709.0, 4707.0, 4695.0, 4694.0, 4706.0, 4696.0, 4694.0, 4693.0, 4705.0, 4692.0, 4696.0, 4697.0, 4696.0, 4694.0, 4694.0, 4695.0, 4692.0, 4695.0, 4697.0, 4696.0, 4697.0, 4706.0, 4708.0, 4707.0, 4706.0, 4705.0, 4706.0, 4696.0, 4706.0, 4706.0, 4708.0, 4707.0, 4709.0, 4708.0, 4708.0, 4706.0, 4709.0, 4707.0, 4721.0, 4708.0, 4709.0, 4721.0, 4722.0, 4718.0, 4710.0, 4709.0, 4708.0, 4712.0, 4706.0, 4697.0, 4696.0, 4695.0, 4696.0, 4698.0, 4694.0, 4695.0, 4696.0, 4683.0, 4683.0, 4694.0, 4696.0, 4696.0, 4694.0, 4695.0, 4705.0, 4705.0, 4709.0, 4709.0, 4699.0, 4697.0, 4698.0, 4699.0, 4694.0, 4695.0, 4694.0, 4695.0, 4696.0, 4693.0, 4697.0, 4708.0, 4699.0, 4710.0, 4707.0, 4696.0, 4696.0, 4697.0, 4698.0, 4697.0, 4696.0, 4693.0, 4695.0, 4697.0, 4698.0, 4697.0, 4709.0, 4708.0, 4708.0, 4697.0, 4710.0, 4697.0, 4699.0, 4707.0, 4699.0, 4708.0, 4707.0, 4709.0, 4706.0, 4709.0, 4701.0, 4699.0, 4698.0, 4698.0, 4699.0, 4697.0, 4709.0, 4698.0, 4698.0, 4700.0, 4697.0, 4697.0, 4710.0, 4697.0, 4698.0, 4695.0, 4699.0, 4695.0, 4701.0, 4700.0, 4695.0, 4696.0, 4693.0, 4694.0, 4681.0, 4685.0, 4693.0, 4682.0, 4682.0, 4704.0, 4694.0, 4684.0, 4693.0, 4693.0, 4680.0, 4683.0, 4691.0, 4680.0, 4683.0, 4691.0, 4697.0, 4695.0, 4694.0, 4697.0, 4683.0, 4693.0, 4686.0, 4685.0, 4694.0, 4695.0, 4698.0, 4708.0, 4697.0, 4698.0, 4688.0, 4696.0, 4692.0, 4683.0, 4685.0, 4694.0, 4682.0, 4696.0, 4694.0, 4699.0, 4696.0, 4699.0, 4695.0, 4695.0, 4696.0, 4697.0, 4697.0, 4696.0, 4699.0, 4697.0, 4698.0, 4697.0, 4694.0, 4694.0, 4694.0, 4708.0, 4708.0, 4708.0, 4708.0, 4707.0, 4698.0, 4698.0, 4709.0, 4699.0, 4698.0, 4706.0, 4710.0, 4698.0, 4697.0, 4697.0, 4698.0, 4694.0],
