{
  "AcquisitionMatrixPE": 106,
  "AcquisitionNumber": 1,
  "AcquisitionTime": "14:36:17.407500",
  "BandwidthPerPixelPhaseEncode": 16.846,
  "BaseResolution": 106,
  "BodyPartExamined": "BRAIN",
  "CoilCombinationMethod": "Sum of Squares",
  "ConsistencyInfo": "N4_VE11C_LATEST_20160120",
  "ConversionSoftware": "dcm2niix",
  "ConversionSoftwareVersion": "v1.0.20220720",
  "DerivedVendorReportedEchoSpacing": 0.000560012,
  "DeviceSerialNumber": "166108",
  "DwellTime": 1.8e-06,
  "EchoTime": 0.0352,
  "EchoTrainLength": 106,
  "EffectiveEchoSpacing": 0.000560012,
  "FlipAngle": 60,
  "HeudiconvVersion": "1.3.0",
  "ImageComments": "Unaliased MB4/PE3/LB",
  "ImageOrientationPatientDICOM": [1, 0, 0, 0, 0.988756, -0.149535],
  "ImageOrientationText": "Tra>Cor(-8.6)",
  "ImageType": [
    "ORIGINAL",
    "PRIMARY",
    "M",
    "MB",
    "ND",
    "MOSAIC"
],
  "ImagingFrequency": 123.244,
  "InPlanePhaseEncodingDirectionDICOM": "COL",
  "InstitutionAddress": "Bedford Way 26,London,London,GB,WC1H 0AP",
  "InstitutionName": "University College",
  "InstitutionalDepartmentName": "Department",
  "MRAcquisitionType": "2D",
  "MagneticFieldStrength": 3,
  "Manufacturer": "Siemens",
  "ManufacturersModelName": "Prisma",
  "MatrixCoilMode": "SENSE",
  "Modality": "MR",
  "MultibandAccelerationFactor": 4,
  "NonlinearGradientCorrection": false,
  "PartialFourier": 1,
  "PatientPosition": "HFS",
  "PercentPhaseFOV": 100,
  "PercentSampling": 100,
  "PhaseEncodingDirection": "j-",
  "PhaseEncodingSteps": 106,
  "PhaseResolution": 1,
  "PixelBandwidth": 2620,
  "ProcedureStepDescription": "Egor^MovieProject2",
  "ProtocolName": "func-bold_task-pRF_run-02",
  "PulseSequenceDetails": "%CustomerSeq%\\cmrr_mbep2d_bold",
  "ReceiveCoilActiveElements": "HEA;HEP",
  "ReceiveCoilName": "Head_32",
  "ReconMatrixPE": 106,
  "RepetitionTime": 1,
  "SAR": 0.0706831,
  "ScanOptions": "FS\\EXT",
  "ScanningSequence": "EP",
  "SequenceName": "epfid2d1_106",
  "SequenceVariant": "SK\\SS",
  "SeriesDescription": "func-bold_task-pRF_run-02",
  "SeriesNumber": 12,
  "ShimSetting": [-1576, 647, 7430, 531, -18, 76, -49, -8],
  "SliceThickness": 2,
  "SliceTiming": [0, 0.4075, 0.815, 0.245, 0.6525, 0.08, 0.49, 0.8975, 0.325, 0.735, 0.1625, 0.57, 0, 0.4075, 0.815, 0.245, 0.6525, 0.08, 0.49, 0.8975, 0.325, 0.735, 0.1625, 0.57, 0, 0.4075, 0.815, 0.245, 0.6525, 0.08, 0.49, 0.8975, 0.325, 0.735, 0.1625, 0.57, 0, 0.4075, 0.815, 0.245, 0.6525, 0.08, 0.49, 0.8975, 0.325, 0.735, 0.1625, 0.57],
  "SoftwareVersions": "syngo MR E11",
  "SpacingBetweenSlices": 2,
  "StationName": "AWP166108",
  "TaskName": "retinotopy",
  "TotalReadoutTime": 0.0588013,
  "TxRefAmp": 235.586,
  "WipMemBlock": "3b741993-5827-481a-97ec-a94f7c29db0b||Sequence: R016 ve11c/master r/e634e98; Dec 19 2017 11:00:25 by eja",
  "dcmmeta_affine": [
    [-2.0, 0.0, 0.0, 106.0],
    [0.0, 1.9775127172470093, -0.29907065629959106, -89.01696014404297],
    [0.0, 0.29907068610191345, 1.9775127172470093, -33.64731979370117],
    [0.0, 0.0, 0.0, 1.0]
],
  "dcmmeta_reorient_transform": [
    [0.0, -1.0, 0.0, 105.0],
    [1.0, 0.0, 0.0, 0.0],
    [0.0, 0.0, 1.0, 0.0],
    [0.0, 0.0, 0.0, 1.0]
],
  "dcmmeta_shape": [106, 106, 48, 356],
  "dcmmeta_slice_dim": 2,
  "dcmmeta_version": 0.6,
  "global": {
    "const": {
      "AcquisitionMatrix": [106, 0, 0, 106],
      "AngioFlag": "N",
      "BitsAllocated": 16,
      "BitsStored": 16,
      "BodyPartExamined": "BRAIN",
      "CardiacNumberOfImages": 1,
      "Columns": 742,
      "EchoNumbers": 1,
      "EchoTime": 35.2,
      "EchoTrainLength": 106,
      "FlipAngle": 60.0,
      "HighBit": 15,
      "ImageOrientationPatient": [1.0, 0.0, 0.0, 0.0, 0.98875638160626, -0.1495353397458],
      "ImagePositionPatient": [-742.0, -747.47093868883, 92.859576186872],
      "ImageType": [
        "ORIGINAL",
        "PRIMARY",
        "M",
        "MB",
        "ND",
        "MOSAIC"
],
      "ImagedNucleus": "1H",
      "ImagingFrequency": 123.243683,
      "InPlanePhaseEncodingDirection": "COL",
      "MRAcquisitionType": "2D",
      "MagneticFieldStrength": 3.0,
      "Manufacturer": "SIEMENS",
      "ManufacturerModelName": "Prisma",
      "Modality": "MR",
      "NominalInterval": 0,
      "NumberOfAverages": 1.0,
      "NumberOfPhaseEncodingSteps": 106,
      "PercentPhaseFieldOfView": 100.0,
      "PercentSampling": 100.0,
      "PerformedProcedureStepStartTime": "134612.786000",
      "PhotometricInterpretation": "MONOCHROME2",
      "PixelBandwidth": 2620.0,
      "PixelRepresentation": 0,
      "PixelSpacing": [2.0, 2.0],
      "ProtocolName": "func-bold_task-pRF_run-02",
      "RepetitionTime": 1000.0,
      "Rows": 742,
      "SAR": 0.07068310235259,
      "SamplesPerPixel": 1,
      "ScanOptions": [
        "FS",
        "EXT"
],
      "ScanningSequence": "EP",
      "SequenceName": "epfid2d1_106",
      "SequenceVariant": [
        "SK",
        "SS"
],
      "SeriesDescription": "func-bold_task-pRF_run-02",
      "SeriesNumber": 12,
      "SeriesTime": "143635.929000",
      "SliceLocation": -19.957822218954,
      "SliceThickness": 2.0,
      "SmallestImagePixelValue": 0,
      "SoftwareVersions": "syngo MR E11",
      "SpacingBetweenSlices": 1.9999999237911,
      "SpecificCharacterSet": "ISO_IR 100",
      "StudyID": "1",
      "StudyTime": "134612.725000",
      "TransmitCoilName": "Body",
      "VariableFlipAngleFlag": "N",
      "WindowCenterWidthExplanation": "Algo1",
      "dBdt": 0.0},
    "slices": {}
  },
  "time": {
    "samples": {
      "AcquisitionNumber": [1, 2, 3, 4, 5, 6, 7, 8, 9, 10, 11, 12, 13, 14, 15, 16, 17, 18, 19, 20, 21, 22, 23, 24, 25, 26, 27, 28, 29, 30, 31, 32, 33, 34, 35, 36, 37, 38, 39, 40, 41, 42, 43, 44, 45, 46, 47, 48, 49, 50, 51, 52, 53, 54, 55, 56, 57, 58, 59, 60, 61, 62, 63, 64, 65, 66, 67, 68, 69, 70, 71, 72, 73, 74, 75, 76, 77, 78, 79, 80, 81, 82, 83, 84, 85, 86, 87, 88, 89, 90, 91, 92, 93, 94, 95, 96, 97, 98, 99, 100, 101, 102, 103, 104, 105, 106, 107, 108, 109, 110, 111, 112, 113, 114, 115, 116, 117, 118, 119, 120, 121, 122, 123, 124, 125, 126, 127, 128, 129, 130, 131, 132, 133, 134, 135, 136, 137, 138, 139, 140, 141, 142, 143, 144, 145, 146, 147, 148, 149, 150, 151, 152, 153, 154, 155, 156, 157, 158, 159, 160, 161, 162, 163, 164, 165, 166, 167, 168, 169, 170, 171, 172, 173, 174, 175, 176, 177, 178, 179, 180, 181, 182, 183, 184, 185, 186, 187, 188, 189, 190, 191, 192, 193, 194, 195, 196, 197, 198, 199, 200, 201, 202, 203, 204, 205, 206, 207, 208, 209, 210, 211, 212, 213, 214, 215, 216, 217, 218, 219, 220, 221, 222, 223, 224, 225, 226, 227, 228, 229, 230, 231, 232, 233, 234, 235, 236, 237, 238, 239, 240, 241, 242, 243, 244, 245, 246, 247, 248, 249, 250, 251, 252, 253, 254, 255, 256, 257, 258, 259, 260, 261, 262, 263, 264, 265, 266, 267, 268, 269, 270, 271, 272, 273, 274, 275, 276, 277, 278, 279, 280, 281, 282, 283, 284, 285, 286, 287, 288, 289, 290, 291, 292, 293, 294, 295, 296, 297, 298, 299, 300, 301, 302, 303, 304, 305, 306, 307, 308, 309, 310, 311, 312, 313, 314, 315, 316, 317, 318, 319, 320, 321, 322, 323, 324, 325, 326, 327, 328, 329, 330, 331, 332, 333, 334, 335, 336, 337, 338, 339, 340, 341, 342, 343, 344, 345, 346, 347, 348, 349, 350, 351, 352, 353, 354, 355, 356],
      "AcquisitionTime": ["143617.407500", "143618.407500", "143619.407500", "143620.407500", "143621.407500", "143622.407500", "143623.407500", "143624.407500", "143625.407500", "143626.407500", "143627.407500", "143628.407500", "143629.407500", "143630.407500", "143631.407500", "143632.407500", "143633.407500", "143634.407500", "143635.407500", "143636.407500", "143637.407500", "143638.407500", "143639.407500", "143640.407500", "143641.407500", "143642.407500", "143643.407500", "143644.407500", "143645.407500", "143646.407500", "143647.407500", "143648.407500", "143649.407500", "143650.407500", "143651.407500", "143652.407500", "143653.407500", "143654.407500", "143655.407500", "143656.407500", "143657.407500", "143658.407500", "143659.407500", "143700.407500", "143701.407500", "143702.407500", "143703.407500", "143704.407500", "143705.407500", "143706.407500", "143707.407500", "143708.407500", "143709.407500", "143710.407500", "143711.407500", "143712.407500", "143713.407500", "143714.407500", "143715.407500", "143716.407500", "143717.407500", "143718.407500", "143719.407500", "143720.407500", "143721.407500", "143722.407500", "143723.407500", "143724.407500", "143725.407500", "143726.407500", "143727.407500", "143728.407500", "143729.407500", "143730.407500", "143731.407500", "143732.407500", "143733.407500", "143734.407500", "143735.407500", "143736.407500", "143737.407500", "143738.407500", "143739.407500", "143740.407500", "143741.407500", "143742.407500", "143743.407500", "143744.407500", "143745.407500", "143746.407500", "143747.407500", "143748.407500", "143749.407500", "143750.407500", "143751.407500", "143752.407500", "143753.407500", "143754.407500", "143755.407500", "143756.407500", "143757.407500", "143758.407500", "143759.407500", "143800.407500", "143801.407500", "143802.407500", "143803.407500", "143804.407500", "143805.407500", "143806.407500", "143807.407500", "143808.407500", "143809.407500", "143810.407500", "143811.407500", "143812.407500", "143813.407500", "143814.407500", "143815.407500", "143816.407500", "143817.407500", "143818.407500", "143819.407500", "143820.407500", "143821.407500", "143822.407500", "143823.407500", "143824.407500", "143825.407500", "143826.407500", "143827.407500", "143828.407500", "143829.407500", "143830.407500", "143831.407500", "143832.407500", "143833.407500", "143834.407500", "143835.407500", "143836.407500", "143837.407500", "143838.407500", "143839.407500", "143840.407500", "143841.407500", "143842.407500", "143843.407500", "143844.407500", "143845.407500", "143846.407500", "143847.407500", "143848.407500", "143849.407500", "143850.407500", "143851.407500", "143852.407500", "143853.407500", "143854.407500", "143855.407500", "143856.407500", "143857.407500", "143858.407500", "143859.407500", "143900.407500", "143901.407500", "143902.407500", "143903.407500", "143904.407500", "143905.407500", "143906.407500", "143907.407500", "143908.407500", "143909.407500", "143910.407500", "143911.407500", "143912.407500", "143913.407500", "143914.407500", "143915.407500", "143916.407500", "143917.407500", "143918.407500", "143919.407500", "143920.407500", "143921.407500", "143922.407500", "143923.407500", "143924.407500", "143925.407500", "143926.407500", "143927.407500", "143928.407500", "143929.407500", "143930.407500", "143931.407500", "143932.407500", "143933.407500", "143934.407500", "143935.407500", "143936.407500", "143937.407500", "143938.407500", "143939.407500", "143940.407500", "143941.407500", "143942.407500", "143943.407500", "143944.407500", "143945.407500", "143946.407500", "143947.407500", "143948.407500", "143949.407500", "143950.407500", "143951.407500", "143952.407500", "143953.407500", "143954.407500", "143955.407500", "143956.407500", "143957.407500", "143958.407500", "143959.407500", "144000.407500", "144001.407500", "144002.407500", "144003.407500", "144004.407500", "144005.407500", "144006.407500", "144007.407500", "144008.407500", "144009.407500", "144010.407500", "144011.407500", "144012.407500", "144013.407500", "144014.407500", "144015.407500", "144016.407500", "144017.407500", "144018.407500", "144019.407500", "144020.407500", "144021.407500", "144022.407500", "144023.407500", "144024.407500", "144025.407500", "144026.407500", "144027.407500", "144028.407500", "144029.407500", "144030.407500", "144031.407500", "144032.407500", "144033.407500", "144034.407500", "144035.407500", "144036.407500", "144037.407500", "144038.407500", "144039.407500", "144040.407500", "144041.407500", "144042.407500", "144043.407500", "144044.407500", "144045.407500", "144046.407500", "144047.407500", "144048.407500", "144049.407500", "144050.407500", "144051.407500", "144052.407500", "144053.407500", "144054.407500", "144055.407500", "144056.407500", "144057.407500", "144058.407500", "144059.407500", "144100.407500", "144101.407500", "144102.407500", "144103.407500", "144104.407500", "144105.407500", "144106.407500", "144107.407500", "144108.407500", "144109.407500", "144110.407500", "144111.407500", "144112.407500", "144113.407500", "144114.407500", "144115.407500", "144116.407500", "144117.407500", "144118.407500", "144119.407500", "144120.407500", "144121.407500", "144122.407500", "144123.407500", "144124.407500", "144125.407500", "144126.407500", "144127.407500", "144128.407500", "144129.407500", "144130.407500", "144131.407500", "144132.407500", "144133.407500", "144134.407500", "144135.407500", "144136.407500", "144137.407500", "144138.407500", "144139.407500", "144140.407500", "144141.407500", "144142.407500", "144143.407500", "144144.407500", "144145.407500", "144146.407500", "144147.407500", "144148.407500", "144149.407500", "144150.407500", "144151.407500", "144152.407500", "144153.407500", "144154.407500", "144155.407500", "144156.407500", "144157.407500", "144158.407500", "144159.407500", "144200.407500", "144201.407500", "144202.407500", "144203.407500", "144204.407500", "144205.407500", "144206.407500", "144207.407500", "144208.407500", "144209.407500", "144210.407500", "144211.407500", "144212.407500"],
      "ContentTime": ["143635.931000", "143635.934000", "143635.938000", "143635.941000", "143635.943000", "143655.902000", "143655.905000", "143655.908000", "143655.918000", "143655.921000", "143655.923000", "143655.926000", "143655.929000", "143655.931000", "143655.934000", "143655.936000", "143655.939000", "143655.941000", "143655.944000", "143655.946000", "143655.954000", "143655.956000", "143655.959000", "143655.961000", "143655.964000", "143655.966000", "143655.969000", "143655.972000", "143655.974000", "143655.990000", "143655.992000", "143655.995000", "143655.997000", "143656.000000", "143656.003000", "143656.005000", "143656.008000", "143656.010000", "143715.903000", "143715.905000", "143715.908000", "143715.910000", "143715.913000", "143715.916000", "143715.918000", "143715.921000", "143715.923000", "143715.926000", "143715.928000", "143715.931000", "143715.933000", "143715.936000", "143715.938000", "143715.941000", "143715.943000", "143715.946000", "143715.948000", "143715.951000", "143735.902000", "143735.905000", "143735.908000", "143735.910000", "143735.913000", "143735.916000", "143735.918000", "143735.921000", "143735.923000", "143735.926000", "143735.928000", "143735.931000", "143735.934000", "143735.936000", "143735.939000", "143735.941000", "143735.944000", "143735.946000", "143735.949000", "143735.951000", "143755.902000", "143755.905000", "143755.908000", "143755.910000", "143755.913000", "143755.915000", "143755.918000", "143755.920000", "143755.923000", "143755.925000", "143755.928000", "143755.930000", "143755.933000", "143755.935000", "143755.938000", "143755.940000", "143755.943000", "143755.945000", "143755.948000", "143755.950000", "143815.902000", "143815.905000", "143815.908000", "143815.910000", "143815.913000", "143815.915000", "143815.918000", "143815.920000", "143815.923000", "143815.926000", "143815.928000", "143815.931000", "143815.933000", "143815.938000", "143815.940000", "143815.943000", "143815.945000", "143815.948000", "143815.950000", "143815.953000", "143835.902000", "143835.905000", "143835.908000", "143835.910000", "143835.913000", "143835.915000", "143835.918000", "143835.920000", "143835.923000", "143835.926000", "143835.928000", "143835.931000", "143835.933000", "143835.936000", "143835.938000", "143835.941000", "143835.943000", "143835.946000", "143835.948000", "143835.951000", "143855.902000", "143855.905000", "143855.908000", "143855.910000", "143855.913000", "143855.915000", "143855.918000", "143855.921000", "143855.923000", "143855.926000", "143855.928000", "143855.931000", "143855.933000", "143855.936000", "143855.938000", "143855.941000", "143855.944000", "143855.946000", "143855.949000", "143855.951000", "143915.902000", "143915.905000", "143915.908000", "143915.910000", "143915.913000", "143915.915000", "143915.918000", "143915.920000", "143915.923000", "143915.926000", "143915.928000", "143915.931000", "143915.933000", "143915.936000", "143915.938000", "143915.941000", "143915.943000", "143915.946000", "143915.948000", "143915.951000", "143935.902000", "143935.905000", "143935.908000", "143935.910000", "143935.913000", "143935.915000", "143935.918000", "143935.920000", "143935.923000", "143935.925000", "143935.928000", "143935.930000", "143935.933000", "143935.935000", "143935.938000", "143935.940000", "143935.943000", "143935.945000", "143935.947000", "143935.950000", "143955.902000", "143955.905000", "143955.908000", "143955.910000", "143955.913000", "143955.915000", "143955.918000", "143955.920000", "143955.923000", "143955.925000", "143955.928000", "143955.930000", "143955.933000", "143955.935000", "143955.938000", "143955.940000", "143955.943000", "143955.945000", "143955.948000", "143955.950000", "144015.902000", "144015.905000", "144015.908000", "144015.910000", "144015.913000", "144015.915000", "144015.918000", "144015.920000", "144015.923000", "144015.925000", "144015.928000", "144015.930000", "144015.933000", "144015.935000", "144015.938000", "144015.940000", "144015.943000", "144015.945000", "144015.948000", "144015.950000", "144035.902000", "144035.905000", "144035.908000", "144035.910000", "144035.913000", "144035.915000", "144035.918000", "144035.920000", "144035.923000", "144035.925000", "144035.928000", "144035.930000", "144035.933000", "144035.935000", "144035.938000", "144035.940000", "144035.943000", "144035.945000", "144035.947000", "144035.950000", "144055.903000", "144055.905000", "144055.908000", "144055.919000", "144055.921000", "144055.924000", "144055.926000", "144055.929000", "144055.937000", "144055.939000", "144055.942000", "144055.944000", "144055.947000", "144055.949000", "144055.952000", "144055.954000", "144055.957000", "144055.959000", "144055.961000", "144055.964000", "144115.903000", "144115.906000", "144115.908000", "144115.911000", "144115.913000", "144115.915000", "144115.918000", "144115.921000", "144115.923000", "144115.925000", "144115.928000", "144115.930000", "144115.933000", "144115.935000", "144115.938000", "144115.940000", "144115.943000", "144115.945000", "144115.948000", "144115.950000", "144135.902000", "144135.905000", "144135.908000", "144135.910000", "144135.913000", "144135.915000", "144135.918000", "144135.920000", "144135.923000", "144135.925000", "144135.928000", "144135.930000", "144135.933000", "144135.935000", "144135.938000", "144135.940000", "144135.943000", "144135.945000", "144135.948000", "144135.950000", "144155.902000", "144155.905000", "144155.908000", "144155.910000", "144155.913000", "144155.915000", "144155.918000", "144155.920000", "144155.923000", "144155.925000", "144155.927000", "144155.930000", "144155.932000", "144155.935000", "144155.937000", "144155.940000", "144155.942000", "144155.945000", "144155.947000", "144155.950000", "144213.577000", "144213.580000", "144213.582000", "144213.585000", "144213.587000", "144213.590000", "144213.592000", "144213.595000", "144213.597000", "144213.601000", "144213.604000", "144213.606000", "144213.609000", "144213.611000", "144213.614000", "144213.616000", "144213.619000", "144213.622000"],
      "InstanceCreationTime": ["143635.931000", "143635.934000", "143635.938000", "143635.941000", "143635.943000", "143655.902000", "143655.905000", "143655.908000", "143655.918000", "143655.921000", "143655.923000", "143655.926000", "143655.929000", "143655.931000", "143655.934000", "143655.936000", "143655.939000", "143655.941000", "143655.944000", "143655.946000", "143655.954000", "143655.956000", "143655.959000", "143655.961000", "143655.964000", "143655.966000", "143655.969000", "143655.972000", "143655.974000", "143655.990000", "143655.992000", "143655.995000", "143655.997000", "143656.000000", "143656.003000", "143656.005000", "143656.008000", "143656.010000", "143715.903000", "143715.905000", "143715.908000", "143715.910000", "143715.913000", "143715.916000", "143715.918000", "143715.921000", "143715.923000", "143715.926000", "143715.928000", "143715.931000", "143715.933000", "143715.936000", "143715.938000", "143715.941000", "143715.943000", "143715.946000", "143715.948000", "143715.951000", "143735.902000", "143735.905000", "143735.908000", "143735.910000", "143735.913000", "143735.916000", "143735.918000", "143735.921000", "143735.923000", "143735.926000", "143735.928000", "143735.931000", "143735.934000", "143735.936000", "143735.939000", "143735.941000", "143735.944000", "143735.946000", "143735.949000", "143735.951000", "143755.902000", "143755.905000", "143755.908000", "143755.910000", "143755.913000", "143755.915000", "143755.918000", "143755.920000", "143755.923000", "143755.925000", "143755.928000", "143755.930000", "143755.933000", "143755.935000", "143755.938000", "143755.940000", "143755.943000", "143755.945000", "143755.948000", "143755.950000", "143815.902000", "143815.905000", "143815.908000", "143815.910000", "143815.913000", "143815.915000", "143815.918000", "143815.920000", "143815.923000", "143815.926000", "143815.928000", "143815.931000", "143815.933000", "143815.938000", "143815.940000", "143815.943000", "143815.945000", "143815.948000", "143815.950000", "143815.953000", "143835.902000", "143835.905000", "143835.908000", "143835.910000", "143835.913000", "143835.915000", "143835.918000", "143835.920000", "143835.923000", "143835.926000", "143835.928000", "143835.931000", "143835.933000", "143835.936000", "143835.938000", "143835.941000", "143835.943000", "143835.946000", "143835.948000", "143835.951000", "143855.902000", "143855.905000", "143855.908000", "143855.910000", "143855.913000", "143855.915000", "143855.918000", "143855.921000", "143855.923000", "143855.926000", "143855.928000", "143855.931000", "143855.933000", "143855.936000", "143855.938000", "143855.941000", "143855.944000", "143855.946000", "143855.949000", "143855.951000", "143915.902000", "143915.905000", "143915.908000", "143915.910000", "143915.913000", "143915.915000", "143915.918000", "143915.920000", "143915.923000", "143915.926000", "143915.928000", "143915.931000", "143915.933000", "143915.936000", "143915.938000", "143915.941000", "143915.943000", "143915.946000", "143915.948000", "143915.951000", "143935.902000", "143935.905000", "143935.908000", "143935.910000", "143935.913000", "143935.915000", "143935.918000", "143935.920000", "143935.923000", "143935.925000", "143935.928000", "143935.930000", "143935.933000", "143935.935000", "143935.938000", "143935.940000", "143935.943000", "143935.945000", "143935.947000", "143935.950000", "143955.902000", "143955.905000", "143955.908000", "143955.910000", "143955.913000", "143955.915000", "143955.918000", "143955.920000", "143955.923000", "143955.925000", "143955.928000", "143955.930000", "143955.933000", "143955.935000", "143955.938000", "143955.940000", "143955.943000", "143955.945000", "143955.948000", "143955.950000", "144015.902000", "144015.905000", "144015.908000", "144015.910000", "144015.913000", "144015.915000", "144015.918000", "144015.920000", "144015.923000", "144015.925000", "144015.928000", "144015.930000", "144015.933000", "144015.935000", "144015.938000", "144015.940000", "144015.943000", "144015.945000", "144015.948000", "144015.950000", "144035.902000", "144035.905000", "144035.908000", "144035.910000", "144035.913000", "144035.915000", "144035.918000", "144035.920000", "144035.923000", "144035.925000", "144035.928000", "144035.930000", "144035.933000", "144035.935000", "144035.938000", "144035.940000", "144035.943000", "144035.945000", "144035.947000", "144035.950000", "144055.903000", "144055.905000", "144055.908000", "144055.919000", "144055.921000", "144055.924000", "144055.926000", "144055.929000", "144055.937000", "144055.939000", "144055.942000", "144055.944000", "144055.947000", "144055.949000", "144055.952000", "144055.954000", "144055.957000", "144055.959000", "144055.961000", "144055.964000", "144115.903000", "144115.906000", "144115.908000", "144115.911000", "144115.913000", "144115.915000", "144115.918000", "144115.921000", "144115.923000", "144115.925000", "144115.928000", "144115.930000", "144115.933000", "144115.935000", "144115.938000", "144115.940000", "144115.943000", "144115.945000", "144115.948000", "144115.950000", "144135.902000", "144135.905000", "144135.908000", "144135.910000", "144135.913000", "144135.915000", "144135.918000", "144135.920000", "144135.923000", "144135.925000", "144135.928000", "144135.930000", "144135.933000", "144135.935000", "144135.938000", "144135.940000", "144135.943000", "144135.945000", "144135.948000", "144135.950000", "144155.902000", "144155.905000", "144155.908000", "144155.910000", "144155.913000", "144155.915000", "144155.918000", "144155.920000", "144155.923000", "144155.925000", "144155.927000", "144155.930000", "144155.932000", "144155.935000", "144155.937000", "144155.940000", "144155.942000", "144155.945000", "144155.947000", "144155.950000", "144213.577000", "144213.580000", "144213.582000", "144213.585000", "144213.587000", "144213.590000", "144213.592000", "144213.595000", "144213.597000", "144213.601000", "144213.604000", "144213.606000", "144213.609000", "144213.611000", "144213.614000", "144213.616000", "144213.619000", "144213.622000"],
      "InstanceNumber": [1, 2, 3, 4, 5, 6, 7, 8, 9, 10, 11, 12, 13, 14, 15, 16, 17, 18, 19, 20, 21, 22, 23, 24, 25, 26, 27, 28, 29, 30, 31, 32, 33, 34, 35, 36, 37, 38, 39, 40, 41, 42, 43, 44, 45, 46, 47, 48, 49, 50, 51, 52, 53, 54, 55, 56, 57, 58, 59, 60, 61, 62, 63, 64, 65, 66, 67, 68, 69, 70, 71, 72, 73, 74, 75, 76, 77, 78, 79, 80, 81, 82, 83, 84, 85, 86, 87, 88, 89, 90, 91, 92, 93, 94, 95, 96, 97, 98, 99, 100, 101, 102, 103, 104, 105, 106, 107, 108, 109, 110, 111, 112, 113, 114, 115, 116, 117, 118, 119, 120, 121, 122, 123, 124, 125, 126, 127, 128, 129, 130, 131, 132, 133, 134, 135, 136, 137, 138, 139, 140, 141, 142, 143, 144, 145, 146, 147, 148, 149, 150, 151, 152, 153, 154, 155, 156, 157, 158, 159, 160, 161, 162, 163, 164, 165, 166, 167, 168, 169, 170, 171, 172, 173, 174, 175, 176, 177, 178, 179, 180, 181, 182, 183, 184, 185, 186, 187, 188, 189, 190, 191, 192, 193, 194, 195, 196, 197, 198, 199, 200, 201, 202, 203, 204, 205, 206, 207, 208, 209, 210, 211, 212, 213, 214, 215, 216, 217, 218, 219, 220, 221, 222, 223, 224, 225, 226, 227, 228, 229, 230, 231, 232, 233, 234, 235, 236, 237, 238, 239, 240, 241, 242, 243, 244, 245, 246, 247, 248, 249, 250, 251, 252, 253, 254, 255, 256, 257, 258, 259, 260, 261, 262, 263, 264, 265, 266, 267, 268, 269, 270, 271, 272, 273, 274, 275, 276, 277, 278, 279, 280, 281, 282, 283, 284, 285, 286, 287, 288, 289, 290, 291, 292, 293, 294, 295, 296, 297, 298, 299, 300, 301, 302, 303, 304, 305, 306, 307, 308, 309, 310, 311, 312, 313, 314, 315, 316, 317, 318, 319, 320, 321, 322, 323, 324, 325, 326, 327, 328, 329, 330, 331, 332, 333, 334, 335, 336, 337, 338, 339, 340, 341, 342, 343, 344, 345, 346, 347, 348, 349, 350, 351, 352, 353, 354, 355, 356],
      "LargestImagePixelValue": [11993, 11990, 11761, 11567, 11597, 11336, 11504, 11218, 11274, 11216, 11220, 11038, 11048, 11088, 10923, 10908, 11117, 10947, 11008, 11006, 10841, 10719, 10717, 10844, 10880, 11015, 10983, 11030, 10966, 11003, 11055, 10828, 10906, 11026, 10957, 10997, 11133, 11032, 10860, 11092, 11196, 11151, 11221, 11096, 11222, 11289, 11192, 11150, 11028, 11082, 10806, 10982, 11111, 10932, 10928, 10868, 11109, 10876, 11017, 10987, 10999, 10958, 11049, 11039, 10839, 10988, 10808, 10708, 10787, 10734, 10805, 10599, 10627, 10565, 10756, 10728, 10659, 10698, 10584, 10705, 10631, 10861, 10844, 10671, 10693, 10703, 10750, 10800, 10919, 10805, 10723, 10703, 11002, 10878, 10852, 11140, 11145, 11044, 11221, 11010, 11039, 11175, 11151, 11099, 11198, 11315, 11238, 11188, 11356, 11293, 11271, 11109, 11074, 10844, 10954, 10990, 10860, 10850, 10937, 10945, 10972, 11089, 11159, 10938, 10987, 11112, 11046, 11041, 10894, 11018, 10993, 10809, 11137, 10989, 10915, 11022, 11033, 10999, 10874, 11023, 10979, 11012, 10881, 11085, 11140, 11080, 10994, 11151, 11154, 10984, 11240, 11022, 11092, 11017, 10813, 10937, 10951, 11041, 11070, 11038, 11021, 10991, 10822, 10839, 10994, 10743, 10795, 10796, 10699, 10691, 10668, 10728, 10672, 10827, 10889, 10829, 10666, 10655, 10704, 10717, 10821, 10920, 10892, 10843, 10811, 10841, 10836, 10758, 10692, 10776, 10908, 10873, 10927, 10804, 10945, 11031, 10967, 10931, 10873, 11025, 10826, 10955, 10881, 10819, 10934, 11017, 10992, 11018, 11106, 11294, 11017, 11050, 11240, 11058, 11141, 11127, 11257, 11316, 11171, 11277, 11365, 11233, 11064, 11015, 11070, 10748, 10924, 11005, 11036, 10951, 10897, 11036, 11105, 11018, 10920, 11067, 11006, 10781, 10948, 11140, 11057, 10945, 11235, 11247, 11273, 11447, 11219, 11041, 11109, 11019, 10730, 10815, 10996, 11073, 10906, 10981, 10724, 10804, 10695, 10726, 10605, 10700, 10765, 10623, 10666, 10590, 10603, 10797, 10843, 10812, 10880, 10852, 10837, 10951, 10726, 10629, 10618, 10750, 10811, 10710, 10681, 10817, 10905, 10675, 10917, 11081, 11167, 11306, 11045, 11286, 11404, 11361, 11341, 11533, 11556, 11324, 11308, 11327, 11387, 11429, 11322, 11353, 11376, 11018, 11199, 11183, 10911, 11201, 11195, 11313, 11085, 11199, 11128, 11142, 11340, 11293, 11066, 11083, 11070, 10849, 10892, 10927, 11085, 10917, 10992, 11198, 11316, 11286, 11110, 11090, 11337, 11046, 10932, 11128, 11046, 11228, 11216, 11243, 10943, 10975, 11049, 10895, 10836, 10900, 11051, 10992, 10827, 10836, 10749, 10639, 10909, 10992, 11110, 10984, 10711, 10973],
