{
  "AcquisitionMatrixPE": 106,
  "AcquisitionNumber": 1,
  "AcquisitionTime": "14:16:5.830000",
  "BandwidthPerPixelPhaseEncode": 13.477,
  "BaseResolution": 106,
  "BodyPartExamined": "BRAIN",
  "CoilCombinationMethod": "Sum of Squares",
  "ConsistencyInfo": "N4_VE11C_LATEST_20160120",
  "ConversionSoftware": "dcm2niix",
  "ConversionSoftwareVersion": "v1.0.20220720",
  "DerivedVendorReportedEchoSpacing": 0.000700005,
  "DeviceSerialNumber": "166108",
  "DwellTime": 2.6e-06,
  "EchoTime": 0.03,
  "EchoTrainLength": 80,
  "EffectiveEchoSpacing": 0.000700005,
  "FlipAngle": 62,
  "HeudiconvVersion": "1.3.0",
  "ImageComments": "Unaliased MB4/PE3/LB",
  "ImageOrientationPatientDICOM": [1, 0, 0, 0, 0.999263, 0.0383878],
  "ImageOrientationText": "Tra>Cor(2.2)",
  "ImageType": [
    "ORIGINAL",
    "PRIMARY",
    "M",
    "MB",
    "ND",
    "MOSAIC"
],
  "ImagingFrequency": 123.244,
  "InPlanePhaseEncodingDirectionDICOM": "COL",
  "InstitutionAddress": "Bedford Way 26,London,London,GB,WC1H 0AP",
  "InstitutionName": "University College",
  "InstitutionalDepartmentName": "Department",
  "MRAcquisitionType": "2D",
  "MagneticFieldStrength": 3,
  "Manufacturer": "Siemens",
  "ManufacturersModelName": "Prisma",
  "MatrixCoilMode": "SENSE",
  "Modality": "MR",
  "MultibandAccelerationFactor": 4,
  "NonlinearGradientCorrection": false,
  "PartialFourier": 0.75,
  "PatientPosition": "HFS",
  "PercentPhaseFOV": 100,
  "PercentSampling": 100,
  "PhaseEncodingDirection": "j-",
  "PhaseEncodingSteps": 80,
  "PhaseResolution": 1,
  "PixelBandwidth": 1815,
  "ProcedureStepDescription": "Egor^MovieProject2",
  "ProtocolName": "func-bold_task-motor_run-01",
  "PulseSequenceDetails": "%CustomerSeq%\\cmrr_mbep2d_bold",
  "ReceiveCoilActiveElements": "HEA;HEP",
  "ReceiveCoilName": "Head_32",
  "ReconMatrixPE": 106,
  "RepetitionTime": 1,
  "SAR": 0.0394592,
  "ScanOptions": "PFP\\FS\\EXT",
  "ScanningSequence": "EP",
  "SequenceName": "epfid2d1_106",
  "SequenceVariant": "SK\\SS",
  "SeriesDescription": "func-bold_task-motor_run-01",
  "SeriesNumber": 6,
  "ShimSetting": [-1582, 642, 7376, 384, -53, 98, -77, -18],
  "SliceThickness": 2,
  "SliceTiming": [0, 0.535, 0.09, 0.625, 0.18, 0.7125, 0.2675, 0.8025, 0.3575, 0.8925, 0.445, 0, 0.535, 0.09, 0.625, 0.18, 0.7125, 0.2675, 0.8025, 0.3575, 0.8925, 0.445, 0, 0.535, 0.09, 0.625, 0.18, 0.7125, 0.2675, 0.8025, 0.3575, 0.8925, 0.445, 0, 0.535, 0.09, 0.625, 0.18, 0.7125, 0.2675, 0.8025, 0.3575, 0.8925, 0.445],
  "SoftwareVersions": "syngo MR E11",
  "SpacingBetweenSlices": 2,
  "StationName": "AWP166108",
  "TaskName": "somatotopy",
  "TotalReadoutTime": 0.0735005,
  "TxRefAmp": 235.586,
  "WipMemBlock": "53698ceb-e5c5-4d2b-8e67-1a487bed2dcf||Sequence: R016 ve11c/master r/e634e98; Dec 19 2017 11:00:25 by eja",
  "dcmmeta_affine": [
    [-2.0, 0.0, 0.0, 106.0],
    [0.0, 1.998525857925415, 0.07677562534809113, -97.000732421875],
    [0.0, -0.07677561789751053, 1.998525857925415, 3.298142194747925],
    [0.0, 0.0, 0.0, 1.0]
],
  "dcmmeta_reorient_transform": [
    [0.0, -1.0, 0.0, 105.0],
    [1.0, 0.0, 0.0, 0.0],
    [0.0, 0.0, 1.0, 0.0],
    [0.0, 0.0, 0.0, 1.0]
],
  "dcmmeta_shape": [106, 106, 44, 467],
  "dcmmeta_slice_dim": 2,
  "dcmmeta_version": 0.6,
  "global": {
    "const": {
      "AcquisitionMatrix": [106, 0, 0, 106],
      "AngioFlag": "N",
      "BitsAllocated": 16,
      "BitsStored": 16,
      "BodyPartExamined": "BRAIN",
      "CardiacNumberOfImages": 1,
      "Columns": 742,
      "EchoNumbers": 1,
      "EchoTime": 30.0,
      "EchoTrainLength": 80,
      "FlipAngle": 62.0,
      "HighBit": 15,
      "ImageOrientationPatient": [1.0, 0.0, 0.0, 0.0, 0.99926291637126, 0.03838781011215],
      "ImagePositionPatient": [-742.0, -748.37569232302, -29.17794518815],
      "ImageType": [
        "ORIGINAL",
        "PRIMARY",
        "M",
        "MB",
        "ND",
        "MOSAIC"
],
      "ImagedNucleus": "1H",
      "ImagingFrequency": 123.243691,
      "InPlanePhaseEncodingDirection": "COL",
      "MRAcquisitionType": "2D",
      "MagneticFieldStrength": 3.0,
      "Manufacturer": "SIEMENS",
      "ManufacturerModelName": "Prisma",
      "Modality": "MR",
      "NominalInterval": 0,
      "NumberOfAverages": 1.0,
      "NumberOfPhaseEncodingSteps": 80,
      "PercentPhaseFieldOfView": 100.0,
      "PercentSampling": 100.0,
      "PerformedProcedureStepStartTime": "134612.786000",
      "PhotometricInterpretation": "MONOCHROME2",
      "PixelBandwidth": 1815.0,
      "PixelRepresentation": 0,
      "PixelSpacing": [2.0, 2.0],
      "ProtocolName": "func-bold_task-motor_run-01",
      "RepetitionTime": 1000.0,
      "Rows": 742,
      "SAR": 0.03945923494404,
      "SamplesPerPixel": 1,
      "ScanOptions": [
        "PFP",
        "FS",
        "EXT"
],
      "ScanningSequence": "EP",
      "SequenceName": "epfid2d1_106",
      "SequenceVariant": [
        "SK",
        "SS"
],
      "SeriesDescription": "func-bold_task-motor_run-01",
      "SeriesNumber": 6,
      "SeriesTime": "141635.944000",
      "SliceLocation": -0.427934632986,
      "SliceThickness": 2.0,
      "SmallestImagePixelValue": 0,
      "SoftwareVersions": "syngo MR E11",
      "SpacingBetweenSlices": 2.000000076305,
      "SpecificCharacterSet": "ISO_IR 100",
      "StudyID": "1",
      "StudyTime": "134612.725000",
      "TransmitCoilName": "Body",
      "VariableFlipAngleFlag": "N",
      "WindowCenterWidthExplanation": "Algo1",
      "dBdt": 0.0},
    "slices": {}
  },
  "time": {
    "samples": {
      "AcquisitionNumber": [1, 2, 3, 4, 5, 6, 7, 8, 9, 10, 11, 12, 13, 14, 15, 16, 17, 18, 19, 20, 21, 22, 23, 24, 25, 26, 27, 28, 29, 30, 31, 32, 33, 34, 35, 36, 37, 38, 39, 40, 41, 42, 43, 44, 45, 46, 47, 48, 49, 50, 51, 52, 53, 54, 55, 56, 57, 58, 59, 60, 61, 62, 63, 64, 65, 66, 67, 68, 69, 70, 71, 72, 73, 74, 75, 76, 77, 78, 79, 80, 81, 82, 83, 84, 85, 86, 87, 88, 89, 90, 91, 92, 93, 94, 95, 96, 97, 98, 99, 100, 101, 102, 103, 104, 105, 106, 107, 108, 109, 110, 111, 112, 113, 114, 115, 116, 117, 118, 119, 120, 121, 122, 123, 124, 125, 126, 127, 128, 129, 130, 131, 132, 133, 134, 135, 136, 137, 138, 139, 140, 141, 142, 143, 144, 145, 146, 147, 148, 149, 150, 151, 152, 153, 154, 155, 156, 157, 158, 159, 160, 161, 162, 163, 164, 165, 166, 167, 168, 169, 170, 171, 172, 173, 174, 175, 176, 177, 178, 179, 180, 181, 182, 183, 184, 185, 186, 187, 188, 189, 190, 191, 192, 193, 194, 195, 196, 197, 198, 199, 200, 201, 202, 203, 204, 205, 206, 207, 208, 209, 210, 211, 212, 213, 214, 215, 216, 217, 218, 219, 220, 221, 222, 223, 224, 225, 226, 227, 228, 229, 230, 231, 232, 233, 234, 235, 236, 237, 238, 239, 240, 241, 242, 243, 244, 245, 246, 247, 248, 249, 250, 251, 252, 253, 254, 255, 256, 257, 258, 259, 260, 261, 262, 263, 264, 265, 266, 267, 268, 269, 270, 271, 272, 273, 274, 275, 276, 277, 278, 279, 280, 281, 282, 283, 284, 285, 286, 287, 288, 289, 290, 291, 292, 293, 294, 295, 296, 297, 298, 299, 300, 301, 302, 303, 304, 305, 306, 307, 308, 309, 310, 311, 312, 313, 314, 315, 316, 317, 318, 319, 320, 321, 322, 323, 324, 325, 326, 327, 328, 329, 330, 331, 332, 333, 334, 335, 336, 337, 338, 339, 340, 341, 342, 343, 344, 345, 346, 347, 348, 349, 350, 351, 352, 353, 354, 355, 356, 357, 358, 359, 360, 361, 362, 363, 364, 365, 366, 367, 368, 369, 370, 371, 372, 373, 374, 375, 376, 377, 378, 379, 380, 381, 382, 383, 384, 385, 386, 387, 388, 389, 390, 391, 392, 393, 394, 395, 396, 397, 398, 399, 400, 401, 402, 403, 404, 405, 406, 407, 408, 409, 410, 411, 412, 413, 414, 415, 416, 417, 418, 419, 420, 421, 422, 423, 424, 425, 426, 427, 428, 429, 430, 431, 432, 433, 434, 435, 436, 437, 438, 439, 440, 441, 442, 443, 444, 445, 446, 447, 448, 449, 450, 451, 452, 453, 454, 455, 456, 457, 458, 459, 460, 461, 462, 463, 464, 465, 466, 467],
      "AcquisitionTime": ["141605.830000", "141606.830000", "141607.830000", "141608.830000", "141609.830000", "141610.830000", "141611.830000", "141612.830000", "141613.830000", "141614.830000", "141615.830000", "141616.830000", "141617.830000", "141618.830000", "141619.830000", "141620.830000", "141621.830000", "141622.830000", "141623.830000", "141624.830000", "141625.830000", "141626.830000", "141627.830000", "141628.830000", "141629.830000", "141630.830000", "141631.830000", "141632.830000", "141633.830000", "141634.830000", "141635.830000", "141636.830000", "141637.830000", "141638.830000", "141639.830000", "141640.830000", "141641.830000", "141642.830000", "141643.830000", "141644.830000", "141645.830000", "141646.830000", "141647.830000", "141648.830000", "141649.830000", "141650.830000", "141651.830000", "141652.830000", "141653.830000", "141654.830000", "141655.830000", "141656.830000", "141657.830000", "141658.830000", "141659.830000", "141700.830000", "141701.830000", "141702.830000", "141703.830000", "141704.830000", "141705.830000", "141706.830000", "141707.830000", "141708.830000", "141709.830000", "141710.830000", "141711.830000", "141712.830000", "141713.830000", "141714.830000", "141715.830000", "141716.830000", "141717.830000", "141718.830000", "141719.830000", "141720.830000", "141721.830000", "141722.830000", "141723.830000", "141724.830000", "141725.830000", "141726.830000", "141727.830000", "141728.830000", "141729.830000", "141730.830000", "141731.830000", "141732.830000", "141733.830000", "141734.830000", "141735.830000", "141736.830000", "141737.830000", "141738.830000", "141739.830000", "141740.830000", "141741.830000", "141742.830000", "141743.830000", "141744.830000", "141745.830000", "141746.830000", "141747.830000", "141748.830000", "141749.830000", "141750.830000", "141751.830000", "141752.830000", "141753.830000", "141754.830000", "141755.830000", "141756.830000", "141757.830000", "141758.830000", "141759.830000", "141800.830000", "141801.830000", "141802.830000", "141803.830000", "141804.830000", "141805.830000", "141806.830000", "141807.830000", "141808.830000", "141809.830000", "141810.830000", "141811.830000", "141812.830000", "141813.830000", "141814.830000", "141815.830000", "141816.830000", "141817.830000", "141818.830000", "141819.830000", "141820.830000", "141821.830000", "141822.830000", "141823.830000", "141824.830000", "141825.830000", "141826.830000", "141827.830000", "141828.830000", "141829.830000", "141830.830000", "141831.830000", "141832.830000", "141833.830000", "141834.830000", "141835.830000", "141836.830000", "141837.830000", "141838.830000", "141839.830000", "141840.830000", "141841.830000", "141842.830000", "141843.830000", "141844.830000", "141845.830000", "141846.830000", "141847.830000", "141848.830000", "141849.830000", "141850.830000", "141851.830000", "141852.830000", "141853.830000", "141854.830000", "141855.830000", "141856.830000", "141857.830000", "141858.830000", "141859.830000", "141900.830000", "141901.830000", "141902.830000", "141903.830000", "141904.830000", "141905.830000", "141906.830000", "141907.830000", "141908.830000", "141909.830000", "141910.830000", "141911.830000", "141912.830000", "141913.830000", "141914.830000", "141915.830000", "141916.830000", "141917.830000", "141918.830000", "141919.830000", "141920.830000", "141921.830000", "141922.830000", "141923.830000", "141924.830000", "141925.830000", "141926.830000", "141927.830000", "141928.830000", "141929.830000", "141930.830000", "141931.830000", "141932.830000", "141933.830000", "141934.830000", "141935.830000", "141936.830000", "141937.830000", "141938.830000", "141939.830000", "141940.830000", "141941.830000", "141942.830000", "141943.830000", "141944.830000", "141945.830000", "141946.830000", "141947.830000", "141948.830000", "141949.830000", "141950.830000", "141951.830000", "141952.830000", "141953.830000", "141954.830000", "141955.830000", "141956.830000", "141957.830000", "141958.830000", "141959.830000", "142000.830000", "142001.830000", "142002.830000", "142003.830000", "142004.830000", "142005.830000", "142006.830000", "142007.830000", "142008.830000", "142009.830000", "142010.830000", "142011.830000", "142012.830000", "142013.830000", "142014.830000", "142015.830000", "142016.830000", "142017.830000", "142018.830000", "142019.830000", "142020.830000", "142021.830000", "142022.830000", "142023.830000", "142024.830000", "142025.830000", "142026.830000", "142027.830000", "142028.830000", "142029.830000", "142030.830000", "142031.830000", "142032.830000", "142033.830000", "142034.830000", "142035.830000", "142036.830000", "142037.830000", "142038.830000", "142039.830000", "142040.830000", "142041.830000", "142042.830000", "142043.830000", "142044.830000", "142045.830000", "142046.830000", "142047.830000", "142048.830000", "142049.830000", "142050.830000", "142051.830000", "142052.830000", "142053.830000", "142054.830000", "142055.830000", "142056.830000", "142057.830000", "142058.830000", "142059.830000", "142100.830000", "142101.830000", "142102.830000", "142103.830000", "142104.830000", "142105.830000", "142106.830000", "142107.830000", "142108.830000", "142109.830000", "142110.830000", "142111.830000", "142112.830000", "142113.830000", "142114.830000", "142115.830000", "142116.830000", "142117.830000", "142118.830000", "142119.830000", "142120.830000", "142121.830000", "142122.830000", "142123.830000", "142124.830000", "142125.830000", "142126.830000", "142127.830000", "142128.830000", "142129.830000", "142130.830000", "142131.830000", "142132.830000", "142133.830000", "142134.830000", "142135.830000", "142136.830000", "142137.830000", "142138.830000", "142139.830000", "142140.830000", "142141.830000", "142142.830000", "142143.830000", "142144.830000", "142145.830000", "142146.830000", "142147.830000", "142148.830000", "142149.830000", "142150.830000", "142151.830000", "142152.830000", "142153.830000", "142154.830000", "142155.830000", "142156.830000", "142157.830000", "142158.830000", "142159.830000", "142200.830000", "142201.830000", "142202.830000", "142203.830000", "142204.830000", "142205.830000", "142206.830000", "142207.830000", "142208.830000", "142209.830000", "142210.830000", "142211.830000", "142212.830000", "142213.830000", "142214.830000", "142215.830000", "142216.830000", "142217.830000", "142218.830000", "142219.830000", "142220.830000", "142221.830000", "142222.830000", "142223.830000", "142224.830000", "142225.830000", "142226.830000", "142227.830000", "142228.830000", "142229.830000", "142230.830000", "142231.830000", "142232.830000", "142233.830000", "142234.830000", "142235.830000", "142236.830000", "142237.830000", "142238.830000", "142239.830000", "142240.830000", "142241.830000", "142242.830000", "142243.830000", "142244.830000", "142245.830000", "142246.830000", "142247.830000", "142248.830000", "142249.830000", "142250.830000", "142251.830000", "142252.830000", "142253.830000", "142254.830000", "142255.830000", "142256.830000", "142257.830000", "142258.830000", "142259.830000", "142300.830000", "142301.830000", "142302.830000", "142303.830000", "142304.830000", "142305.830000", "142306.830000", "142307.830000", "142308.830000", "142309.830000", "142310.830000", "142311.830000", "142312.830000", "142313.830000", "142314.830000", "142315.830000", "142316.830000", "142317.830000", "142318.830000", "142319.830000", "142320.830000", "142321.830000", "142322.830000", "142323.830000", "142324.830000", "142325.830000", "142326.830000", "142327.830000", "142328.830000", "142329.830000", "142330.830000", "142331.830000", "142332.830000", "142333.830000", "142334.830000", "142335.830000", "142336.830000", "142337.830000", "142338.830000", "142339.830000", "142340.830000", "142341.830000", "142342.830000", "142343.830000", "142344.830000", "142345.830000", "142346.830000", "142347.830000", "142348.830000", "142349.830000", "142350.830000", "142351.830000"],
      "ContentTime": ["141635.947000", "141635.950000", "141635.959000", "141635.961000", "141635.964000", "141635.966000", "141635.969000", "141635.972000", "141635.974000", "141635.976000", "141635.979000", "141635.982000", "141635.984000", "141635.986000", "141635.989000", "141635.992000", "141635.994000", "141635.997000", "141636.000000", "141636.003000", "141636.005000", "141636.008000", "141636.010000", "141636.013000", "141636.015000", "141636.018000", "141636.026000", "141636.028000", "141636.031000", "141655.902000", "141655.905000", "141655.908000", "141655.910000", "141655.913000", "141655.915000", "141655.918000", "141655.920000", "141655.922000", "141655.925000", "141655.927000", "141655.930000", "141655.932000", "141655.935000", "141655.937000", "141655.940000", "141655.942000", "141655.945000", "141655.956000", "141655.958000", "141715.903000", "141715.906000", "141715.909000", "141715.911000", "141715.914000", "141715.916000", "141715.919000", "141715.921000", "141715.924000", "141715.926000", "141715.929000", "141715.931000", "141715.934000", "141715.936000", "141715.939000", "141715.942000", "141715.945000", "141715.947000", "141715.950000", "141715.952000", "141735.902000", "141735.910000", "141735.912000", "141735.915000", "141735.917000", "141735.920000", "141735.922000", "141735.925000", "141735.927000", "141735.930000", "141735.932000", "141735.935000", "141735.951000", "141735.954000", "141735.956000", "141735.959000", "141735.961000", "141735.964000", "141735.966000", "141735.969000", "141755.902000", "141755.905000", "141755.908000", "141755.910000", "141755.913000", "141755.915000", "141755.918000", "141755.920000", "141755.923000", "141755.925000", "141755.928000", "141755.930000", "141755.932000", "141755.935000", "141755.938000", "141755.940000", "141755.943000", "141755.945000", "141755.948000", "141755.950000", "141815.902000", "141815.905000", "141815.907000", "141815.910000", "141815.912000", "141815.915000", "141815.917000", "141815.920000", "141815.922000", "141815.925000", "141815.927000", "141815.929000", "141815.932000", "141815.934000", "141815.937000", "141815.939000", "141815.942000", "141815.944000", "141815.946000", "141815.949000", "141835.902000", "141835.905000", "141835.908000", "141835.910000", "141835.913000", "141835.916000", "141835.918000", "141835.921000", "141835.923000", "141835.926000", "141835.928000", "141835.931000", "141835.933000", "141835.935000", "141835.938000", "141835.940000", "141835.943000", "141835.945000", "141835.948000", "141835.950000", "141855.902000", "141855.905000", "141855.907000", "141855.910000", "141855.913000", "141855.915000", "141855.917000", "141855.920000", "141855.922000", "141855.925000", "141855.927000", "141855.930000", "141855.932000", "141855.935000", "141855.937000", "141855.940000", "141855.943000", "141855.945000", "141855.948000", "141855.950000", "141915.902000", "141915.905000", "141915.908000", "141915.910000", "141915.913000", "141915.915000", "141915.918000", "141915.920000", "141915.922000", "141915.925000", "141915.927000", "141915.930000", "141915.932000", "141915.935000", "141915.937000", "141915.939000", "141915.942000", "141915.944000", "141915.947000", "141915.949000", "141935.902000", "141935.905000", "141935.908000", "141935.910000", "141935.912000", "141935.915000", "141935.917000", "141935.920000", "141935.922000", "141935.925000", "141935.927000", "141935.930000", "141935.933000", "141935.935000", "141935.937000", "141935.940000", "141935.942000", "141935.945000", "141935.947000", "141935.950000", "141955.903000", "141955.905000", "141955.908000", "141955.910000", "141955.913000", "141955.915000", "141955.917000", "141955.920000", "141955.922000", "141955.925000", "141955.927000", "141955.930000", "141955.932000", "141955.935000", "141955.937000", "141955.940000", "141955.942000", "141955.945000", "141955.947000", "141955.950000", "142015.902000", "142015.905000", "142015.907000", "142015.910000", "142015.912000", "142015.915000", "142015.917000", "142015.920000", "142015.922000", "142015.925000", "142015.927000", "142015.930000", "142015.932000", "142015.935000", "142015.937000", "142015.940000", "142015.942000", "142015.945000", "142015.947000", "142015.950000", "142035.902000", "142035.904000", "142035.907000", "142035.909000", "142035.912000", "142035.914000", "142035.917000", "142035.919000", "142035.921000", "142035.924000", "142035.926000", "142035.929000", "142035.931000", "142035.934000", "142035.937000", "142035.939000", "142035.942000", "142035.945000", "142035.947000", "142035.949000", "142055.902000", "142055.905000", "142055.907000", "142055.910000", "142055.912000", "142055.915000", "142055.917000", "142055.920000", "142055.922000", "142055.925000", "142055.927000", "142055.930000", "142055.932000", "142055.935000", "142055.937000", "142055.939000", "142055.942000", "142055.944000", "142055.947000", "142055.949000", "142115.903000", "142115.905000", "142115.908000", "142115.910000", "142115.913000", "142115.916000", "142115.918000", "142115.921000", "142115.923000", "142115.926000", "142115.928000", "142115.931000", "142115.933000", "142115.936000", "142115.938000", "142115.941000", "142115.943000", "142115.946000", "142115.948000", "142115.950000", "142135.902000", "142135.905000", "142135.908000", "142135.910000", "142135.913000", "142135.915000", "142135.918000", "142135.920000", "142135.923000", "142135.926000", "142135.928000", "142135.930000", "142135.933000", "142135.936000", "142135.938000", "142135.940000", "142135.943000", "142135.946000", "142135.948000", "142135.950000", "142155.902000", "142155.905000", "142155.907000", "142155.910000", "142155.913000", "142155.915000", "142155.918000", "142155.920000", "142155.923000", "142155.925000", "142155.928000", "142155.930000", "142155.933000", "142155.935000", "142155.938000", "142155.940000", "142155.943000", "142155.945000", "142155.948000", "142155.950000", "142215.902000", "142215.905000", "142215.907000", "142215.910000", "142215.912000", "142215.915000", "142215.917000", "142215.920000", "142215.922000", "142215.925000", "142215.928000", "142215.930000", "142215.933000", "142215.935000", "142215.938000", "142215.940000", "142215.943000", "142215.945000", "142215.948000", "142215.950000", "142235.902000", "142235.905000", "142235.908000", "142235.910000", "142235.913000", "142235.915000", "142235.918000", "142235.920000", "142235.923000", "142235.926000", "142235.928000", "142235.931000", "142235.933000", "142235.936000", "142235.938000", "142235.941000", "142235.943000", "142235.946000", "142235.948000", "142235.951000", "142255.902000", "142255.905000", "142255.907000", "142255.910000", "142255.912000", "142255.915000", "142255.917000", "142255.920000", "142255.922000", "142255.925000", "142255.927000", "142255.929000", "142255.932000", "142255.935000", "142255.937000", "142255.939000", "142255.942000", "142255.945000", "142255.947000", "142255.950000", "142315.903000", "142315.905000", "142315.908000", "142315.910000", "142315.913000", "142315.915000", "142315.918000", "142315.920000", "142315.922000", "142315.925000", "142315.927000", "142315.930000", "142315.932000", "142315.935000", "142315.937000", "142315.940000", "142315.942000", "142315.944000", "142315.947000", "142315.949000", "142335.902000", "142335.905000", "142335.908000", "142335.910000", "142335.913000", "142335.915000", "142335.918000", "142335.920000", "142335.923000", "142335.925000", "142335.928000", "142335.930000", "142335.933000", "142335.935000", "142335.938000", "142335.940000", "142335.943000", "142335.945000", "142335.948000", "142335.950000", "142353.193000", "142353.197000", "142353.200000", "142353.203000", "142353.206000", "142353.209000", "142353.212000", "142353.215000", "142353.218000", "142353.221000", "142353.224000", "142353.227000", "142353.229000", "142353.232000", "142353.235000", "142353.237000", "142353.240000", "142353.242000"],
