{
  "AcquisitionMatrixPE": 106,
  "AcquisitionNumber": 1,
  "AcquisitionTime": "15:07:33.652500",
  "BandwidthPerPixelPhaseEncode": 13.477,
  "BaseResolution": 106,
  "BodyPartExamined": "BRAIN",
  "CoilCombinationMethod": "Sum of Squares",
  "ConsistencyInfo": "N4_VE11C_LATEST_20160120",
  "ConversionSoftware": "dcm2niix",
  "ConversionSoftwareVersion": "v1.0.20220720",
  "DerivedVendorReportedEchoSpacing": 0.000700005,
  "DeviceSerialNumber": "166108",
  "DwellTime": 2.6e-06,
  "EchoTime": 0.03,
  "EchoTrainLength": 80,
  "EffectiveEchoSpacing": 0.000700005,
  "FlipAngle": 62,
  "HeudiconvVersion": "1.3.0",
  "ImageComments": "Unaliased MB4/PE3/LB",
  "ImageOrientationPatientDICOM": [1, 0, 0, 0, 0.969872, -0.243615],
  "ImageOrientationText": "Tra>Cor(-14.1)",
  "ImageType": [
    "ORIGINAL",
    "PRIMARY",
    "M",
    "MB",
    "ND",
    "MOSAIC"
],
  "ImagingFrequency": 123.244,
  "InPlanePhaseEncodingDirectionDICOM": "COL",
  "InstitutionAddress": "Bedford Way 26,London,London,GB,WC1H 0AP",
  "InstitutionName": "University College",
  "InstitutionalDepartmentName": "Department",
  "MRAcquisitionType": "2D",
  "MagneticFieldStrength": 3,
  "Manufacturer": "Siemens",
  "ManufacturersModelName": "Prisma",
  "MatrixCoilMode": "SENSE",
  "Modality": "MR",
  "MultibandAccelerationFactor": 4,
  "NonlinearGradientCorrection": false,
  "PartialFourier": 0.75,
  "PatientPosition": "HFS",
  "PercentPhaseFOV": 100,
  "PercentSampling": 100,
  "PhaseEncodingDirection": "j-",
  "PhaseEncodingSteps": 80,
  "PhaseResolution": 1,
  "PixelBandwidth": 1815,
  "ProcedureStepDescription": "Egor^MovieProject2",
  "ProtocolName": "func-bold_task-tono_run-02",
  "PulseSequenceDetails": "%CustomerSeq%\\cmrr_mbep2d_bold",
  "ReceiveCoilActiveElements": "HEA;HEP",
  "ReceiveCoilName": "Head_32",
  "ReconMatrixPE": 106,
  "RepetitionTime": 1,
  "SAR": 0.0421962,
  "ScanOptions": "PFP\\FS\\EXT",
  "ScanningSequence": "EP",
  "SequenceName": "epfid2d1_106",
  "SequenceVariant": "SK\\SS",
  "SeriesDescription": "func-bold_task-tono_run-02",
  "SeriesNumber": 21,
  "ShimSetting": [-1569, 661, 7437, 595, 19, 91, -91, -30],
  "SliceThickness": 2,
  "SliceTiming": [0, 0.535, 0.0875, 0.6225, 0.1775, 0.7125, 0.2675, 0.8025, 0.355, 0.89, 0.445, 0, 0.535, 0.0875, 0.6225, 0.1775, 0.7125, 0.2675, 0.8025, 0.355, 0.89, 0.445, 0, 0.535, 0.0875, 0.6225, 0.1775, 0.7125, 0.2675, 0.8025, 0.355, 0.89, 0.445, 0, 0.535, 0.0875, 0.6225, 0.1775, 0.7125, 0.2675, 0.8025, 0.355, 0.89, 0.445],
  "SoftwareVersions": "syngo MR E11",
  "SpacingBetweenSlices": 2,
  "StationName": "AWP166108",
  "TaskName": "tonotopy",
  "TotalReadoutTime": 0.0735005,
  "TxRefAmp": 240.096,
  "WipMemBlock": "af027651-c910-45d0-ad57-6121a58462c7||Sequence: R016 ve11c/master r/e634e98; Dec 19 2017 11:00:25 by eja",
  "dcmmeta_affine": [
    [-2.0, 0.0, 0.0, 106.0],
    [0.0, 1.939743995666504, -0.4872300326824188, -73.398681640625],
    [0.0, 0.4872300326824188, 1.9397441148757935, -39.47477722167969],
    [0.0, 0.0, 0.0, 1.0]
],
  "dcmmeta_reorient_transform": [
    [0.0, -1.0, 0.0, 105.0],
    [1.0, 0.0, 0.0, 0.0],
    [0.0, 0.0, 1.0, 0.0],
    [0.0, 0.0, 0.0, 1.0]
],
  "dcmmeta_shape": [106, 106, 44, 264],
  "dcmmeta_slice_dim": 2,
  "dcmmeta_version": 0.6,
  "global": {
    "const": {
      "AcquisitionMatrix": [106, 0, 0, 106],
      "AngioFlag": "N",
      "BitsAllocated": 16,
      "BitsStored": 16,
      "BodyPartExamined": "BRAIN",
      "CardiacNumberOfImages": 1,
      "Columns": 742,
      "EchoNumbers": 1,
      "EchoTime": 30.0,
      "EchoTrainLength": 80,
      "FlipAngle": 62.0,
      "HighBit": 15,
      "ImageOrientationPatient": [1.0, 0.0, 0.0, 0.0, 0.96987201493677, -0.2436150131714],
      "ImagePositionPatient": [-742.0, -747.11304121712, 166.62352484703],
      "ImageType": [
        "ORIGINAL",
        "PRIMARY",
        "M",
        "MB",
        "ND",
        "MOSAIC"
],
      "ImagedNucleus": "1H",
      "ImagingFrequency": 123.243688,
      "InPlanePhaseEncodingDirection": "COL",
      "MRAcquisitionType": "2D",
      "MagneticFieldStrength": 3.0,
      "Manufacturer": "SIEMENS",
      "ManufacturerModelName": "Prisma",
      "Modality": "MR",
      "NominalInterval": 0,
      "NumberOfAverages": 1.0,
      "NumberOfPhaseEncodingSteps": 80,
      "PercentPhaseFieldOfView": 100.0,
      "PercentSampling": 100.0,
      "PerformedProcedureStepStartTime": "134612.786000",
      "PhotometricInterpretation": "MONOCHROME2",
      "PixelBandwidth": 1815.0,
      "PixelRepresentation": 0,
      "PixelSpacing": [2.0, 2.0],
      "ProtocolName": "func-bold_task-tono_run-02",
      "RepetitionTime": 1000.0,
      "Rows": 742,
      "SAR": 0.04219620536195,
      "SamplesPerPixel": 1,
      "ScanOptions": [
        "PFP",
        "FS",
        "EXT"
],
      "ScanningSequence": "EP",
      "SequenceName": "epfid2d1_106",
      "SequenceVariant": [
        "SK",
        "SS"
],
      "SeriesDescription": "func-bold_task-tono_run-02",
      "SeriesNumber": 21,
      "SeriesTime": "150806.428000",
      "SliceLocation": -20.404459597375,
      "SliceThickness": 2.0,
      "SmallestImagePixelValue": 0,
      "SoftwareVersions": "syngo MR E11",
      "SpacingBetweenSlices": 2.0000000280024,
      "SpecificCharacterSet": "ISO_IR 100",
      "StudyID": "1",
      "StudyTime": "134612.725000",
      "TransmitCoilName": "Body",
      "VariableFlipAngleFlag": "N",
      "WindowCenterWidthExplanation": "Algo1",
      "dBdt": 0.0},
    "slices": {}
  },
  "time": {
    "samples": {
      "AcquisitionNumber": [1, 2, 3, 4, 5, 6, 7, 8, 9, 10, 11, 12, 13, 14, 15, 16, 17, 18, 19, 20, 21, 22, 23, 24, 25, 26, 27, 28, 29, 30, 31, 32, 33, 34, 35, 36, 37, 38, 39, 40, 41, 42, 43, 44, 45, 46, 47, 48, 49, 50, 51, 52, 53, 54, 55, 56, 57, 58, 59, 60, 61, 62, 63, 64, 65, 66, 67, 68, 69, 70, 71, 72, 73, 74, 75, 76, 77, 78, 79, 80, 81, 82, 83, 84, 85, 86, 87, 88, 89, 90, 91, 92, 93, 94, 95, 96, 97, 98, 99, 100, 101, 102, 103, 104, 105, 106, 107, 108, 109, 110, 111, 112, 113, 114, 115, 116, 117, 118, 119, 120, 121, 122, 123, 124, 125, 126, 127, 128, 129, 130, 131, 132, 133, 134, 135, 136, 137, 138, 139, 140, 141, 142, 143, 144, 145, 146, 147, 148, 149, 150, 151, 152, 153, 154, 155, 156, 157, 158, 159, 160, 161, 162, 163, 164, 165, 166, 167, 168, 169, 170, 171, 172, 173, 174, 175, 176, 177, 178, 179, 180, 181, 182, 183, 184, 185, 186, 187, 188, 189, 190, 191, 192, 193, 194, 195, 196, 197, 198, 199, 200, 201, 202, 203, 204, 205, 206, 207, 208, 209, 210, 211, 212, 213, 214, 215, 216, 217, 218, 219, 220, 221, 222, 223, 224, 225, 226, 227, 228, 229, 230, 231, 232, 233, 234, 235, 236, 237, 238, 239, 240, 241, 242, 243, 244, 245, 246, 247, 248, 249, 250, 251, 252, 253, 254, 255, 256, 257, 258, 259, 260, 261, 262, 263, 264],
      "AcquisitionTime": ["150733.652500", "150734.652500", "150735.652500", "150736.652500", "150737.652500", "150738.652500", "150739.652500", "150740.652500", "150741.652500", "150742.652500", "150743.652500", "150744.652500", "150745.652500", "150746.652500", "150747.652500", "150748.652500", "150749.652500", "150750.652500", "150751.652500", "150752.652500", "150753.652500", "150754.652500", "150755.652500", "150756.652500", "150757.652500", "150758.652500", "150759.652500", "150800.652500", "150801.652500", "150802.652500", "150803.652500", "150804.652500", "150805.652500", "150806.652500", "150807.652500", "150808.652500", "150809.652500", "150810.652500", "150811.652500", "150812.652500", "150813.652500", "150814.652500", "150815.652500", "150816.652500", "150817.652500", "150818.652500", "150819.652500", "150820.652500", "150821.652500", "150822.652500", "150823.652500", "150824.652500", "150825.652500", "150826.652500", "150827.652500", "150828.652500", "150829.652500", "150830.652500", "150831.652500", "150832.652500", "150833.652500", "150834.652500", "150835.652500", "150836.652500", "150837.652500", "150838.652500", "150839.652500", "150840.652500", "150841.652500", "150842.652500", "150843.652500", "150844.652500", "150845.652500", "150846.652500", "150847.652500", "150848.652500", "150849.652500", "150850.652500", "150851.652500", "150852.652500", "150853.652500", "150854.652500", "150855.652500", "150856.652500", "150857.652500", "150858.652500", "150859.652500", "150900.652500", "150901.652500", "150902.652500", "150903.652500", "150904.652500", "150905.652500", "150906.652500", "150907.652500", "150908.652500", "150909.652500", "150910.652500", "150911.652500", "150912.652500", "150913.652500", "150914.652500", "150915.652500", "150916.652500", "150917.652500", "150918.652500", "150919.652500", "150920.652500", "150921.652500", "150922.652500", "150923.652500", "150924.652500", "150925.652500", "150926.652500", "150927.652500", "150928.652500", "150929.652500", "150930.652500", "150931.652500", "150932.652500", "150933.652500", "150934.652500", "150935.652500", "150936.652500", "150937.652500", "150938.652500", "150939.652500", "150940.652500", "150941.652500", "150942.652500", "150943.652500", "150944.652500", "150945.652500", "150946.652500", "150947.652500", "150948.652500", "150949.652500", "150950.652500", "150951.652500", "150952.652500", "150953.652500", "150954.652500", "150955.652500", "150956.652500", "150957.652500", "150958.652500", "150959.652500", "151000.652500", "151001.652500", "151002.652500", "151003.652500", "151004.652500", "151005.652500", "151006.652500", "151007.652500", "151008.652500", "151009.652500", "151010.652500", "151011.652500", "151012.652500", "151013.652500", "151014.652500", "151015.652500", "151016.652500", "151017.652500", "151018.652500", "151019.652500", "151020.652500", "151021.652500", "151022.652500", "151023.652500", "151024.652500", "151025.652500", "151026.652500", "151027.652500", "151028.652500", "151029.652500", "151030.652500", "151031.652500", "151032.652500", "151033.652500", "151034.652500", "151035.652500", "151036.652500", "151037.652500", "151038.652500", "151039.652500", "151040.652500", "151041.652500", "151042.652500", "151043.652500", "151044.652500", "151045.652500", "151046.652500", "151047.652500", "151048.652500", "151049.652500", "151050.652500", "151051.652500", "151052.652500", "151053.652500", "151054.652500", "151055.652500", "151056.652500", "151057.652500", "151058.652500", "151059.652500", "151100.652500", "151101.652500", "151102.652500", "151103.652500", "151104.652500", "151105.652500", "151106.652500", "151107.652500", "151108.652500", "151109.652500", "151110.652500", "151111.652500", "151112.652500", "151113.652500", "151114.652500", "151115.652500", "151116.652500", "151117.652500", "151118.652500", "151119.652500", "151120.652500", "151121.652500", "151122.652500", "151123.652500", "151124.652500", "151125.652500", "151126.652500", "151127.652500", "151128.652500", "151129.652500", "151130.652500", "151131.652500", "151132.652500", "151133.652500", "151134.652500", "151135.652500", "151136.652500", "151137.652500", "151138.652500", "151139.652500", "151140.652500", "151141.652500", "151142.652500", "151143.652500", "151144.652500", "151145.652500", "151146.652500", "151147.652500", "151148.652500", "151149.652500", "151150.652500", "151151.652500", "151152.652500", "151153.652500", "151154.652500", "151155.652500", "151156.652500"],
      "ContentTime": ["150806.430000", "150806.433000", "150806.436000", "150806.438000", "150806.441000", "150806.443000", "150806.446000", "150806.455000", "150806.457000", "150806.460000", "150806.462000", "150806.465000", "150806.467000", "150806.470000", "150806.472000", "150806.475000", "150806.477000", "150806.484000", "150806.486000", "150806.489000", "150806.491000", "150806.494000", "150806.496000", "150806.498000", "150806.501000", "150806.503000", "150806.507000", "150806.510000", "150806.512000", "150806.515000", "150806.517000", "150806.520000", "150826.382000", "150826.385000", "150826.387000", "150826.390000", "150826.392000", "150826.395000", "150826.397000", "150826.400000", "150826.402000", "150826.405000", "150826.412000", "150826.415000", "150826.417000", "150826.420000", "150826.422000", "150826.424000", "150826.427000", "150826.429000", "150826.432000", "150826.436000", "150846.382000", "150846.385000", "150846.387000", "150846.390000", "150846.392000", "150846.394000", "150846.397000", "150846.399000", "150846.402000", "150846.404000", "150846.407000", "150846.409000", "150846.412000", "150846.414000", "150846.416000", "150846.419000", "150846.421000", "150846.424000", "150846.426000", "150846.429000", "150906.382000", "150906.385000", "150906.388000", "150906.390000", "150906.392000", "150906.395000", "150906.397000", "150906.402000", "150906.405000", "150906.407000", "150906.410000", "150906.412000", "150906.414000", "150906.417000", "150906.419000", "150906.422000", "150906.424000", "150906.427000", "150906.429000", "150906.431000", "150926.382000", "150926.385000", "150926.388000", "150926.390000", "150926.392000", "150926.395000", "150926.397000", "150926.400000", "150926.402000", "150926.405000", "150926.407000", "150926.409000", "150926.412000", "150926.414000", "150926.417000", "150926.419000", "150926.422000", "150926.424000", "150926.427000", "150926.429000", "150946.382000", "150946.385000", "150946.387000", "150946.390000", "150946.392000", "150946.395000", "150946.397000", "150946.400000", "150946.402000", "150946.404000", "150946.407000", "150946.409000", "150946.412000", "150946.414000", "150946.417000", "150946.419000", "150946.421000", "150946.424000", "150946.426000", "150946.429000", "151006.382000", "151006.385000", "151006.388000", "151006.390000", "151006.392000", "151006.395000", "151006.397000", "151006.400000", "151006.402000", "151006.404000", "151006.407000", "151006.409000", "151006.412000", "151006.414000", "151006.417000", "151006.419000", "151006.421000", "151006.424000", "151006.426000", "151006.429000", "151026.382000", "151026.385000", "151026.387000", "151026.390000", "151026.392000", "151026.395000", "151026.397000", "151026.400000", "151026.402000", "151026.405000", "151026.407000", "151026.410000", "151026.412000", "151026.414000", "151026.417000", "151026.419000", "151026.422000", "151026.424000", "151026.427000", "151026.429000", "151046.383000", "151046.385000", "151046.388000", "151046.390000", "151046.393000", "151046.395000", "151046.397000", "151046.400000", "151046.402000", "151046.405000", "151046.407000", "151046.410000", "151046.412000", "151046.415000", "151046.417000", "151046.420000", "151046.422000", "151046.424000", "151046.427000", "151046.429000", "151106.382000", "151106.385000", "151106.388000", "151106.390000", "151106.393000", "151106.395000", "151106.398000", "151106.400000", "151106.402000", "151106.405000", "151106.407000", "151106.410000", "151106.412000", "151106.415000", "151106.417000", "151106.420000", "151106.422000", "151106.424000", "151106.427000", "151106.429000", "151126.383000", "151126.385000", "151126.388000", "151126.390000", "151126.393000", "151126.395000", "151126.397000", "151126.400000", "151126.402000", "151126.405000", "151126.407000", "151126.410000", "151126.412000", "151126.415000", "151126.417000", "151126.420000", "151126.422000", "151126.424000", "151126.427000", "151126.429000", "151146.382000", "151146.385000", "151146.388000", "151146.390000", "151146.392000", "151146.395000", "151146.397000", "151146.400000", "151146.402000", "151146.405000", "151146.407000", "151146.410000", "151146.412000", "151146.428000", "151146.431000", "151146.433000", "151146.435000", "151146.438000", "151146.440000", "151146.443000", "151158.364000", "151158.367000", "151158.369000", "151158.372000", "151158.375000", "151158.377000", "151158.380000", "151158.382000", "151158.385000", "151158.387000", "151158.390000", "151158.392000"],
      "InstanceCreationTime": ["150806.430000", "150806.433000", "150806.436000", "150806.438000", "150806.441000", "150806.443000", "150806.446000", "150806.455000", "150806.457000", "150806.460000", "150806.462000", "150806.465000", "150806.467000", "150806.470000", "150806.472000", "150806.475000", "150806.477000", "150806.484000", "150806.486000", "150806.489000", "150806.491000", "150806.494000", "150806.496000", "150806.498000", "150806.501000", "150806.503000", "150806.507000", "150806.510000", "150806.512000", "150806.515000", "150806.517000", "150806.520000", "150826.382000", "150826.385000", "150826.387000", "150826.390000", "150826.392000", "150826.395000", "150826.397000", "150826.400000", "150826.402000", "150826.405000", "150826.412000", "150826.415000", "150826.417000", "150826.420000", "150826.422000", "150826.424000", "150826.427000", "150826.429000", "150826.432000", "150826.436000", "150846.382000", "150846.385000", "150846.387000", "150846.390000", "150846.392000", "150846.394000", "150846.397000", "150846.399000", "150846.402000", "150846.404000", "150846.407000", "150846.409000", "150846.412000", "150846.414000", "150846.416000", "150846.419000", "150846.421000", "150846.424000", "150846.426000", "150846.429000", "150906.382000", "150906.385000", "150906.388000", "150906.390000", "150906.392000", "150906.395000", "150906.397000", "150906.402000", "150906.405000", "150906.407000", "150906.410000", "150906.412000", "150906.414000", "150906.417000", "150906.419000", "150906.422000", "150906.424000", "150906.427000", "150906.429000", "150906.431000", "150926.382000", "150926.385000", "150926.388000", "150926.390000", "150926.392000", "150926.395000", "150926.397000", "150926.400000", "150926.402000", "150926.405000", "150926.407000", "150926.409000", "150926.412000", "150926.414000", "150926.417000", "150926.419000", "150926.422000", "150926.424000", "150926.427000", "150926.429000", "150946.382000", "150946.385000", "150946.387000", "150946.390000", "150946.392000", "150946.395000", "150946.397000", "150946.400000", "150946.402000", "150946.404000", "150946.407000", "150946.409000", "150946.412000", "150946.414000", "150946.417000", "150946.419000", "150946.421000", "150946.424000", "150946.426000", "150946.429000", "151006.382000", "151006.385000", "151006.388000", "151006.390000", "151006.392000", "151006.395000", "151006.397000", "151006.400000", "151006.402000", "151006.404000", "151006.407000", "151006.409000", "151006.412000", "151006.414000", "151006.417000", "151006.419000", "151006.421000", "151006.424000", "151006.426000", "151006.429000", "151026.382000", "151026.385000", "151026.387000", "151026.390000", "151026.392000", "151026.395000", "151026.397000", "151026.400000", "151026.402000", "151026.405000", "151026.407000", "151026.410000", "151026.412000", "151026.414000", "151026.417000", "151026.419000", "151026.422000", "151026.424000", "151026.427000", "151026.429000", "151046.383000", "151046.385000", "151046.388000", "151046.390000", "151046.393000", "151046.395000", "151046.397000", "151046.400000", "151046.402000", "151046.405000", "151046.407000", "151046.410000", "151046.412000", "151046.415000", "151046.417000", "151046.420000", "151046.422000", "151046.424000", "151046.427000", "151046.429000", "151106.382000", "151106.385000", "151106.388000", "151106.390000", "151106.393000", "151106.395000", "151106.398000", "151106.400000", "151106.402000", "151106.405000", "151106.407000", "151106.410000", "151106.412000", "151106.415000", "151106.417000", "151106.420000", "151106.422000", "151106.424000", "151106.427000", "151106.429000", "151126.383000", "151126.385000", "151126.388000", "151126.390000", "151126.393000", "151126.395000", "151126.397000", "151126.400000", "151126.402000", "151126.405000", "151126.407000", "151126.410000", "151126.412000", "151126.415000", "151126.417000", "151126.420000", "151126.422000", "151126.424000", "151126.427000", "151126.429000", "151146.382000", "151146.385000", "151146.388000", "151146.390000", "151146.392000", "151146.395000", "151146.397000", "151146.400000", "151146.402000", "151146.405000", "151146.407000", "151146.410000", "151146.412000", "151146.428000", "151146.431000", "151146.433000", "151146.435000", "151146.438000", "151146.440000", "151146.443000", "151158.364000", "151158.367000", "151158.369000", "151158.372000", "151158.375000", "151158.377000", "151158.380000", "151158.382000", "151158.385000", "151158.387000", "151158.390000", "151158.392000"],
      "InstanceNumber": [1, 2, 3, 4, 5, 6, 7, 8, 9, 10, 11, 12, 13, 14, 15, 16, 17, 18, 19, 20, 21, 22, 23, 24, 25, 26, 27, 28, 29, 30, 31, 32, 33, 34, 35, 36, 37, 38, 39, 40, 41, 42, 43, 44, 45, 46, 47, 48, 49, 50, 51, 52, 53, 54, 55, 56, 57, 58, 59, 60, 61, 62, 63, 64, 65, 66, 67, 68, 69, 70, 71, 72, 73, 74, 75, 76, 77, 78, 79, 80, 81, 82, 83, 84, 85, 86, 87, 88, 89, 90, 91, 92, 93, 94, 95, 96, 97, 98, 99, 100, 101, 102, 103, 104, 105, 106, 107, 108, 109, 110, 111, 112, 113, 114, 115, 116, 117, 118, 119, 120, 121, 122, 123, 124, 125, 126, 127, 128, 129, 130, 131, 132, 133, 134, 135, 136, 137, 138, 139, 140, 141, 142, 143, 144, 145, 146, 147, 148, 149, 150, 151, 152, 153, 154, 155, 156, 157, 158, 159, 160, 161, 162, 163, 164, 165, 166, 167, 168, 169, 170, 171, 172, 173, 174, 175, 176, 177, 178, 179, 180, 181, 182, 183, 184, 185, 186, 187, 188, 189, 190, 191, 192, 193, 194, 195, 196, 197, 198, 199, 200, 201, 202, 203, 204, 205, 206, 207, 208, 209, 210, 211, 212, 213, 214, 215, 216, 217, 218, 219, 220, 221, 222, 223, 224, 225, 226, 227, 228, 229, 230, 231, 232, 233, 234, 235, 236, 237, 238, 239, 240, 241, 242, 243, 244, 245, 246, 247, 248, 249, 250, 251, 252, 253, 254, 255, 256, 257, 258, 259, 260, 261, 262, 263, 264],
      "LargestImagePixelValue": [11567, 11384, 11315, 11372, 11485, 11527, 11485, 11393, 11250, 11254, 11391, 11307, 11372, 11411, 11540, 11296, 11382, 11304, 11329, 11415, 11486, 11323, 11416, 11604, 11516, 11516, 11651, 11691, 11720, 11859, 11798, 11786, 11984, 11944, 11707, 11978, 12114, 11927, 11688, 12247, 12032, 11594, 12051, 12074, 11674, 11745, 11962, 11619, 11530, 11931, 11664, 11394, 11904, 11801, 11556, 11538, 11737, 11522, 11523, 11777, 11560, 11493, 11672, 11534, 11624, 11838, 11696, 11537, 11738, 11780, 11548, 11745, 11757, 11545, 11714, 11841, 11713, 11578, 11805, 11705, 11692, 11790, 11997, 11780, 11845, 11966, 11682, 11955, 11950, 11781, 11848, 12067, 11765, 11675, 11858, 11800, 11718, 11883, 11962, 11853, 11517, 11928, 11938, 11583, 11595, 11782, 11867, 11680, 11960, 11780, 11462, 11811, 11882, 11652, 11598, 11791, 11698, 11482, 11653, 11640, 11548, 11458, 11684, 11674, 11525, 11592, 11885, 11761, 11596, 11893, 11864, 11575, 11633, 11891, 11639, 11673, 11515, 11848, 11537, 11551, 11842, 11595, 11488, 11775, 11504, 11396, 11734, 11588, 11564, 11516, 11572, 11502, 11647, 11639, 11487, 11541, 11731, 11594, 11570, 11746, 11492, 11610, 11603, 11472, 11589, 11647, 11654, 11710, 12430, 12432, 11894, 11977, 11526, 11591, 11483, 11522, 11489, 11507, 11790, 11464, 11575, 11654, 11628, 11604, 11635, 11587, 11659, 11475, 11628, 11619, 11467, 11679, 11597, 11589, 11695, 11554, 11620, 11587, 11561, 11510, 11582, 11674, 11551, 11625, 11713, 11696, 11672, 11568, 11491, 11511, 11557, 11676, 11643, 11563, 11538, 11556, 11417, 11574, 11530, 11496, 11445, 11449, 11474, 11481, 11467, 11531, 11478, 11527, 11441, 11638, 11419, 11469, 11487, 11607, 11516, 11541, 11494, 11435, 11388, 11396, 11537, 11403, 11574, 11525, 11467, 11674, 11493, 11610, 11571, 11448, 11509, 11567, 11553, 11497, 11644, 11609, 11550, 11576, 11751, 11603, 11652, 11552, 11581, 11544],
      "TriggerTime": [8100.0, 9100.0, 10100.0, 11100.0, 12100.0, 13100.0, 14100.0, 15100.0, 16100.0, 17100.0, 18100.0, 19100.0, 20100.0, 21100.0, 22100.0, 23100.0, 24100.0, 25100.0, 26100.0, 27100.0, 28100.0, 29100.0, 30100.0, 31100.0, 32100.0, 33100.0, 34100.0, 35100.0, 36100.0, 37100.0, 38100.0, 39100.0, 40100.0, 41100.0, 42100.0, 43100.0, 44100.0, 45100.0, 46100.0, 47100.0, 48100.0, 49100.0, 50100.0, 51100.0, 52100.0, 53100.0, 54100.0, 55100.0, 56100.0, 57100.0, 58100.0, 59100.0, 60100.0, 61100.0, 62100.0, 63100.0, 64100.0, 65100.0, 66100.0, 67100.0, 68100.0, 69100.0, 70100.0, 71100.0, 72100.0, 73100.0, 74100.0, 75100.0, 76100.0, 77100.0, 78100.0, 79100.0, 80100.0, 81100.0, 82100.0, 83100.0, 84100.0, 85100.0, 86100.0, 87100.0, 88100.0, 89100.0, 90100.0, 91100.0, 92100.0, 93100.0, 94100.0, 95100.0, 96100.0, 97100.0, 98100.0, 99100.0, 100100.0, 101100.0, 102100.0, 103100.0, 104100.0, 105100.0, 106100.0, 107100.0, 108100.0, 109100.0, 110100.0, 111100.0, 112100.0, 113100.0, 114100.0, 115100.0, 116100.0, 117100.0, 118100.0, 119100.0, 120100.0, 121100.0, 122100.0, 123100.0, 124100.0, 125100.0, 126100.0, 127100.0, 128100.0, 129100.0, 130100.0, 131100.0, 132100.0, 133100.0, 134100.0, 135100.0, 136100.0, 137100.0, 138100.0, 139100.0, 140100.0, 141100.0, 142100.0, 143100.0, 144100.0, 145100.0, 146100.0, 147100.0, 148100.0, 149100.0, 150100.0, 151100.0, 152100.0, 153100.0, 154100.0, 155100.0, 156100.0, 157100.0, 158100.0, 159100.0, 160100.0, 161100.0, 162100.0, 163100.0, 164100.0, 165100.0, 166100.0, 167100.0, 168100.0, 169100.0, 170100.0, 171100.0, 172100.0, 173100.0, 174100.0, 175100.0, 176100.0, 177100.0, 178100.0, 179100.0, 180100.0, 181100.0, 182100.0, 183100.0, 184100.0, 185100.0, 186100.0, 187100.0, 188100.0, 189100.0, 190100.0, 191100.0, 192100.0, 193100.0, 194100.0, 195100.0, 196100.0, 197100.0, 198100.0, 199100.0, 200100.0, 201100.0, 202100.0, 203100.0, 204100.0, 205100.0, 206100.0, 207100.0, 208100.0, 209100.0, 210100.0, 211100.0, 212100.0, 213100.0, 214100.0, 215100.0, 216100.0, 217100.0, 218100.0, 219100.0, 220100.0, 221100.0, 222100.0, 223100.0, 224100.0, 225100.0, 226100.0, 227100.0, 228100.0, 229100.0, 230100.0, 231100.0, 232100.0, 233100.0, 234100.0, 235100.0, 236100.0, 237100.0, 238100.0, 239100.0, 240100.0, 241100.0, 242100.0, 243100.0, 244100.0, 245100.0, 246100.0, 247100.0, 248100.0, 249100.0, 250100.0, 251100.0, 252100.0, 253100.0, 254100.0, 255100.0, 256100.0, 257100.0, 258100.0, 259100.0, 260100.0, 261100.0, 262100.0, 263100.0, 264100.0, 265100.0, 266100.0, 267100.0, 268100.0, 269100.0, 270100.0, 271100.0],
      "WindowCenter": [4701.0, 4698.0, 4684.0, 4683.0, 4682.0, 4681.0, 4666.0, 4665.0, 4655.0, 4652.0, 4654.0, 4651.0, 4652.0, 4653.0, 4652.0, 4652.0, 4655.0, 4652.0, 4652.0, 4664.0, 4666.0, 4665.0, 4667.0, 4665.0, 4678.0, 4679.0, 4692.0, 4693.0, 4696.0, 4703.0, 4708.0, 4707.0, 4705.0, 4709.0, 4709.0, 4721.0, 4719.0, 4724.0, 4723.0, 4733.0, 4731.0, 4721.0, 4722.0, 4731.0, 4722.0, 4725.0, 4724.0, 4724.0, 4722.0, 4721.0, 4711.0, 4712.0, 4708.0, 4706.0, 4696.0, 4696.0, 4694.0, 4692.0, 4693.0, 4690.0, 4682.0, 4696.0, 4681.0, 4681.0, 4682.0, 4690.0, 4679.0, 4678.0, 4680.0, 4680.0, 4685.0, 4689.0, 4680.0, 4682.0, 4679.0, 4677.0, 4677.0, 4680.0, 4681.0, 4689.0, 4691.0, 4692.0, 4695.0, 4705.0, 4694.0, 4696.0, 4696.0, 4694.0, 4692.0, 4694.0, 4695.0, 4704.0, 4706.0, 4698.0, 4695.0, 4709.0, 4709.0, 4706.0, 4711.0, 4711.0, 4707.0, 4709.0, 4710.0, 4709.0, 4710.0, 4709.0, 4707.0, 4709.0, 4710.0, 4710.0, 4708.0, 4708.0, 4710.0, 4709.0, 4709.0, 4710.0, 4709.0, 4708.0, 4712.0, 4707.0, 4707.0, 4708.0, 4705.0, 4699.0, 4698.0, 4696.0, 4709.0, 4710.0, 4709.0, 4711.0, 4706.0, 4709.0, 4707.0, 4707.0, 4707.0, 4699.0, 4707.0, 4705.0, 4696.0, 4707.0, 4710.0, 4707.0, 4709.0, 4709.0, 4705.0, 4697.0, 4708.0, 4696.0, 4697.0, 4698.0, 4707.0, 4707.0, 4711.0, 4707.0, 4709.0, 4709.0, 4708.0, 4697.0, 4694.0, 4691.0, 4685.0, 4683.0, 4684.0, 4680.0, 4692.0, 4680.0, 4691.0, 4690.0, 4718.0, 4716.0, 4706.0, 4718.0, 4712.0, 4706.0, 4695.0, 4684.0, 4681.0, 4677.0, 4680.0, 4681.0, 4677.0, 4679.0, 4680.0, 4681.0, 4680.0, 4679.0, 4681.0, 4681.0, 4679.0, 4680.0, 4681.0, 4682.0, 4680.0, 4681.0, 4679.0, 4679.0, 4680.0, 4681.0, 4682.0, 4685.0, 4680.0, 4683.0, 4681.0, 4682.0, 4691.0, 4692.0, 4693.0, 4694.0, 4697.0, 4694.0, 4695.0, 4699.0, 4694.0, 4694.0, 4697.0, 4706.0, 4697.0, 4707.0, 4711.0, 4708.0, 4709.0, 4710.0, 4710.0, 4708.0, 4697.0, 4697.0, 4691.0, 4684.0, 4694.0, 4692.0, 4693.0, 4697.0, 4694.0, 4697.0, 4695.0, 4696.0, 4696.0, 4681.0, 4683.0, 4680.0, 4680.0, 4682.0, 4683.0, 4683.0, 4681.0, 4683.0, 4682.0, 4683.0, 4678.0, 4682.0, 4679.0, 4679.0, 4680.0, 4677.0, 4681.0, 4676.0, 4677.0, 4681.0, 4689.0, 4680.0, 4680.0, 4678.0, 4681.0, 4677.0],
