{
  "AcquisitionMatrixPE": 106,
  "AcquisitionNumber": 1,
  "AcquisitionTime": "19:42:23.617500",
  "BandwidthPerPixelPhaseEncode": 16.846,
  "BaseResolution": 106,
  "BodyPartExamined": "BRAIN",
  "CoilCombinationMethod": "Sum of Squares",
  "ConsistencyInfo": "N4_VE11C_LATEST_20160120",
  "ConversionSoftware": "dcm2niix",
  "ConversionSoftwareVersion": "v1.0.20220720",
  "DerivedVendorReportedEchoSpacing": 0.000560012,
  "DeviceSerialNumber": "166108",
  "DwellTime": 1.8e-06,
  "EchoTime": 0.0352,
  "EchoTrainLength": 106,
  "EffectiveEchoSpacing": 0.000560012,
  "FlipAngle": 60,
  "HeudiconvVersion": "1.3.0",
  "ImageComments": "Unaliased MB4/PE3/LB",
  "ImageOrientationPatientDICOM": [1, 0, 0, 0, 0.934204, -0.356738],
  "ImageOrientationText": "Tra>Cor(-20.9)",
  "ImageType": [
    "ORIGINAL",
    "PRIMARY",
    "M",
    "MB",
    "ND",
    "MOSAIC"
],
  "ImagingFrequency": 123.244,
  "InPlanePhaseEncodingDirectionDICOM": "COL",
  "InstitutionAddress": "Bedford Way 26,London,London,GB,WC1H 0AP",
  "InstitutionName": "University College",
  "InstitutionalDepartmentName": "Department",
  "MRAcquisitionType": "2D",
  "MagneticFieldStrength": 3,
  "Manufacturer": "Siemens",
  "ManufacturersModelName": "Prisma",
  "MatrixCoilMode": "SENSE",
  "Modality": "MR",
  "MultibandAccelerationFactor": 4,
  "NonlinearGradientCorrection": false,
  "PartialFourier": 1,
  "PatientPosition": "HFS",
  "PercentPhaseFOV": 100,
  "PercentSampling": 100,
  "PhaseEncodingDirection": "j-",
  "PhaseEncodingSteps": 106,
  "PhaseResolution": 1,
  "PixelBandwidth": 2620,
  "ProcedureStepDescription": "Egor^MovieProject2",
  "ProtocolName": "func-bold_task-pRF_run-02",
  "PulseSequenceDetails": "%CustomerSeq%\\cmrr_mbep2d_bold",
  "ReceiveCoilActiveElements": "HEA;HEP",
  "ReceiveCoilName": "Head_32",
  "ReconMatrixPE": 106,
  "RepetitionTime": 1,
  "SAR": 0.0720387,
  "ScanOptions": "FS\\EXT",
  "ScanningSequence": "EP",
  "SequenceName": "epfid2d1_106",
  "SequenceVariant": "SK\\SS",
  "SeriesDescription": "func-bold_task-pRF_run-02",
  "SeriesNumber": 14,
  "ShimSetting": [-1507, 654, 7370, 140, -27, 220, 37, -60],
  "SliceThickness": 2,
  "SliceTiming": [0, 0.41, 0.8175, 0.245, 0.655, 0.0825, 0.49, 0.9, 0.3275, 0.735, 0.165, 0.5725, 0, 0.41, 0.8175, 0.245, 0.655, 0.0825, 0.49, 0.9, 0.3275, 0.735, 0.165, 0.5725, 0, 0.41, 0.8175, 0.245, 0.655, 0.0825, 0.49, 0.9, 0.3275, 0.735, 0.165, 0.5725, 0, 0.41, 0.8175, 0.245, 0.655, 0.0825, 0.49, 0.9, 0.3275, 0.735, 0.165, 0.5725],
  "SoftwareVersions": "syngo MR E11",
  "SpacingBetweenSlices": 2,
  "StationName": "AWP166108",
  "TaskName": "retinotopy",
  "TotalReadoutTime": 0.0588013,
  "TxRefAmp": 247.301,
  "WipMemBlock": "b1060780-25e3-4297-b80f-e5e1f537cbd2||Sequence: R016 ve11c/master r/e634e98; Dec 19 2017 11:00:25 by eja",
  "dcmmeta_affine": [
    [-2.0, 0.0, 0.0, 106.0],
    [0.0, 1.8684089183807373, -0.7134760022163391, -78.53997802734375],
    [0.0, 0.7134759426116943, 1.8684090375900269, -40.295108795166016],
    [0.0, 0.0, 0.0, 1.0]
],
  "dcmmeta_reorient_transform": [
    [0.0, -1.0, 0.0, 105.0],
    [1.0, 0.0, 0.0, 0.0],
    [0.0, 0.0, 1.0, 0.0],
    [0.0, 0.0, 0.0, 1.0]
],
  "dcmmeta_shape": [106, 106, 48, 356],
  "dcmmeta_slice_dim": 2,
  "dcmmeta_version": 0.6,
  "global": {
    "const": {
      "AcquisitionMatrix": [106, 0, 0, 106],
      "AngioFlag": "N",
      "BitsAllocated": 16,
      "BitsStored": 16,
      "BodyPartExamined": "BRAIN",
      "CardiacNumberOfImages": 1,
      "Columns": 742,
      "EchoNumbers": 1,
      "EchoTime": 35.2,
      "EchoTrainLength": 106,
      "FlipAngle": 60.0,
      "HighBit": 15,
      "ImageOrientationPatient": [1.0, 0.0, 0.0, 0.0, 0.93420447947515, -0.3567379858223],
      "ImagePositionPatient": [-742.0, -711.79701236004, 261.50522808498],
      "ImageType": [
        "ORIGINAL",
        "PRIMARY",
        "M",
        "MB",
        "ND",
        "MOSAIC"
],
      "ImagedNucleus": "1H",
      "ImagingFrequency": 123.243649,
      "InPlanePhaseEncodingDirection": "COL",
      "MRAcquisitionType": "2D",
      "MagneticFieldStrength": 3.0,
      "Manufacturer": "SIEMENS",
      "ManufacturerModelName": "Prisma",
      "Modality": "MR",
      "NominalInterval": 0,
      "NumberOfAverages": 1.0,
      "NumberOfPhaseEncodingSteps": 106,
      "PercentPhaseFieldOfView": 100.0,
      "PercentSampling": 100.0,
      "PerformedProcedureStepStartTime": "183831.058000",
      "PhotometricInterpretation": "MONOCHROME2",
      "PixelBandwidth": 2620.0,
      "PixelRepresentation": 0,
      "PixelSpacing": [2.0, 2.0],
      "ProtocolName": "func-bold_task-pRF_run-02",
      "RepetitionTime": 1000.0,
      "Rows": 742,
      "SAR": 0.07203873671024,
      "SamplesPerPixel": 1,
      "ScanOptions": [
        "FS",
        "EXT"
],
      "ScanningSequence": "EP",
      "SequenceName": "epfid2d1_106",
      "SequenceVariant": [
        "SK",
        "SS"
],
      "SeriesDescription": "func-bold_task-pRF_run-02",
      "SeriesNumber": 14,
      "SeriesTime": "194251.723000",
      "SliceLocation": -9.6256770204973,
      "SliceThickness": 2.0,
      "SmallestImagePixelValue": 0,
      "SoftwareVersions": "syngo MR E11",
      "SpacingBetweenSlices": 2.0000000332552,
      "SpecificCharacterSet": "ISO_IR 100",
      "StudyID": "1",
      "StudyTime": "183830.993000",
      "TransmitCoilName": "Body",
      "VariableFlipAngleFlag": "N",
      "WindowCenterWidthExplanation": "Algo1",
      "dBdt": 0.0},
    "slices": {}
  },
  "time": {
    "samples": {
      "AcquisitionNumber": [1, 2, 3, 4, 5, 6, 7, 8, 9, 10, 11, 12, 13, 14, 15, 16, 17, 18, 19, 20, 21, 22, 23, 24, 25, 26, 27, 28, 29, 30, 31, 32, 33, 34, 35, 36, 37, 38, 39, 40, 41, 42, 43, 44, 45, 46, 47, 48, 49, 50, 51, 52, 53, 54, 55, 56, 57, 58, 59, 60, 61, 62, 63, 64, 65, 66, 67, 68, 69, 70, 71, 72, 73, 74, 75, 76, 77, 78, 79, 80, 81, 82, 83, 84, 85, 86, 87, 88, 89, 90, 91, 92, 93, 94, 95, 96, 97, 98, 99, 100, 101, 102, 103, 104, 105, 106, 107, 108, 109, 110, 111, 112, 113, 114, 115, 116, 117, 118, 119, 120, 121, 122, 123, 124, 125, 126, 127, 128, 129, 130, 131, 132, 133, 134, 135, 136, 137, 138, 139, 140, 141, 142, 143, 144, 145, 146, 147, 148, 149, 150, 151, 152, 153, 154, 155, 156, 157, 158, 159, 160, 161, 162, 163, 164, 165, 166, 167, 168, 169, 170, 171, 172, 173, 174, 175, 176, 177, 178, 179, 180, 181, 182, 183, 184, 185, 186, 187, 188, 189, 190, 191, 192, 193, 194, 195, 196, 197, 198, 199, 200, 201, 202, 203, 204, 205, 206, 207, 208, 209, 210, 211, 212, 213, 214, 215, 216, 217, 218, 219, 220, 221, 222, 223, 224, 225, 226, 227, 228, 229, 230, 231, 232, 233, 234, 235, 236, 237, 238, 239, 240, 241, 242, 243, 244, 245, 246, 247, 248, 249, 250, 251, 252, 253, 254, 255, 256, 257, 258, 259, 260, 261, 262, 263, 264, 265, 266, 267, 268, 269, 270, 271, 272, 273, 274, 275, 276, 277, 278, 279, 280, 281, 282, 283, 284, 285, 286, 287, 288, 289, 290, 291, 292, 293, 294, 295, 296, 297, 298, 299, 300, 301, 302, 303, 304, 305, 306, 307, 308, 309, 310, 311, 312, 313, 314, 315, 316, 317, 318, 319, 320, 321, 322, 323, 324, 325, 326, 327, 328, 329, 330, 331, 332, 333, 334, 335, 336, 337, 338, 339, 340, 341, 342, 343, 344, 345, 346, 347, 348, 349, 350, 351, 352, 353, 354, 355, 356],
      "AcquisitionTime": ["194223.617500", "194224.617500", "194225.617500", "194226.617500", "194227.617500", "194228.617500", "194229.617500", "194230.617500", "194231.617500", "194232.617500", "194233.617500", "194234.617500", "194235.617500", "194236.617500", "194237.617500", "194238.617500", "194239.617500", "194240.617500", "194241.617500", "194242.617500", "194243.617500", "194244.617500", "194245.617500", "194246.617500", "194247.617500", "194248.617500", "194249.617500", "194250.617500", "194251.617500", "194252.617500", "194253.617500", "194254.617500", "194255.617500", "194256.617500", "194257.617500", "194258.617500", "194259.617500", "194300.617500", "194301.617500", "194302.617500", "194303.617500", "194304.617500", "194305.617500", "194306.617500", "194307.617500", "194308.617500", "194309.617500", "194310.617500", "194311.617500", "194312.617500", "194313.617500", "194314.617500", "194315.617500", "194316.617500", "194317.617500", "194318.617500", "194319.617500", "194320.617500", "194321.617500", "194322.617500", "194323.617500", "194324.617500", "194325.617500", "194326.617500", "194327.617500", "194328.617500", "194329.617500", "194330.617500", "194331.617500", "194332.617500", "194333.617500", "194334.617500", "194335.617500", "194336.617500", "194337.617500", "194338.617500", "194339.617500", "194340.617500", "194341.617500", "194342.617500", "194343.617500", "194344.617500", "194345.617500", "194346.617500", "194347.617500", "194348.617500", "194349.617500", "194350.617500", "194351.617500", "194352.617500", "194353.617500", "194354.617500", "194355.617500", "194356.617500", "194357.617500", "194358.617500", "194359.617500", "194400.617500", "194401.617500", "194402.617500", "194403.617500", "194404.617500", "194405.617500", "194406.617500", "194407.617500", "194408.617500", "194409.617500", "194410.617500", "194411.617500", "194412.617500", "194413.617500", "194414.617500", "194415.617500", "194416.617500", "194417.617500", "194418.617500", "194419.617500", "194420.617500", "194421.617500", "194422.617500", "194423.617500", "194424.617500", "194425.617500", "194426.617500", "194427.617500", "194428.617500", "194429.617500", "194430.617500", "194431.617500", "194432.617500", "194433.617500", "194434.617500", "194435.617500", "194436.617500", "194437.617500", "194438.617500", "194439.617500", "194440.617500", "194441.617500", "194442.617500", "194443.617500", "194444.617500", "194445.617500", "194446.617500", "194447.617500", "194448.617500", "194449.617500", "194450.617500", "194451.617500", "194452.617500", "194453.617500", "194454.617500", "194455.617500", "194456.617500", "194457.617500", "194458.617500", "194459.617500", "194500.617500", "194501.617500", "194502.617500", "194503.617500", "194504.617500", "194505.617500", "194506.617500", "194507.617500", "194508.617500", "194509.617500", "194510.617500", "194511.617500", "194512.617500", "194513.617500", "194514.617500", "194515.617500", "194516.617500", "194517.617500", "194518.617500", "194519.617500", "194520.617500", "194521.617500", "194522.617500", "194523.617500", "194524.617500", "194525.617500", "194526.617500", "194527.617500", "194528.617500", "194529.617500", "194530.617500", "194531.617500", "194532.617500", "194533.617500", "194534.617500", "194535.617500", "194536.617500", "194537.617500", "194538.617500", "194539.617500", "194540.617500", "194541.617500", "194542.617500", "194543.617500", "194544.617500", "194545.617500", "194546.617500", "194547.617500", "194548.617500", "194549.617500", "194550.617500", "194551.617500", "194552.617500", "194553.617500", "194554.617500", "194555.617500", "194556.617500", "194557.617500", "194558.617500", "194559.617500", "194600.617500", "194601.617500", "194602.617500", "194603.617500", "194604.617500", "194605.617500", "194606.617500", "194607.617500", "194608.617500", "194609.617500", "194610.617500", "194611.617500", "194612.617500", "194613.617500", "194614.617500", "194615.617500", "194616.617500", "194617.617500", "194618.617500", "194619.617500", "194620.617500", "194621.617500", "194622.617500", "194623.617500", "194624.617500", "194625.617500", "194626.617500", "194627.617500", "194628.617500", "194629.617500", "194630.617500", "194631.617500", "194632.617500", "194633.617500", "194634.617500", "194635.617500", "194636.617500", "194637.617500", "194638.617500", "194639.617500", "194640.617500", "194641.617500", "194642.617500", "194643.617500", "194644.617500", "194645.617500", "194646.617500", "194647.617500", "194648.617500", "194649.617500", "194650.617500", "194651.617500", "194652.617500", "194653.617500", "194654.617500", "194655.617500", "194656.617500", "194657.617500", "194658.617500", "194659.617500", "194700.617500", "194701.617500", "194702.617500", "194703.617500", "194704.617500", "194705.617500", "194706.617500", "194707.617500", "194708.617500", "194709.617500", "194710.617500", "194711.617500", "194712.617500", "194713.617500", "194714.617500", "194715.617500", "194716.617500", "194717.617500", "194718.617500", "194719.617500", "194720.617500", "194721.617500", "194722.617500", "194723.617500", "194724.617500", "194725.617500", "194726.617500", "194727.617500", "194728.617500", "194729.617500", "194730.617500", "194731.617500", "194732.617500", "194733.617500", "194734.617500", "194735.617500", "194736.617500", "194737.617500", "194738.617500", "194739.617500", "194740.617500", "194741.617500", "194742.617500", "194743.617500", "194744.617500", "194745.617500", "194746.617500", "194747.617500", "194748.617500", "194749.617500", "194750.617500", "194751.617500", "194752.617500", "194753.617500", "194754.617500", "194755.617500", "194756.617500", "194757.617500", "194758.617500", "194759.617500", "194800.617500", "194801.617500", "194802.617500", "194803.617500", "194804.617500", "194805.617500", "194806.617500", "194807.617500", "194808.617500", "194809.617500", "194810.617500", "194811.617500", "194812.617500", "194813.617500", "194814.617500", "194815.617500", "194816.617500", "194817.617500", "194818.617500"],
      "ContentTime": ["194251.725000", "194251.728000", "194251.731000", "194251.734000", "194251.736000", "194251.739000", "194251.741000", "194251.744000", "194251.746000", "194251.749000", "194251.751000", "194251.754000", "194251.756000", "194251.759000", "194251.761000", "194251.764000", "194251.766000", "194251.769000", "194251.771000", "194251.773000", "194251.776000", "194251.779000", "194251.781000", "194251.783000", "194251.786000", "194251.788000", "194251.797000", "194311.695000", "194311.698000", "194311.701000", "194311.703000", "194311.706000", "194311.708000", "194311.711000", "194311.713000", "194311.716000", "194311.718000", "194311.721000", "194311.725000", "194311.728000", "194311.730000", "194311.733000", "194311.735000", "194311.738000", "194311.740000", "194311.743000", "194311.745000", "194331.696000", "194331.698000", "194331.701000", "194331.703000", "194331.706000", "194331.708000", "194331.711000", "194331.713000", "194331.716000", "194331.718000", "194331.721000", "194331.723000", "194331.726000", "194331.728000", "194331.731000", "194331.733000", "194331.735000", "194331.738000", "194331.740000", "194331.746000", "194351.696000", "194351.698000", "194351.701000", "194351.703000", "194351.706000", "194351.708000", "194351.711000", "194351.713000", "194351.716000", "194351.718000", "194351.721000", "194351.723000", "194351.726000", "194351.728000", "194351.730000", "194351.733000", "194351.735000", "194351.738000", "194351.740000", "194351.743000", "194411.695000", "194411.698000", "194411.700000", "194411.703000", "194411.705000", "194411.708000", "194411.710000", "194411.713000", "194411.715000", "194411.718000", "194411.720000", "194411.723000", "194411.725000", "194411.728000", "194411.730000", "194411.733000", "194411.735000", "194411.738000", "194411.740000", "194411.743000", "194431.694000", "194431.697000", "194431.699000", "194431.702000", "194431.705000", "194431.707000", "194431.710000", "194431.712000", "194431.715000", "194431.717000", "194431.720000", "194431.722000", "194431.725000", "194431.727000", "194431.729000", "194431.732000", "194431.735000", "194431.737000", "194431.740000", "194431.742000", "194451.696000", "194451.698000", "194451.701000", "194451.703000", "194451.706000", "194451.708000", "194451.711000", "194451.713000", "194451.716000", "194451.718000", "194451.721000", "194451.723000", "194451.726000", "194451.728000", "194451.731000", "194451.733000", "194451.736000", "194451.738000", "194451.741000", "194451.743000", "194511.695000", "194511.698000", "194511.701000", "194511.703000", "194511.706000", "194511.708000", "194511.711000", "194511.713000", "194511.716000", "194511.719000", "194511.721000", "194511.724000", "194511.726000", "194511.729000", "194511.731000", "194511.734000", "194511.744000", "194511.747000", "194511.749000", "194511.752000", "194531.695000", "194531.698000", "194531.701000", "194531.703000", "194531.706000", "194531.708000", "194531.711000", "194531.713000", "194531.716000", "194531.718000", "194531.721000", "194531.723000", "194531.726000", "194531.728000", "194531.731000", "194531.733000", "194531.736000", "194531.749000", "194531.752000", "194531.754000", "194551.695000", "194551.698000", "194551.701000", "194551.703000", "194551.706000", "194551.708000", "194551.711000", "194551.713000", "194551.716000", "194551.718000", "194551.720000", "194551.723000", "194551.725000", "194551.728000", "194551.730000", "194551.733000", "194551.735000", "194551.738000", "194551.740000", "194551.743000", "194611.696000", "194611.698000", "194611.701000", "194611.703000", "194611.706000", "194611.708000", "194611.711000", "194611.713000", "194611.716000", "194611.719000", "194611.721000", "194611.724000", "194611.726000", "194611.729000", "194611.731000", "194611.734000", "194611.737000", "194611.739000", "194611.741000", "194611.744000", "194631.695000", "194631.698000", "194631.701000", "194631.703000", "194631.706000", "194631.708000", "194631.711000", "194631.713000", "194631.716000", "194631.718000", "194631.721000", "194631.723000", "194631.726000", "194631.728000", "194631.731000", "194631.733000", "194631.736000", "194631.738000", "194631.741000", "194631.743000", "194651.694000", "194651.697000", "194651.700000", "194651.702000", "194651.705000", "194651.707000", "194651.710000", "194651.712000", "194651.715000", "194651.717000", "194651.720000", "194651.722000", "194651.725000", "194651.727000", "194651.730000", "194651.732000", "194651.744000", "194651.746000", "194651.749000", "194651.751000", "194711.695000", "194711.698000", "194711.701000", "194711.703000", "194711.706000", "194711.708000", "194711.711000", "194711.713000", "194711.716000", "194711.719000", "194711.721000", "194711.724000", "194711.726000", "194711.729000", "194711.731000", "194711.734000", "194711.737000", "194711.739000", "194711.741000", "194711.744000", "194731.696000", "194731.698000", "194731.701000", "194731.703000", "194731.706000", "194731.709000", "194731.711000", "194731.714000", "194731.716000", "194731.719000", "194731.721000", "194731.724000", "194731.726000", "194731.729000", "194731.731000", "194731.734000", "194731.736000", "194731.739000", "194731.741000", "194731.744000", "194751.695000", "194751.698000", "194751.701000", "194751.703000", "194751.706000", "194751.708000", "194751.711000", "194751.713000", "194751.716000", "194751.718000", "194751.721000", "194751.723000", "194751.726000", "194751.728000", "194751.731000", "194751.733000", "194751.736000", "194751.738000", "194751.741000", "194751.743000", "194811.696000", "194811.698000", "194811.701000", "194811.703000", "194811.706000", "194811.708000", "194811.711000", "194811.713000", "194811.716000", "194811.718000", "194811.721000", "194811.723000", "194811.726000", "194811.728000", "194811.731000", "194811.733000", "194811.736000", "194811.738000", "194811.741000", "194811.743000", "194820.445000", "194820.448000", "194820.450000", "194820.453000", "194820.455000", "194820.458000", "194820.460000", "194820.463000", "194820.465000"],
      "InstanceCreationTime": ["194251.725000", "194251.728000", "194251.731000", "194251.734000", "194251.736000", "194251.739000", "194251.741000", "194251.744000", "194251.746000", "194251.749000", "194251.751000", "194251.754000", "194251.756000", "194251.759000", "194251.761000", "194251.764000", "194251.766000", "194251.769000", "194251.771000", "194251.773000", "194251.776000", "194251.779000", "194251.781000", "194251.783000", "194251.786000", "194251.788000", "194251.797000", "194311.695000", "194311.698000", "194311.701000", "194311.703000", "194311.706000", "194311.708000", "194311.711000", "194311.713000", "194311.716000", "194311.718000", "194311.721000", "194311.725000", "194311.728000", "194311.730000", "194311.733000", "194311.735000", "194311.738000", "194311.740000", "194311.743000", "194311.745000", "194331.696000", "194331.698000", "194331.701000", "194331.703000", "194331.706000", "194331.708000", "194331.711000", "194331.713000", "194331.716000", "194331.718000", "194331.721000", "194331.723000", "194331.726000", "194331.728000", "194331.731000", "194331.733000", "194331.735000", "194331.738000", "194331.740000", "194331.746000", "194351.696000", "194351.698000", "194351.701000", "194351.703000", "194351.706000", "194351.708000", "194351.711000", "194351.713000", "194351.716000", "194351.718000", "194351.721000", "194351.723000", "194351.726000", "194351.728000", "194351.730000", "194351.733000", "194351.735000", "194351.738000", "194351.740000", "194351.743000", "194411.695000", "194411.698000", "194411.700000", "194411.703000", "194411.705000", "194411.708000", "194411.710000", "194411.713000", "194411.715000", "194411.718000", "194411.720000", "194411.723000", "194411.725000", "194411.728000", "194411.730000", "194411.733000", "194411.735000", "194411.738000", "194411.740000", "194411.743000", "194431.694000", "194431.697000", "194431.699000", "194431.702000", "194431.705000", "194431.707000", "194431.710000", "194431.712000", "194431.715000", "194431.717000", "194431.720000", "194431.722000", "194431.725000", "194431.727000", "194431.729000", "194431.732000", "194431.735000", "194431.737000", "194431.740000", "194431.742000", "194451.696000", "194451.698000", "194451.701000", "194451.703000", "194451.706000", "194451.708000", "194451.711000", "194451.713000", "194451.716000", "194451.718000", "194451.721000", "194451.723000", "194451.726000", "194451.728000", "194451.731000", "194451.733000", "194451.736000", "194451.738000", "194451.741000", "194451.743000", "194511.695000", "194511.698000", "194511.701000", "194511.703000", "194511.706000", "194511.708000", "194511.711000", "194511.713000", "194511.716000", "194511.719000", "194511.721000", "194511.724000", "194511.726000", "194511.729000", "194511.731000", "194511.734000", "194511.744000", "194511.747000", "194511.749000", "194511.752000", "194531.695000", "194531.698000", "194531.701000", "194531.703000", "194531.706000", "194531.708000", "194531.711000", "194531.713000", "194531.716000", "194531.718000", "194531.721000", "194531.723000", "194531.726000", "194531.728000", "194531.731000", "194531.733000", "194531.736000", "194531.749000", "194531.752000", "194531.754000", "194551.695000", "194551.698000", "194551.701000", "194551.703000", "194551.706000", "194551.708000", "194551.711000", "194551.713000", "194551.716000", "194551.718000", "194551.720000", "194551.723000", "194551.725000", "194551.728000", "194551.730000", "194551.733000", "194551.735000", "194551.738000", "194551.740000", "194551.743000", "194611.696000", "194611.698000", "194611.701000", "194611.703000", "194611.706000", "194611.708000", "194611.711000", "194611.713000", "194611.716000", "194611.719000", "194611.721000", "194611.724000", "194611.726000", "194611.729000", "194611.731000", "194611.734000", "194611.737000", "194611.739000", "194611.741000", "194611.744000", "194631.695000", "194631.698000", "194631.701000", "194631.703000", "194631.706000", "194631.708000", "194631.711000", "194631.713000", "194631.716000", "194631.718000", "194631.721000", "194631.723000", "194631.726000", "194631.728000", "194631.731000", "194631.733000", "194631.736000", "194631.738000", "194631.741000", "194631.743000", "194651.694000", "194651.697000", "194651.700000", "194651.702000", "194651.705000", "194651.707000", "194651.710000", "194651.712000", "194651.715000", "194651.717000", "194651.720000", "194651.722000", "194651.725000", "194651.727000", "194651.730000", "194651.732000", "194651.744000", "194651.746000", "194651.749000", "194651.751000", "194711.695000", "194711.698000", "194711.701000", "194711.703000", "194711.706000", "194711.708000", "194711.711000", "194711.713000", "194711.716000", "194711.719000", "194711.721000", "194711.724000", "194711.726000", "194711.729000", "194711.731000", "194711.734000", "194711.737000", "194711.739000", "194711.741000", "194711.744000", "194731.696000", "194731.698000", "194731.701000", "194731.703000", "194731.706000", "194731.709000", "194731.711000", "194731.714000", "194731.716000", "194731.719000", "194731.721000", "194731.724000", "194731.726000", "194731.729000", "194731.731000", "194731.734000", "194731.736000", "194731.739000", "194731.741000", "194731.744000", "194751.695000", "194751.698000", "194751.701000", "194751.703000", "194751.706000", "194751.708000", "194751.711000", "194751.713000", "194751.716000", "194751.718000", "194751.721000", "194751.723000", "194751.726000", "194751.728000", "194751.731000", "194751.733000", "194751.736000", "194751.738000", "194751.741000", "194751.743000", "194811.696000", "194811.698000", "194811.701000", "194811.703000", "194811.706000", "194811.708000", "194811.711000", "194811.713000", "194811.716000", "194811.718000", "194811.721000", "194811.723000", "194811.726000", "194811.728000", "194811.731000", "194811.733000", "194811.736000", "194811.738000", "194811.741000", "194811.743000", "194820.445000", "194820.448000", "194820.450000", "194820.453000", "194820.455000", "194820.458000", "194820.460000", "194820.463000", "194820.465000"],
      "InstanceNumber": [1, 2, 3, 4, 5, 6, 7, 8, 9, 10, 11, 12, 13, 14, 15, 16, 17, 18, 19, 20, 21, 22, 23, 24, 25, 26, 27, 28, 29, 30, 31, 32, 33, 34, 35, 36, 37, 38, 39, 40, 41, 42, 43, 44, 45, 46, 47, 48, 49, 50, 51, 52, 53, 54, 55, 56, 57, 58, 59, 60, 61, 62, 63, 64, 65, 66, 67, 68, 69, 70, 71, 72, 73, 74, 75, 76, 77, 78, 79, 80, 81, 82, 83, 84, 85, 86, 87, 88, 89, 90, 91, 92, 93, 94, 95, 96, 97, 98, 99, 100, 101, 102, 103, 104, 105, 106, 107, 108, 109, 110, 111, 112, 113, 114, 115, 116, 117, 118, 119, 120, 121, 122, 123, 124, 125, 126, 127, 128, 129, 130, 131, 132, 133, 134, 135, 136, 137, 138, 139, 140, 141, 142, 143, 144, 145, 146, 147, 148, 149, 150, 151, 152, 153, 154, 155, 156, 157, 158, 159, 160, 161, 162, 163, 164, 165, 166, 167, 168, 169, 170, 171, 172, 173, 174, 175, 176, 177, 178, 179, 180, 181, 182, 183, 184, 185, 186, 187, 188, 189, 190, 191, 192, 193, 194, 195, 196, 197, 198, 199, 200, 201, 202, 203, 204, 205, 206, 207, 208, 209, 210, 211, 212, 213, 214, 215, 216, 217, 218, 219, 220, 221, 222, 223, 224, 225, 226, 227, 228, 229, 230, 231, 232, 233, 234, 235, 236, 237, 238, 239, 240, 241, 242, 243, 244, 245, 246, 247, 248, 249, 250, 251, 252, 253, 254, 255, 256, 257, 258, 259, 260, 261, 262, 263, 264, 265, 266, 267, 268, 269, 270, 271, 272, 273, 274, 275, 276, 277, 278, 279, 280, 281, 282, 283, 284, 285, 286, 287, 288, 289, 290, 291, 292, 293, 294, 295, 296, 297, 298, 299, 300, 301, 302, 303, 304, 305, 306, 307, 308, 309, 310, 311, 312, 313, 314, 315, 316, 317, 318, 319, 320, 321, 322, 323, 324, 325, 326, 327, 328, 329, 330, 331, 332, 333, 334, 335, 336, 337, 338, 339, 340, 341, 342, 343, 344, 345, 346, 347, 348, 349, 350, 351, 352, 353, 354, 355, 356],
      "LargestImagePixelValue": [11695, 11437, 11523, 11387, 11110, 11160, 11107, 11081, 11231, 11170, 11144, 11219, 11208, 11353, 10946, 11143, 11216, 11086, 11176, 11149, 11168, 11091, 11128, 10892, 11230, 11163, 11247, 11184, 11115, 11085, 11044, 11209, 11149, 11107, 11125, 11129, 11079, 11077, 11151, 11265, 11163, 10986, 11163, 11182, 10977, 11116, 11100, 11020, 11163, 11131, 11134, 11181, 11253, 11163, 11132, 11068, 11138, 11046, 11039, 11199, 11143, 11207, 11239, 11064, 11153, 11153, 11064, 11206, 11053, 11075, 11101, 11107, 11200, 11194, 11073, 10996, 10949, 11074, 11138, 11057, 11283, 11165, 11066, 11107, 11049, 11128, 11253, 11280, 11015, 10975, 11023, 11132, 11152, 11286, 11178, 11081, 11105, 11035, 11138, 11111, 11119, 10969, 11318, 11089, 11041, 11117, 11186, 11101, 11112, 11208, 11059, 11264, 11214, 11111, 11225, 11130, 11105, 11171, 11150, 11173, 11192, 11249, 11199, 11101, 11039, 11092, 11167, 11106, 11125, 11177, 11143, 11119, 11205, 11066, 11078, 11145, 11009, 11064, 11189, 11151, 11023, 11233, 11111, 11115, 11202, 11165, 11137, 11140, 11212, 11214, 11172, 11039, 11197, 11229, 11136, 11341, 11191, 11186, 11405, 11273, 11266, 11302, 11360, 11218, 11241, 11122, 11151, 11163, 11208, 11200, 11213, 11226, 11211, 11375, 11436, 11285, 11227, 11295, 11353, 11177, 11140, 11095, 11214, 11171, 11216, 11266, 11166, 11396, 11342, 11284, 11275, 11176, 11099, 11030, 11264, 11247, 11154, 11153, 11339, 11225, 11221, 11211, 11208, 11096, 11110, 11342, 11286, 11202, 11296, 11198, 11278, 11173, 11111, 11136, 11182, 11240, 11169, 11116, 11309, 11223, 11264, 11274, 11223, 11268, 11284, 11305, 11223, 11290, 11147, 11354, 11230, 11218, 11221, 11228, 11208, 11231, 11300, 11385, 11259, 11238, 11217, 11300, 11209, 11187, 11550, 11470, 11467, 11364, 11482, 11430, 11313, 11560, 11360, 11333, 11375, 11343, 11293, 11293, 11342, 11338, 11514, 11274, 11674, 11485, 11391, 11355, 11528, 11503, 11563, 11442, 11679, 11440, 11483, 11546, 11674, 11574, 11642, 11569, 11611, 11738, 11751, 11658, 11724, 11589, 11572, 11517, 11665, 11699, 11596, 11694, 11717, 11732, 11720, 11724, 11839, 11579, 11848, 11755, 11623, 11554, 11610, 11633, 11515, 11667, 11681, 11558, 11601, 11661, 11546, 11748, 11802, 11655, 11639, 11630, 11539, 11745, 11609, 11621, 11527, 11556, 11582, 11697, 11533, 11627, 11588, 11627, 11535, 11541, 11504, 11527, 11566, 11580, 11428, 11564, 11464, 11489, 11522, 11511, 11476, 11322, 11269, 11380, 11617, 11639, 11603, 11745, 11706, 11758, 11731, 11656, 11545, 11669, 11790, 11726, 11634, 11766],
