{
  "AcquisitionMatrixPE": 106,
  "AcquisitionNumber": 1,
  "AcquisitionTime": "19:12:7.070000",
  "BandwidthPerPixelPhaseEncode": 13.477,
  "BaseResolution": 106,
  "BodyPartExamined": "BRAIN",
  "CoilCombinationMethod": "Sum of Squares",
  "ConsistencyInfo": "N4_VE11C_LATEST_20160120",
  "ConversionSoftware": "dcm2niix",
  "ConversionSoftwareVersion": "v1.0.20220720",
  "DerivedVendorReportedEchoSpacing": 0.000700005,
  "DeviceSerialNumber": "166108",
  "DwellTime": 2.6e-06,
  "EchoTime": 0.03,
  "EchoTrainLength": 80,
  "EffectiveEchoSpacing": 0.000700005,
  "FlipAngle": 62,
  "HeudiconvVersion": "1.3.0",
  "ImageComments": "Unaliased MB4/PE3/LB",
  "ImageOrientationPatientDICOM": [1, 0, 0, 0, 0.987136, -0.159881],
  "ImageOrientationText": "Tra>Cor(-9.2)",
  "ImageType": [
    "ORIGINAL",
    "PRIMARY",
    "M",
    "MB",
    "ND",
    "MOSAIC"
],
  "ImagingFrequency": 123.244,
  "InPlanePhaseEncodingDirectionDICOM": "COL",
  "InstitutionAddress": "Bedford Way 26,London,London,GB,WC1H 0AP",
  "InstitutionName": "University College",
  "InstitutionalDepartmentName": "Department",
  "MRAcquisitionType": "2D",
  "MagneticFieldStrength": 3,
  "Manufacturer": "Siemens",
  "ManufacturersModelName": "Prisma",
  "MatrixCoilMode": "SENSE",
  "Modality": "MR",
  "MultibandAccelerationFactor": 4,
  "NonlinearGradientCorrection": false,
  "PartialFourier": 0.75,
  "PatientPosition": "HFS",
  "PercentPhaseFOV": 100,
  "PercentSampling": 100,
  "PhaseEncodingDirection": "j-",
  "PhaseEncodingSteps": 80,
  "PhaseResolution": 1,
  "PixelBandwidth": 1815,
  "ProcedureStepDescription": "Egor^MovieProject2",
  "ProtocolName": "func-bold_task-motor_run-01",
  "PulseSequenceDetails": "%CustomerSeq%\\cmrr_mbep2d_bold",
  "ReceiveCoilActiveElements": "HEA;HEP",
  "ReceiveCoilName": "Head_32",
  "ReconMatrixPE": 106,
  "RepetitionTime": 1,
  "SAR": 0.040216,
  "ScanOptions": "PFP\\FS\\EXT",
  "ScanningSequence": "EP",
  "SequenceName": "epfid2d1_106",
  "SequenceVariant": "SK\\SS",
  "SeriesDescription": "func-bold_task-motor_run-01",
  "SeriesNumber": 6,
  "ShimSetting": [-1499, 638, 7370, 103, -7, 170, 21, -69],
  "SliceThickness": 2,
  "SliceTiming": [0, 0.535, 0.09, 0.6225, 0.1775, 0.7125, 0.2675, 0.8025, 0.355, 0.89, 0.445, 0, 0.535, 0.09, 0.6225, 0.1775, 0.7125, 0.2675, 0.8025, 0.355, 0.89, 0.445, 0, 0.535, 0.09, 0.6225, 0.1775, 0.7125, 0.2675, 0.8025, 0.355, 0.89, 0.445, 0, 0.535, 0.09, 0.6225, 0.1775, 0.7125, 0.2675, 0.8025, 0.355, 0.89, 0.445],
  "SoftwareVersions": "syngo MR E11",
  "SpacingBetweenSlices": 2,
  "StationName": "AWP166108",
  "TaskName": "somatotopy",
  "TotalReadoutTime": 0.0735005,
  "TxRefAmp": 247.301,
  "WipMemBlock": "90497f63-91bb-41d2-a869-9fc6681663cc||Sequence: R016 ve11c/master r/e634e98; Dec 19 2017 11:00:25 by eja",
  "dcmmeta_affine": [
    [-2.0, 0.0, 0.0, 106.0],
    [0.0, 1.9742724895477295, -0.31976237893104553, -97.70074462890625],
    [0.0, 0.31976237893104553, 1.9742724895477295, -9.397977828979492],
    [0.0, 0.0, 0.0, 1.0]
],
  "dcmmeta_reorient_transform": [
    [0.0, -1.0, 0.0, 105.0],
    [1.0, 0.0, 0.0, 0.0],
    [0.0, 0.0, 1.0, 0.0],
    [0.0, 0.0, 0.0, 1.0]
],
  "dcmmeta_shape": [106, 106, 44, 467],
  "dcmmeta_slice_dim": 2,
  "dcmmeta_version": 0.6,
  "global": {
    "const": {
      "AcquisitionMatrix": [106, 0, 0, 106],
      "AngioFlag": "N",
      "BitsAllocated": 16,
      "BitsStored": 16,
      "BodyPartExamined": "BRAIN",
      "CardiacNumberOfImages": 1,
      "Columns": 742,
      "EchoNumbers": 1,
      "EchoTime": 30.0,
      "EchoTrainLength": 80,
      "FlipAngle": 62.0,
      "HighBit": 15,
      "ImageOrientationPatient": [1.0, 0.0, 0.0, 0.0, 0.98713626451576, -0.1598811911322],
      "ImagePositionPatient": [-742.0, -737.41653643613, 125.86150957636],
      "ImageType": [
        "ORIGINAL",
        "PRIMARY",
        "M",
        "MB",
        "ND",
        "MOSAIC"
],
      "ImagedNucleus": "1H",
      "ImagingFrequency": 123.243638,
      "InPlanePhaseEncodingDirection": "COL",
      "MRAcquisitionType": "2D",
      "MagneticFieldStrength": 3.0,
      "Manufacturer": "SIEMENS",
      "ManufacturerModelName": "Prisma",
      "Modality": "MR",
      "NominalInterval": 0,
      "NumberOfAverages": 1.0,
      "NumberOfPhaseEncodingSteps": 80,
      "PercentPhaseFieldOfView": 100.0,
      "PercentSampling": 100.0,
      "PerformedProcedureStepStartTime": "183831.058000",
      "PhotometricInterpretation": "MONOCHROME2",
      "PixelBandwidth": 1815.0,
      "PixelRepresentation": 0,
      "PixelSpacing": [2.0, 2.0],
      "ProtocolName": "func-bold_task-motor_run-01",
      "RepetitionTime": 1000.0,
      "Rows": 742,
      "SAR": 0.04021602529608,
      "SamplesPerPixel": 1,
      "ScanOptions": [
        "PFP",
        "FS",
        "EXT"
],
      "ScanningSequence": "EP",
      "SequenceName": "epfid2d1_106",
      "SequenceVariant": [
        "SK",
        "SS"
],
      "SeriesDescription": "func-bold_task-motor_run-01",
      "SeriesNumber": 6,
      "SeriesTime": "191243.150000",
      "SliceLocation": 6.3434262034911,
      "SliceThickness": 2.0,
      "SmallestImagePixelValue": 0,
      "SoftwareVersions": "syngo MR E11",
      "SpacingBetweenSlices": 1.9999999542422,
      "SpecificCharacterSet": "ISO_IR 100",
      "StudyID": "1",
      "StudyTime": "183830.993000",
      "TransmitCoilName": "Body",
      "VariableFlipAngleFlag": "N",
      "WindowCenterWidthExplanation": "Algo1",
      "dBdt": 0.0},
    "slices": {}
  },
  "time": {
    "samples": {
      "AcquisitionNumber": [1, 2, 3, 4, 5, 6, 7, 8, 9, 10, 11, 12, 13, 14, 15, 16, 17, 18, 19, 20, 21, 22, 23, 24, 25, 26, 27, 28, 29, 30, 31, 32, 33, 34, 35, 36, 37, 38, 39, 40, 41, 42, 43, 44, 45, 46, 47, 48, 49, 50, 51, 52, 53, 54, 55, 56, 57, 58, 59, 60, 61, 62, 63, 64, 65, 66, 67, 68, 69, 70, 71, 72, 73, 74, 75, 76, 77, 78, 79, 80, 81, 82, 83, 84, 85, 86, 87, 88, 89, 90, 91, 92, 93, 94, 95, 96, 97, 98, 99, 100, 101, 102, 103, 104, 105, 106, 107, 108, 109, 110, 111, 112, 113, 114, 115, 116, 117, 118, 119, 120, 121, 122, 123, 124, 125, 126, 127, 128, 129, 130, 131, 132, 133, 134, 135, 136, 137, 138, 139, 140, 141, 142, 143, 144, 145, 146, 147, 148, 149, 150, 151, 152, 153, 154, 155, 156, 157, 158, 159, 160, 161, 162, 163, 164, 165, 166, 167, 168, 169, 170, 171, 172, 173, 174, 175, 176, 177, 178, 179, 180, 181, 182, 183, 184, 185, 186, 187, 188, 189, 190, 191, 192, 193, 194, 195, 196, 197, 198, 199, 200, 201, 202, 203, 204, 205, 206, 207, 208, 209, 210, 211, 212, 213, 214, 215, 216, 217, 218, 219, 220, 221, 222, 223, 224, 225, 226, 227, 228, 229, 230, 231, 232, 233, 234, 235, 236, 237, 238, 239, 240, 241, 242, 243, 244, 245, 246, 247, 248, 249, 250, 251, 252, 253, 254, 255, 256, 257, 258, 259, 260, 261, 262, 263, 264, 265, 266, 267, 268, 269, 270, 271, 272, 273, 274, 275, 276, 277, 278, 279, 280, 281, 282, 283, 284, 285, 286, 287, 288, 289, 290, 291, 292, 293, 294, 295, 296, 297, 298, 299, 300, 301, 302, 303, 304, 305, 306, 307, 308, 309, 310, 311, 312, 313, 314, 315, 316, 317, 318, 319, 320, 321, 322, 323, 324, 325, 326, 327, 328, 329, 330, 331, 332, 333, 334, 335, 336, 337, 338, 339, 340, 341, 342, 343, 344, 345, 346, 347, 348, 349, 350, 351, 352, 353, 354, 355, 356, 357, 358, 359, 360, 361, 362, 363, 364, 365, 366, 367, 368, 369, 370, 371, 372, 373, 374, 375, 376, 377, 378, 379, 380, 381, 382, 383, 384, 385, 386, 387, 388, 389, 390, 391, 392, 393, 394, 395, 396, 397, 398, 399, 400, 401, 402, 403, 404, 405, 406, 407, 408, 409, 410, 411, 412, 413, 414, 415, 416, 417, 418, 419, 420, 421, 422, 423, 424, 425, 426, 427, 428, 429, 430, 431, 432, 433, 434, 435, 436, 437, 438, 439, 440, 441, 442, 443, 444, 445, 446, 447, 448, 449, 450, 451, 452, 453, 454, 455, 456, 457, 458, 459, 460, 461, 462, 463, 464, 465, 466, 467],
      "AcquisitionTime": ["191207.070000", "191208.070000", "191209.070000", "191210.070000", "191211.070000", "191212.070000", "191213.070000", "191214.070000", "191215.070000", "191216.070000", "191217.070000", "191218.070000", "191219.070000", "191220.070000", "191221.070000", "191222.070000", "191223.070000", "191224.070000", "191225.070000", "191226.070000", "191227.070000", "191228.070000", "191229.070000", "191230.070000", "191231.070000", "191232.070000", "191233.070000", "191234.070000", "191235.070000", "191236.070000", "191237.070000", "191238.070000", "191239.070000", "191240.070000", "191241.070000", "191242.070000", "191243.070000", "191244.070000", "191245.070000", "191246.070000", "191247.070000", "191248.070000", "191249.070000", "191250.070000", "191251.070000", "191252.070000", "191253.070000", "191254.070000", "191255.070000", "191256.070000", "191257.070000", "191258.070000", "191259.070000", "191300.070000", "191301.070000", "191302.070000", "191303.070000", "191304.070000", "191305.070000", "191306.070000", "191307.070000", "191308.070000", "191309.070000", "191310.070000", "191311.070000", "191312.070000", "191313.070000", "191314.070000", "191315.070000", "191316.070000", "191317.070000", "191318.070000", "191319.070000", "191320.070000", "191321.070000", "191322.070000", "191323.070000", "191324.070000", "191325.070000", "191326.070000", "191327.070000", "191328.070000", "191329.070000", "191330.070000", "191331.070000", "191332.070000", "191333.070000", "191334.070000", "191335.070000", "191336.070000", "191337.070000", "191338.070000", "191339.070000", "191340.070000", "191341.070000", "191342.070000", "191343.070000", "191344.070000", "191345.070000", "191346.070000", "191347.070000", "191348.070000", "191349.070000", "191350.070000", "191351.070000", "191352.070000", "191353.070000", "191354.070000", "191355.070000", "191356.070000", "191357.070000", "191358.070000", "191359.070000", "191400.070000", "191401.070000", "191402.070000", "191403.070000", "191404.070000", "191405.070000", "191406.070000", "191407.070000", "191408.070000", "191409.070000", "191410.070000", "191411.070000", "191412.070000", "191413.070000", "191414.070000", "191415.070000", "191416.070000", "191417.070000", "191418.070000", "191419.070000", "191420.070000", "191421.070000", "191422.070000", "191423.070000", "191424.070000", "191425.070000", "191426.070000", "191427.070000", "191428.070000", "191429.070000", "191430.070000", "191431.070000", "191432.070000", "191433.070000", "191434.070000", "191435.070000", "191436.070000", "191437.070000", "191438.070000", "191439.070000", "191440.070000", "191441.070000", "191442.070000", "191443.070000", "191444.070000", "191445.070000", "191446.070000", "191447.070000", "191448.070000", "191449.070000", "191450.070000", "191451.070000", "191452.070000", "191453.070000", "191454.070000", "191455.070000", "191456.070000", "191457.070000", "191458.070000", "191459.070000", "191500.070000", "191501.070000", "191502.070000", "191503.070000", "191504.070000", "191505.070000", "191506.070000", "191507.070000", "191508.070000", "191509.070000", "191510.070000", "191511.070000", "191512.070000", "191513.070000", "191514.070000", "191515.070000", "191516.070000", "191517.070000", "191518.070000", "191519.070000", "191520.070000", "191521.070000", "191522.070000", "191523.070000", "191524.070000", "191525.070000", "191526.070000", "191527.070000", "191528.070000", "191529.070000", "191530.070000", "191531.070000", "191532.070000", "191533.070000", "191534.070000", "191535.070000", "191536.070000", "191537.070000", "191538.070000", "191539.070000", "191540.070000", "191541.070000", "191542.070000", "191543.070000", "191544.070000", "191545.070000", "191546.070000", "191547.070000", "191548.070000", "191549.070000", "191550.070000", "191551.070000", "191552.070000", "191553.070000", "191554.070000", "191555.070000", "191556.070000", "191557.070000", "191558.070000", "191559.070000", "191600.070000", "191601.070000", "191602.070000", "191603.070000", "191604.070000", "191605.070000", "191606.070000", "191607.070000", "191608.070000", "191609.070000", "191610.070000", "191611.070000", "191612.070000", "191613.070000", "191614.070000", "191615.070000", "191616.070000", "191617.070000", "191618.070000", "191619.070000", "191620.070000", "191621.070000", "191622.070000", "191623.070000", "191624.070000", "191625.070000", "191626.070000", "191627.070000", "191628.070000", "191629.070000", "191630.070000", "191631.070000", "191632.070000", "191633.070000", "191634.070000", "191635.070000", "191636.070000", "191637.070000", "191638.070000", "191639.070000", "191640.070000", "191641.070000", "191642.070000", "191643.070000", "191644.070000", "191645.070000", "191646.070000", "191647.070000", "191648.070000", "191649.070000", "191650.070000", "191651.070000", "191652.070000", "191653.070000", "191654.070000", "191655.070000", "191656.070000", "191657.070000", "191658.070000", "191659.070000", "191700.070000", "191701.070000", "191702.070000", "191703.070000", "191704.070000", "191705.070000", "191706.070000", "191707.070000", "191708.070000", "191709.070000", "191710.070000", "191711.070000", "191712.070000", "191713.070000", "191714.070000", "191715.070000", "191716.070000", "191717.070000", "191718.070000", "191719.070000", "191720.070000", "191721.070000", "191722.070000", "191723.070000", "191724.070000", "191725.070000", "191726.070000", "191727.070000", "191728.070000", "191729.070000", "191730.070000", "191731.070000", "191732.070000", "191733.070000", "191734.070000", "191735.070000", "191736.070000", "191737.070000", "191738.070000", "191739.070000", "191740.070000", "191741.070000", "191742.070000", "191743.070000", "191744.070000", "191745.070000", "191746.070000", "191747.070000", "191748.070000", "191749.070000", "191750.070000", "191751.070000", "191752.070000", "191753.070000", "191754.070000", "191755.070000", "191756.070000", "191757.070000", "191758.070000", "191759.070000", "191800.070000", "191801.070000", "191802.070000", "191803.070000", "191804.070000", "191805.070000", "191806.070000", "191807.070000", "191808.070000", "191809.070000", "191810.070000", "191811.070000", "191812.070000", "191813.070000", "191814.070000", "191815.070000", "191816.070000", "191817.070000", "191818.070000", "191819.070000", "191820.070000", "191821.070000", "191822.070000", "191823.070000", "191824.070000", "191825.070000", "191826.070000", "191827.070000", "191828.070000", "191829.070000", "191830.070000", "191831.070000", "191832.070000", "191833.070000", "191834.070000", "191835.070000", "191836.070000", "191837.070000", "191838.070000", "191839.070000", "191840.070000", "191841.070000", "191842.070000", "191843.070000", "191844.070000", "191845.070000", "191846.070000", "191847.070000", "191848.070000", "191849.070000", "191850.070000", "191851.070000", "191852.070000", "191853.070000", "191854.070000", "191855.070000", "191856.070000", "191857.070000", "191858.070000", "191859.070000", "191900.070000", "191901.070000", "191902.070000", "191903.070000", "191904.070000", "191905.070000", "191906.070000", "191907.070000", "191908.070000", "191909.070000", "191910.070000", "191911.070000", "191912.070000", "191913.070000", "191914.070000", "191915.070000", "191916.070000", "191917.070000", "191918.070000", "191919.070000", "191920.070000", "191921.070000", "191922.070000", "191923.070000", "191924.070000", "191925.070000", "191926.070000", "191927.070000", "191928.070000", "191929.070000", "191930.070000", "191931.070000", "191932.070000", "191933.070000", "191934.070000", "191935.070000", "191936.070000", "191937.070000", "191938.070000", "191939.070000", "191940.070000", "191941.070000", "191942.070000", "191943.070000", "191944.070000", "191945.070000", "191946.070000", "191947.070000", "191948.070000", "191949.070000", "191950.070000", "191951.070000", "191952.070000", "191953.070000"],
      "ContentTime": ["191243.152000", "191243.155000", "191243.158000", "191243.160000", "191243.166000", "191243.168000", "191243.171000", "191243.173000", "191243.176000", "191243.178000", "191243.181000", "191243.183000", "191243.186000", "191243.188000", "191243.191000", "191243.193000", "191243.196000", "191243.198000", "191243.201000", "191243.203000", "191243.206000", "191243.208000", "191243.211000", "191243.213000", "191243.216000", "191243.218000", "191243.221000", "191243.223000", "191243.225000", "191243.228000", "191243.230000", "191243.237000", "191243.240000", "191243.242000", "191243.245000", "191303.116000", "191303.119000", "191303.121000", "191303.124000", "191303.126000", "191303.129000", "191303.131000", "191303.133000", "191303.136000", "191303.139000", "191303.141000", "191303.143000", "191303.146000", "191303.148000", "191303.151000", "191303.153000", "191303.156000", "191303.158000", "191303.160000", "191303.163000", "191323.117000", "191323.120000", "191323.122000", "191323.125000", "191323.127000", "191323.130000", "191323.132000", "191323.134000", "191323.137000", "191323.139000", "191323.142000", "191323.144000", "191323.147000", "191323.149000", "191323.151000", "191323.154000", "191323.156000", "191323.159000", "191323.161000", "191323.164000", "191343.117000", "191343.120000", "191343.122000", "191343.125000", "191343.127000", "191343.130000", "191343.132000", "191343.134000", "191343.137000", "191343.139000", "191343.142000", "191343.144000", "191343.146000", "191343.149000", "191343.151000", "191343.154000", "191343.156000", "191343.158000", "191343.161000", "191343.163000", "191403.116000", "191403.119000", "191403.122000", "191403.124000", "191403.126000", "191403.129000", "191403.131000", "191403.134000", "191403.136000", "191403.138000", "191403.141000", "191403.143000", "191403.146000", "191403.148000", "191403.151000", "191403.153000", "191403.161000", "191403.164000", "191403.166000", "191403.169000", "191423.116000", "191423.119000", "191423.121000", "191423.124000", "191423.126000", "191423.129000", "191423.131000", "191423.134000", "191423.136000", "191423.138000", "191423.141000", "191423.143000", "191423.146000", "191423.148000", "191423.150000", "191423.153000", "191423.155000", "191423.163000", "191423.165000", "191423.168000", "191443.116000", "191443.119000", "191443.121000", "191443.124000", "191443.126000", "191443.129000", "191443.131000", "191443.134000", "191443.136000", "191443.139000", "191443.141000", "191443.143000", "191443.146000", "191443.148000", "191443.151000", "191443.153000", "191443.156000", "191443.158000", "191443.160000", "191443.163000", "191503.116000", "191503.119000", "191503.121000", "191503.124000", "191503.126000", "191503.129000", "191503.131000", "191503.134000", "191503.154000", "191503.162000", "191503.164000", "191503.167000", "191503.169000", "191503.172000", "191503.174000", "191503.176000", "191503.179000", "191503.181000", "191503.184000", "191503.186000", "191523.116000", "191523.119000", "191523.121000", "191523.124000", "191523.126000", "191523.129000", "191523.131000", "191523.133000", "191523.136000", "191523.138000", "191523.141000", "191523.143000", "191523.146000", "191523.148000", "191523.151000", "191523.153000", "191523.156000", "191523.158000", "191523.160000", "191523.163000", "191543.117000", "191543.120000", "191543.123000", "191543.125000", "191543.127000", "191543.130000", "191543.132000", "191543.135000", "191543.137000", "191543.140000", "191543.142000", "191543.145000", "191543.147000", "191543.150000", "191543.152000", "191543.155000", "191543.157000", "191543.159000", "191543.162000", "191543.164000", "191603.118000", "191603.120000", "191603.123000", "191603.125000", "191603.127000", "191603.130000", "191603.132000", "191603.135000", "191603.137000", "191603.140000", "191603.142000", "191603.144000", "191603.147000", "191603.150000", "191603.152000", "191603.155000", "191603.157000", "191603.160000", "191603.162000", "191603.164000", "191623.116000", "191623.119000", "191623.121000", "191623.124000", "191623.126000", "191623.129000", "191623.131000", "191623.134000", "191623.136000", "191623.138000", "191623.141000", "191623.143000", "191623.146000", "191623.148000", "191623.151000", "191623.153000", "191623.156000", "191623.158000", "191623.160000", "191623.163000", "191643.116000", "191643.119000", "191643.121000", "191643.124000", "191643.126000", "191643.129000", "191643.131000", "191643.133000", "191643.136000", "191643.138000", "191643.141000", "191643.143000", "191643.146000", "191643.148000", "191643.150000", "191643.153000", "191643.155000", "191643.158000", "191643.160000", "191643.163000", "191703.116000", "191703.119000", "191703.121000", "191703.124000", "191703.126000", "191703.129000", "191703.131000", "191703.134000", "191703.136000", "191703.139000", "191703.141000", "191703.144000", "191703.146000", "191703.148000", "191703.151000", "191703.153000", "191703.156000", "191703.158000", "191703.161000", "191703.163000", "191723.116000", "191723.119000", "191723.121000", "191723.124000", "191723.126000", "191723.129000", "191723.131000", "191723.133000", "191723.136000", "191723.138000", "191723.141000", "191723.143000", "191723.146000", "191723.148000", "191723.150000", "191723.153000", "191723.155000", "191723.158000", "191723.160000", "191723.163000", "191743.117000", "191743.119000", "191743.122000", "191743.124000", "191743.127000", "191743.129000", "191743.131000", "191743.134000", "191743.136000", "191743.139000", "191743.141000", "191743.143000", "191743.146000", "191743.148000", "191743.151000", "191743.153000", "191743.156000", "191743.158000", "191743.161000", "191743.163000", "191803.118000", "191803.120000", "191803.123000", "191803.125000", "191803.127000", "191803.130000", "191803.132000", "191803.135000", "191803.137000", "191803.140000", "191803.142000", "191803.145000", "191803.147000", "191803.150000", "191803.152000", "191803.154000", "191803.157000", "191803.159000", "191803.162000", "191803.164000", "191823.117000", "191823.120000", "191823.122000", "191823.125000", "191823.127000", "191823.130000", "191823.132000", "191823.135000", "191823.137000", "191823.140000", "191823.142000", "191823.145000", "191823.147000", "191823.149000", "191823.152000", "191823.154000", "191823.157000", "191823.159000", "191823.162000", "191823.164000", "191843.116000", "191843.119000", "191843.136000", "191843.138000", "191843.141000", "191843.143000", "191843.146000", "191843.148000", "191843.151000", "191843.153000", "191843.156000", "191843.158000", "191843.160000", "191843.169000", "191843.172000", "191843.174000", "191843.176000", "191843.179000", "191843.181000", "191843.184000", "191903.116000", "191903.119000", "191903.121000", "191903.124000", "191903.126000", "191903.129000", "191903.131000", "191903.134000", "191903.136000", "191903.138000", "191903.141000", "191903.143000", "191903.146000", "191903.148000", "191903.151000", "191903.153000", "191903.156000", "191903.158000", "191903.161000", "191903.163000", "191923.116000", "191923.119000", "191923.121000", "191923.124000", "191923.126000", "191923.129000", "191923.131000", "191923.134000", "191923.136000", "191923.138000", "191923.141000", "191923.143000", "191923.146000", "191923.148000", "191923.151000", "191923.153000", "191923.156000", "191923.158000", "191923.161000", "191923.163000", "191943.116000", "191943.119000", "191943.122000", "191943.124000", "191943.126000", "191943.129000", "191943.131000", "191943.134000", "191943.136000", "191943.139000", "191943.141000", "191943.144000", "191943.146000", "191943.149000", "191943.151000", "191943.154000", "191943.156000", "191943.159000", "191943.161000", "191943.164000", "191954.303000", "191954.306000", "191954.308000", "191954.311000", "191954.313000", "191954.316000", "191954.318000", "191954.321000", "191954.323000", "191954.326000", "191954.329000", "191954.331000"],
