{
  "AcquisitionMatrixPE": 106,
  "AcquisitionNumber": 1,
  "AcquisitionTime": "19:58:40.780000",
  "BandwidthPerPixelPhaseEncode": 13.477,
  "BaseResolution": 106,
  "BodyPartExamined": "BRAIN",
  "CoilCombinationMethod": "Sum of Squares",
  "ConsistencyInfo": "N4_VE11C_LATEST_20160120",
  "ConversionSoftware": "dcm2niix",
  "ConversionSoftwareVersion": "v1.0.20220720",
  "DerivedVendorReportedEchoSpacing": 0.000700005,
  "DeviceSerialNumber": "166108",
  "DwellTime": 2.6e-06,
  "EchoTime": 0.03,
  "EchoTrainLength": 80,
  "EffectiveEchoSpacing": 0.000700005,
  "FlipAngle": 62,
  "HeudiconvVersion": "1.3.0",
  "ImageComments": "Unaliased MB4/PE3/LB",
  "ImageOrientationPatientDICOM": [1, 0, 0, 0, 0.91496, -0.403545],
  "ImageOrientationText": "Tra>Cor(-23.8)",
  "ImageType": [
    "ORIGINAL",
    "PRIMARY",
    "M",
    "MB",
    "ND",
    "MOSAIC"
],
  "ImagingFrequency": 123.244,
  "InPlanePhaseEncodingDirectionDICOM": "COL",
  "InstitutionAddress": "Bedford Way 26,London,London,GB,WC1H 0AP",
  "InstitutionName": "University College",
  "InstitutionalDepartmentName": "Department",
  "MRAcquisitionType": "2D",
  "MagneticFieldStrength": 3,
  "Manufacturer": "Siemens",
  "ManufacturersModelName": "Prisma",
  "MatrixCoilMode": "SENSE",
  "Modality": "MR",
  "MultibandAccelerationFactor": 4,
  "NonlinearGradientCorrection": false,
  "PartialFourier": 0.75,
  "PatientPosition": "HFS",
  "PercentPhaseFOV": 100,
  "PercentSampling": 100,
  "PhaseEncodingDirection": "j-",
  "PhaseEncodingSteps": 80,
  "PhaseResolution": 1,
  "PixelBandwidth": 1815,
  "ProcedureStepDescription": "Egor^MovieProject2",
  "ProtocolName": "func-bold_task-tono_run-01",
  "PulseSequenceDetails": "%CustomerSeq%\\cmrr_mbep2d_bold",
  "ReceiveCoilActiveElements": "HEA;HEP",
  "ReceiveCoilName": "Head_32",
  "ReconMatrixPE": 106,
  "RepetitionTime": 1,
  "SAR": 0.0400817,
  "ScanOptions": "PFP\\FS\\EXT",
  "ScanningSequence": "EP",
  "SequenceName": "epfid2d1_106",
  "SequenceVariant": "SK\\SS",
  "SeriesDescription": "func-bold_task-tono_run-01",
  "SeriesNumber": 20,
  "ShimSetting": [-1514, 681, 7376, 178, -80, 355, 46, -71],
  "SliceThickness": 2,
  "SliceTiming": [0, 0.5325, 0.0875, 0.6225, 0.1775, 0.7125, 0.265, 0.8, 0.355, 0.89, 0.445, 0, 0.5325, 0.0875, 0.6225, 0.1775, 0.7125, 0.265, 0.8, 0.355, 0.89, 0.445, 0, 0.5325, 0.0875, 0.6225, 0.1775, 0.7125, 0.265, 0.8, 0.355, 0.89, 0.445, 0, 0.5325, 0.0875, 0.6225, 0.1775, 0.7125, 0.265, 0.8, 0.355, 0.89, 0.445],
  "SoftwareVersions": "syngo MR E11",
  "SpacingBetweenSlices": 2,
  "StationName": "AWP166108",
  "TaskName": "tonotopy",
  "TotalReadoutTime": 0.0735005,
  "TxRefAmp": 247.301,
  "WipMemBlock": "2b5a5999-1555-461b-9521-266ed4a9df3b||Sequence: R016 ve11c/master r/e634e98; Dec 19 2017 11:00:25 by eja",
  "dcmmeta_affine": [
    [-2.0, 0.0, 0.0, 106.0],
    [0.0, 1.8299193382263184, -0.8070906400680542, -64.29513549804688],
    [0.0, 0.8070906400680542, 1.8299193382263184, -53.22581481933594],
    [0.0, 0.0, 0.0, 1.0]
],
  "dcmmeta_reorient_transform": [
    [0.0, -1.0, 0.0, 105.0],
    [1.0, 0.0, 0.0, 0.0],
    [0.0, 0.0, 1.0, 0.0],
    [0.0, 0.0, 0.0, 1.0]
],
  "dcmmeta_shape": [106, 106, 44, 264],
  "dcmmeta_slice_dim": 2,
  "dcmmeta_version": 0.6,
  "global": {
    "const": {
      "AcquisitionMatrix": [106, 0, 0, 106],
      "AngioFlag": "N",
      "BitsAllocated": 16,
      "BitsStored": 16,
      "BodyPartExamined": "BRAIN",
      "CardiacNumberOfImages": 1,
      "Columns": 742,
      "EchoNumbers": 1,
      "EchoTime": 30.0,
      "EchoTrainLength": 80,
      "FlipAngle": 62.0,
      "HighBit": 15,
      "ImageOrientationPatient": [1.0, 0.0, 0.0, 0.0, 0.91495965822336, -0.4035453181785],
      "ImagePositionPatient": [-742.0, -709.7607383988, 288.17352407583],
      "ImageType": [
        "ORIGINAL",
        "PRIMARY",
        "M",
        "MB",
        "ND",
        "MOSAIC"
],
      "ImagedNucleus": "1H",
      "ImagingFrequency": 123.243655,
      "InPlanePhaseEncodingDirection": "COL",
      "MRAcquisitionType": "2D",
      "MagneticFieldStrength": 3.0,
      "Manufacturer": "SIEMENS",
      "ManufacturerModelName": "Prisma",
      "Modality": "MR",
      "NominalInterval": 0,
      "NumberOfAverages": 1.0,
      "NumberOfPhaseEncodingSteps": 80,
      "PercentPhaseFieldOfView": 100.0,
      "PercentSampling": 100.0,
      "PerformedProcedureStepStartTime": "183831.058000",
      "PhotometricInterpretation": "MONOCHROME2",
      "PixelBandwidth": 1815.0,
      "PixelRepresentation": 0,
      "PixelSpacing": [2.0, 2.0],
      "ProtocolName": "func-bold_task-tono_run-01",
      "RepetitionTime": 1000.0,
      "Rows": 742,
      "SAR": 0.04008170678379,
      "SamplesPerPixel": 1,
      "ScanOptions": [
        "PFP",
        "FS",
        "EXT"
],
      "ScanningSequence": "EP",
      "SequenceName": "epfid2d1_106",
      "SequenceVariant": [
        "SK",
        "SS"
],
      "SeriesDescription": "func-bold_task-tono_run-01",
      "SeriesNumber": 20,
      "SeriesTime": "195911.724000",
      "SliceLocation": -22.753473910326,
      "SliceThickness": 2.0,
      "SmallestImagePixelValue": 0,
      "SoftwareVersions": "syngo MR E11",
      "SpacingBetweenSlices": 1.9999999764426,
      "SpecificCharacterSet": "ISO_IR 100",
      "StudyID": "1",
      "StudyTime": "183830.993000",
      "TransmitCoilName": "Body",
      "VariableFlipAngleFlag": "N",
      "WindowCenterWidthExplanation": "Algo1",
      "dBdt": 0.0},
    "slices": {}
  },
  "time": {
    "samples": {
      "AcquisitionNumber": [1, 2, 3, 4, 5, 6, 7, 8, 9, 10, 11, 12, 13, 14, 15, 16, 17, 18, 19, 20, 21, 22, 23, 24, 25, 26, 27, 28, 29, 30, 31, 32, 33, 34, 35, 36, 37, 38, 39, 40, 41, 42, 43, 44, 45, 46, 47, 48, 49, 50, 51, 52, 53, 54, 55, 56, 57, 58, 59, 60, 61, 62, 63, 64, 65, 66, 67, 68, 69, 70, 71, 72, 73, 74, 75, 76, 77, 78, 79, 80, 81, 82, 83, 84, 85, 86, 87, 88, 89, 90, 91, 92, 93, 94, 95, 96, 97, 98, 99, 100, 101, 102, 103, 104, 105, 106, 107, 108, 109, 110, 111, 112, 113, 114, 115, 116, 117, 118, 119, 120, 121, 122, 123, 124, 125, 126, 127, 128, 129, 130, 131, 132, 133, 134, 135, 136, 137, 138, 139, 140, 141, 142, 143, 144, 145, 146, 147, 148, 149, 150, 151, 152, 153, 154, 155, 156, 157, 158, 159, 160, 161, 162, 163, 164, 165, 166, 167, 168, 169, 170, 171, 172, 173, 174, 175, 176, 177, 178, 179, 180, 181, 182, 183, 184, 185, 186, 187, 188, 189, 190, 191, 192, 193, 194, 195, 196, 197, 198, 199, 200, 201, 202, 203, 204, 205, 206, 207, 208, 209, 210, 211, 212, 213, 214, 215, 216, 217, 218, 219, 220, 221, 222, 223, 224, 225, 226, 227, 228, 229, 230, 231, 232, 233, 234, 235, 236, 237, 238, 239, 240, 241, 242, 243, 244, 245, 246, 247, 248, 249, 250, 251, 252, 253, 254, 255, 256, 257, 258, 259, 260, 261, 262, 263, 264],
      "AcquisitionTime": ["195840.780000", "195841.780000", "195842.780000", "195843.780000", "195844.780000", "195845.780000", "195846.780000", "195847.780000", "195848.780000", "195849.780000", "195850.780000", "195851.780000", "195852.780000", "195853.780000", "195854.780000", "195855.780000", "195856.780000", "195857.780000", "195858.780000", "195859.780000", "195900.780000", "195901.780000", "195902.780000", "195903.780000", "195904.780000", "195905.780000", "195906.780000", "195907.780000", "195908.780000", "195909.780000", "195910.780000", "195911.780000", "195912.780000", "195913.780000", "195914.780000", "195915.780000", "195916.780000", "195917.780000", "195918.780000", "195919.780000", "195920.780000", "195921.780000", "195922.780000", "195923.780000", "195924.780000", "195925.780000", "195926.780000", "195927.780000", "195928.780000", "195929.780000", "195930.780000", "195931.780000", "195932.780000", "195933.780000", "195934.780000", "195935.780000", "195936.780000", "195937.780000", "195938.780000", "195939.780000", "195940.780000", "195941.780000", "195942.780000", "195943.780000", "195944.780000", "195945.780000", "195946.780000", "195947.780000", "195948.780000", "195949.780000", "195950.780000", "195951.780000", "195952.780000", "195953.780000", "195954.780000", "195955.780000", "195956.780000", "195957.780000", "195958.780000", "195959.780000", "200000.780000", "200001.780000", "200002.780000", "200003.780000", "200004.780000", "200005.780000", "200006.780000", "200007.780000", "200008.780000", "200009.780000", "200010.780000", "200011.780000", "200012.780000", "200013.780000", "200014.780000", "200015.780000", "200016.780000", "200017.780000", "200018.780000", "200019.780000", "200020.780000", "200021.780000", "200022.780000", "200023.780000", "200024.780000", "200025.780000", "200026.780000", "200027.780000", "200028.780000", "200029.780000", "200030.780000", "200031.780000", "200032.780000", "200033.780000", "200034.780000", "200035.780000", "200036.780000", "200037.780000", "200038.780000", "200039.780000", "200040.780000", "200041.780000", "200042.780000", "200043.780000", "200044.780000", "200045.780000", "200046.780000", "200047.780000", "200048.780000", "200049.780000", "200050.780000", "200051.780000", "200052.780000", "200053.780000", "200054.780000", "200055.780000", "200056.780000", "200057.780000", "200058.780000", "200059.780000", "200100.780000", "200101.780000", "200102.780000", "200103.780000", "200104.780000", "200105.780000", "200106.780000", "200107.780000", "200108.780000", "200109.780000", "200110.780000", "200111.780000", "200112.780000", "200113.780000", "200114.780000", "200115.780000", "200116.780000", "200117.780000", "200118.780000", "200119.780000", "200120.780000", "200121.780000", "200122.780000", "200123.780000", "200124.780000", "200125.780000", "200126.780000", "200127.780000", "200128.780000", "200129.780000", "200130.780000", "200131.780000", "200132.780000", "200133.780000", "200134.780000", "200135.780000", "200136.780000", "200137.780000", "200138.780000", "200139.780000", "200140.780000", "200141.780000", "200142.780000", "200143.780000", "200144.780000", "200145.780000", "200146.780000", "200147.780000", "200148.780000", "200149.780000", "200150.780000", "200151.780000", "200152.780000", "200153.780000", "200154.780000", "200155.780000", "200156.780000", "200157.780000", "200158.780000", "200159.780000", "200200.780000", "200201.780000", "200202.780000", "200203.780000", "200204.780000", "200205.780000", "200206.780000", "200207.780000", "200208.780000", "200209.780000", "200210.780000", "200211.780000", "200212.780000", "200213.780000", "200214.780000", "200215.780000", "200216.780000", "200217.780000", "200218.780000", "200219.780000", "200220.780000", "200221.780000", "200222.780000", "200223.780000", "200224.780000", "200225.780000", "200226.780000", "200227.780000", "200228.780000", "200229.780000", "200230.780000", "200231.780000", "200232.780000", "200233.780000", "200234.780000", "200235.780000", "200236.780000", "200237.780000", "200238.780000", "200239.780000", "200240.780000", "200241.780000", "200242.780000", "200243.780000", "200244.780000", "200245.780000", "200246.780000", "200247.780000", "200248.780000", "200249.780000", "200250.780000", "200251.780000", "200252.780000", "200253.780000", "200254.780000", "200255.780000", "200256.780000", "200257.780000", "200258.780000", "200259.780000", "200300.780000", "200301.780000", "200302.780000", "200303.780000"],
      "ContentTime": ["195911.726000", "195911.729000", "195911.732000", "195911.734000", "195911.737000", "195911.739000", "195911.742000", "195911.752000", "195911.755000", "195911.757000", "195911.760000", "195911.762000", "195911.765000", "195911.767000", "195911.769000", "195911.787000", "195911.790000", "195911.798000", "195911.801000", "195911.803000", "195911.806000", "195911.808000", "195911.810000", "195911.813000", "195911.815000", "195911.818000", "195911.820000", "195911.823000", "195911.825000", "195911.828000", "195931.695000", "195931.698000", "195931.701000", "195931.703000", "195931.706000", "195931.708000", "195931.710000", "195931.713000", "195931.715000", "195931.718000", "195931.720000", "195931.723000", "195931.725000", "195931.728000", "195931.730000", "195931.733000", "195931.735000", "195931.737000", "195931.740000", "195931.742000", "195951.695000", "195951.698000", "195951.700000", "195951.703000", "195951.705000", "195951.708000", "195951.710000", "195951.713000", "195951.715000", "195951.718000", "195951.720000", "195951.723000", "195951.725000", "195951.728000", "195951.730000", "195951.733000", "195951.741000", "195951.744000", "195951.746000", "195951.749000", "200011.695000", "200011.698000", "200011.700000", "200011.703000", "200011.706000", "200011.708000", "200011.710000", "200011.713000", "200011.716000", "200011.718000", "200011.721000", "200011.723000", "200011.726000", "200011.728000", "200011.731000", "200011.733000", "200011.736000", "200011.738000", "200011.740000", "200011.748000", "200031.695000", "200031.698000", "200031.700000", "200031.703000", "200031.706000", "200031.708000", "200031.710000", "200031.713000", "200031.715000", "200031.718000", "200031.720000", "200031.723000", "200031.725000", "200031.728000", "200031.730000", "200031.733000", "200031.735000", "200031.738000", "200031.740000", "200031.743000", "200051.694000", "200051.697000", "200051.699000", "200051.702000", "200051.705000", "200051.707000", "200051.710000", "200051.712000", "200051.715000", "200051.717000", "200051.719000", "200051.722000", "200051.725000", "200051.727000", "200051.729000", "200051.732000", "200051.734000", "200051.737000", "200051.739000", "200051.742000", "200111.695000", "200111.698000", "200111.700000", "200111.703000", "200111.705000", "200111.708000", "200111.710000", "200111.713000", "200111.715000", "200111.718000", "200111.720000", "200111.722000", "200111.725000", "200111.727000", "200111.730000", "200111.732000", "200111.735000", "200111.737000", "200111.740000", "200111.742000", "200131.695000", "200131.698000", "200131.700000", "200131.703000", "200131.705000", "200131.708000", "200131.710000", "200131.713000", "200131.715000", "200131.717000", "200131.720000", "200131.722000", "200131.725000", "200131.727000", "200131.730000", "200131.732000", "200131.735000", "200131.737000", "200131.740000", "200131.742000", "200151.695000", "200151.698000", "200151.700000", "200151.703000", "200151.705000", "200151.708000", "200151.711000", "200151.713000", "200151.716000", "200151.718000", "200151.721000", "200151.723000", "200151.726000", "200151.728000", "200151.730000", "200151.733000", "200151.735000", "200151.738000", "200151.740000", "200151.743000", "200211.695000", "200211.698000", "200211.701000", "200211.703000", "200211.705000", "200211.708000", "200211.710000", "200211.713000", "200211.715000", "200211.718000", "200211.720000", "200211.723000", "200211.725000", "200211.728000", "200211.730000", "200211.733000", "200211.735000", "200211.737000", "200211.740000", "200211.742000", "200231.695000", "200231.698000", "200231.700000", "200231.703000", "200231.705000", "200231.708000", "200231.710000", "200231.713000", "200231.715000", "200231.717000", "200231.720000", "200231.722000", "200231.725000", "200231.727000", "200231.730000", "200231.732000", "200231.735000", "200231.737000", "200231.739000", "200231.742000", "200251.695000", "200251.698000", "200251.700000", "200251.703000", "200251.705000", "200251.708000", "200251.710000", "200251.713000", "200251.715000", "200251.718000", "200251.720000", "200251.723000", "200251.725000", "200251.727000", "200251.730000", "200251.732000", "200251.735000", "200251.737000", "200251.740000", "200251.742000", "200305.171000", "200305.174000", "200305.177000", "200305.180000", "200305.183000", "200305.185000", "200305.188000", "200305.191000", "200305.194000", "200305.197000", "200305.200000", "200305.202000", "200305.225000", "200305.228000"],
      "InstanceCreationTime": ["195911.726000", "195911.729000", "195911.732000", "195911.734000", "195911.737000", "195911.739000", "195911.742000", "195911.752000", "195911.755000", "195911.757000", "195911.760000", "195911.762000", "195911.765000", "195911.767000", "195911.769000", "195911.787000", "195911.790000", "195911.798000", "195911.801000", "195911.803000", "195911.806000", "195911.808000", "195911.810000", "195911.813000", "195911.815000", "195911.818000", "195911.820000", "195911.823000", "195911.825000", "195911.828000", "195931.695000", "195931.698000", "195931.701000", "195931.703000", "195931.706000", "195931.708000", "195931.710000", "195931.713000", "195931.715000", "195931.718000", "195931.720000", "195931.723000", "195931.725000", "195931.728000", "195931.730000", "195931.733000", "195931.735000", "195931.737000", "195931.740000", "195931.742000", "195951.695000", "195951.698000", "195951.700000", "195951.703000", "195951.705000", "195951.708000", "195951.710000", "195951.713000", "195951.715000", "195951.718000", "195951.720000", "195951.723000", "195951.725000", "195951.728000", "195951.730000", "195951.733000", "195951.741000", "195951.744000", "195951.746000", "195951.749000", "200011.695000", "200011.698000", "200011.700000", "200011.703000", "200011.706000", "200011.708000", "200011.710000", "200011.713000", "200011.716000", "200011.718000", "200011.721000", "200011.723000", "200011.726000", "200011.728000", "200011.731000", "200011.733000", "200011.736000", "200011.738000", "200011.740000", "200011.748000", "200031.695000", "200031.698000", "200031.700000", "200031.703000", "200031.706000", "200031.708000", "200031.710000", "200031.713000", "200031.715000", "200031.718000", "200031.720000", "200031.723000", "200031.725000", "200031.728000", "200031.730000", "200031.733000", "200031.735000", "200031.738000", "200031.740000", "200031.743000", "200051.694000", "200051.697000", "200051.699000", "200051.702000", "200051.705000", "200051.707000", "200051.710000", "200051.712000", "200051.715000", "200051.717000", "200051.719000", "200051.722000", "200051.725000", "200051.727000", "200051.729000", "200051.732000", "200051.734000", "200051.737000", "200051.739000", "200051.742000", "200111.695000", "200111.698000", "200111.700000", "200111.703000", "200111.705000", "200111.708000", "200111.710000", "200111.713000", "200111.715000", "200111.718000", "200111.720000", "200111.722000", "200111.725000", "200111.727000", "200111.730000", "200111.732000", "200111.735000", "200111.737000", "200111.740000", "200111.742000", "200131.695000", "200131.698000", "200131.700000", "200131.703000", "200131.705000", "200131.708000", "200131.710000", "200131.713000", "200131.715000", "200131.717000", "200131.720000", "200131.722000", "200131.725000", "200131.727000", "200131.730000", "200131.732000", "200131.735000", "200131.737000", "200131.740000", "200131.742000", "200151.695000", "200151.698000", "200151.700000", "200151.703000", "200151.705000", "200151.708000", "200151.711000", "200151.713000", "200151.716000", "200151.718000", "200151.721000", "200151.723000", "200151.726000", "200151.728000", "200151.730000", "200151.733000", "200151.735000", "200151.738000", "200151.740000", "200151.743000", "200211.695000", "200211.698000", "200211.701000", "200211.703000", "200211.705000", "200211.708000", "200211.710000", "200211.713000", "200211.715000", "200211.718000", "200211.720000", "200211.723000", "200211.725000", "200211.728000", "200211.730000", "200211.733000", "200211.735000", "200211.737000", "200211.740000", "200211.742000", "200231.695000", "200231.698000", "200231.700000", "200231.703000", "200231.705000", "200231.708000", "200231.710000", "200231.713000", "200231.715000", "200231.717000", "200231.720000", "200231.722000", "200231.725000", "200231.727000", "200231.730000", "200231.732000", "200231.735000", "200231.737000", "200231.739000", "200231.742000", "200251.695000", "200251.698000", "200251.700000", "200251.703000", "200251.705000", "200251.708000", "200251.710000", "200251.713000", "200251.715000", "200251.718000", "200251.720000", "200251.723000", "200251.725000", "200251.727000", "200251.730000", "200251.732000", "200251.735000", "200251.737000", "200251.740000", "200251.742000", "200305.171000", "200305.174000", "200305.177000", "200305.180000", "200305.183000", "200305.185000", "200305.188000", "200305.191000", "200305.194000", "200305.197000", "200305.200000", "200305.202000", "200305.225000", "200305.228000"],
      "InstanceNumber": [1, 2, 3, 4, 5, 6, 7, 8, 9, 10, 11, 12, 13, 14, 15, 16, 17, 18, 19, 20, 21, 22, 23, 24, 25, 26, 27, 28, 29, 30, 31, 32, 33, 34, 35, 36, 37, 38, 39, 40, 41, 42, 43, 44, 45, 46, 47, 48, 49, 50, 51, 52, 53, 54, 55, 56, 57, 58, 59, 60, 61, 62, 63, 64, 65, 66, 67, 68, 69, 70, 71, 72, 73, 74, 75, 76, 77, 78, 79, 80, 81, 82, 83, 84, 85, 86, 87, 88, 89, 90, 91, 92, 93, 94, 95, 96, 97, 98, 99, 100, 101, 102, 103, 104, 105, 106, 107, 108, 109, 110, 111, 112, 113, 114, 115, 116, 117, 118, 119, 120, 121, 122, 123, 124, 125, 126, 127, 128, 129, 130, 131, 132, 133, 134, 135, 136, 137, 138, 139, 140, 141, 142, 143, 144, 145, 146, 147, 148, 149, 150, 151, 152, 153, 154, 155, 156, 157, 158, 159, 160, 161, 162, 163, 164, 165, 166, 167, 168, 169, 170, 171, 172, 173, 174, 175, 176, 177, 178, 179, 180, 181, 182, 183, 184, 185, 186, 187, 188, 189, 190, 191, 192, 193, 194, 195, 196, 197, 198, 199, 200, 201, 202, 203, 204, 205, 206, 207, 208, 209, 210, 211, 212, 213, 214, 215, 216, 217, 218, 219, 220, 221, 222, 223, 224, 225, 226, 227, 228, 229, 230, 231, 232, 233, 234, 235, 236, 237, 238, 239, 240, 241, 242, 243, 244, 245, 246, 247, 248, 249, 250, 251, 252, 253, 254, 255, 256, 257, 258, 259, 260, 261, 262, 263, 264],
      "LargestImagePixelValue": [12548, 12479, 12348, 12070, 12193, 12288, 12067, 12143, 12132, 12421, 12269, 12506, 12332, 12168, 12484, 12356, 12190, 12345, 12385, 12190, 12407, 12308, 12052, 12196, 12050, 12031, 12217, 12240, 12304, 12462, 12288, 12308, 12472, 12191, 12161, 12380, 12131, 12243, 12387, 12219, 12283, 12226, 12087, 12212, 12188, 12096, 12310, 12153, 12073, 12241, 12118, 12032, 12299, 12099, 12030, 12017, 11972, 12137, 12185, 12039, 12240, 12161, 12055, 12210, 11952, 12123, 12205, 12141, 12286, 12286, 12033, 12129, 12114, 12011, 11913, 11894, 12079, 12307, 12107, 11972, 12065, 11892, 12198, 12055, 12164, 11917, 11919, 12005, 12030, 12009, 12042, 11825, 11859, 11997, 11887, 11990, 11896, 11972, 12030, 11918, 11887, 11967, 11795, 11936, 11844, 11628, 11867, 12033, 11855, 11959, 11992, 11911, 11887, 11963, 11701, 11877, 11769, 11920, 11873, 11723, 11976, 11722, 11640, 11800, 11746, 11857, 11894, 11617, 11899, 11657, 11887, 11712, 11806, 11807, 11564, 11881, 11650, 11684, 11895, 11860, 11629, 11817, 11928, 11783, 12033, 11871, 11796, 11679, 11776, 11943, 11844, 11645, 11844, 11892, 11681, 11871, 11791, 11584, 11631, 11525, 11621, 11632, 11673, 11731, 11594, 11652, 11654, 11553, 11629, 11809, 11504, 11572, 11683, 11674, 11610, 11737, 11703, 11727, 11804, 11583, 11696, 11683, 11535, 11785, 11666, 11620, 11581, 11581, 11505, 11529, 11464, 11557, 11555, 11568, 11593, 11616, 11516, 11561, 11603, 11456, 11607, 11492, 11343, 11524, 11446, 11373, 11293, 11373, 11317, 11550, 11375, 11348, 11468, 11407, 11443, 11487, 11422, 11407, 11479, 11333, 11470, 11515, 11385, 11398, 11507, 11504, 11372, 11337, 11256, 11398, 11471, 11412, 11505, 11416, 11449, 11326, 11309, 11411, 11484, 11502, 11522, 11508, 11445, 11469, 11563, 11501, 11591, 12338, 11075, 11319, 11239, 11318, 11386, 11267, 11418, 12404, 11402, 11609, 11833, 11839, 11720, 11673, 11793, 11716],
      "TriggerTime": [8102.5, 9102.5, 10102.5, 11102.5, 12102.5, 13102.5, 14102.5, 15102.5, 16102.5, 17102.5, 18102.5, 19102.5, 20102.5, 21102.5, 22102.5, 23102.5, 24102.5, 25102.5, 26102.5, 27102.5, 28102.5, 29102.5, 30102.5, 31102.5, 32102.5, 33102.5, 34102.5, 35102.5, 36102.5, 37102.5, 38102.5, 39102.5, 40102.5, 41102.5, 42102.5, 43102.5, 44102.5, 45102.5, 46102.5, 47102.5, 48102.5, 49102.5, 50102.5, 51102.5, 52102.5, 53102.5, 54102.5, 55102.5, 56102.5, 57102.5, 58102.5, 59102.5, 60102.5, 61102.5, 62102.5, 63102.5, 64102.5, 65102.5, 66102.5, 67102.5, 68102.5, 69102.5, 70102.5, 71102.5, 72102.5, 73102.5, 74102.5, 75102.5, 76102.5, 77102.5, 78102.5, 79102.5, 80102.5, 81102.5, 82102.5, 83102.5, 84102.5, 85102.5, 86102.5, 87102.5, 88102.5, 89102.5, 90102.5, 91102.5, 92102.5, 93102.5, 94102.5, 95102.5, 96102.5, 97102.5, 98102.5, 99102.5, 100102.5, 101102.5, 102102.5, 103102.5, 104102.5, 105102.5, 106102.5, 107102.5, 108102.5, 109102.5, 110102.5, 111102.5, 112102.5, 113102.5, 114102.5, 115102.5, 116102.5, 117102.5, 118102.5, 119102.5, 120102.5, 121102.5, 122102.5, 123102.5, 124102.5, 125102.5, 126102.5, 127102.5, 128102.5, 129102.5, 130102.5, 131102.5, 132102.5, 133102.5, 134102.5, 135102.5, 136102.5, 137102.5, 138102.5, 139102.5, 140102.5, 141102.5, 142102.5, 143102.5, 144102.5, 145102.5, 146102.5, 147102.5, 148102.5, 149102.5, 150102.5, 151102.5, 152102.5, 153102.5, 154102.5, 155102.5, 156102.5, 157102.5, 158102.5, 159102.5, 160102.5, 161102.5, 162102.5, 163102.5, 164102.5, 165102.5, 166102.5, 167102.5, 168102.5, 169102.5, 170102.5, 171102.5, 172102.5, 173102.5, 174102.5, 175102.5, 176102.5, 177102.5, 178102.5, 179102.5, 180102.5, 181102.5, 182102.5, 183102.5, 184102.5, 185102.5, 186102.5, 187102.5, 188102.5, 189102.5, 190102.5, 191102.5, 192102.5, 193102.5, 194102.5, 195102.5, 196102.5, 197102.5, 198102.5, 199102.5, 200102.5, 201102.5, 202102.5, 203102.5, 204102.5, 205102.5, 206102.5, 207102.5, 208102.5, 209102.5, 210102.5, 211102.5, 212102.5, 213102.5, 214102.5, 215102.5, 216102.5, 217102.5, 218102.5, 219102.5, 220102.5, 221102.5, 222102.5, 223102.5, 224102.5, 225102.5, 226102.5, 227102.5, 228102.5, 229102.5, 230102.5, 231102.5, 232102.5, 233102.5, 234102.5, 235102.5, 236102.5, 237102.5, 238102.5, 239102.5, 240102.5, 241102.5, 242102.5, 243102.5, 244102.5, 245102.5, 246102.5, 247102.5, 248102.5, 249102.5, 250102.5, 251102.5, 252102.5, 253102.5, 254102.5, 255102.5, 256102.5, 257102.5, 258102.5, 259102.5, 260102.5, 261102.5, 262102.5, 263102.5, 264102.5, 265102.5, 266102.5, 267102.5, 268102.5, 269102.5, 270102.5, 271102.5],
      "WindowCenter": [4860.0, 4858.0, 4847.0, 4847.0, 4847.0, 4847.0, 4846.0, 4846.0, 4846.0, 4846.0, 4845.0, 4845.0, 4845.0, 4846.0, 4858.0, 4858.0, 4846.0, 4845.0, 4844.0, 4843.0, 4844.0, 4844.0, 4833.0, 4844.0, 4844.0, 4845.0, 4846.0, 4845.0, 4845.0, 4844.0, 4833.0, 4843.0, 4846.0, 4846.0, 4847.0, 4858.0, 4848.0, 4847.0, 4857.0, 4846.0, 4846.0, 4846.0, 4846.0, 4847.0, 4848.0, 4858.0, 4859.0, 4859.0, 4858.0, 4859.0, 4859.0, 4859.0, 4860.0, 4862.0, 4860.0, 4861.0, 4850.0, 4849.0, 4859.0, 4848.0, 4847.0, 4846.0, 4846.0, 4847.0, 4847.0, 4847.0, 4859.0, 4848.0, 4847.0, 4847.0, 4845.0, 4845.0, 4845.0, 4845.0, 4835.0, 4835.0, 4846.0, 4847.0, 4846.0, 4836.0, 4846.0, 4835.0, 4845.0, 4845.0, 4845.0, 4837.0, 4835.0, 4846.0, 4846.0, 4845.0, 4845.0, 4835.0, 4835.0, 4846.0, 4846.0, 4836.0, 4847.0, 4847.0, 4848.0, 4847.0, 4837.0, 4847.0, 4846.0, 4836.0, 4847.0, 4825.0, 4835.0, 4845.0, 4835.0, 4846.0, 4845.0, 4835.0, 4835.0, 4834.0, 4833.0, 4833.0, 4832.0, 4833.0, 4833.0, 4833.0, 4835.0, 4835.0, 4825.0, 4835.0, 4835.0, 4837.0, 4836.0, 4839.0, 4848.0, 4837.0, 4846.0, 4835.0, 4834.0, 4834.0, 4834.0, 4835.0, 4837.0, 4847.0, 4848.0, 4850.0, 4852.0, 4862.0, 4862.0, 4850.0, 4860.0, 4848.0, 4837.0, 4826.0, 4835.0, 4836.0, 4836.0, 4835.0, 4847.0, 4848.0, 4848.0, 4847.0, 4836.0, 4824.0, 4823.0, 4822.0, 4823.0, 4824.0, 4823.0, 4835.0, 4836.0, 4825.0, 4836.0, 4826.0, 4824.0, 4834.0, 4825.0, 4825.0, 4836.0, 4825.0, 4824.0, 4823.0, 4820.0, 4817.0, 4817.0, 4807.0, 4817.0, 4819.0, 4820.0, 4821.0, 4810.0, 4810.0, 4821.0, 4822.0, 4822.0, 4823.0, 4822.0, 4810.0, 4811.0, 4808.0, 4809.0, 4809.0, 4807.0, 4807.0, 4805.0, 4795.0, 4795.0, 4805.0, 4796.0, 4808.0, 4809.0, 4809.0, 4810.0, 4809.0, 4799.0, 4810.0, 4810.0, 4810.0, 4820.0, 4810.0, 4820.0, 4822.0, 4822.0, 4823.0, 4824.0, 4813.0, 4823.0, 4823.0, 4822.0, 4821.0, 4821.0, 4811.0, 4821.0, 4811.0, 4810.0, 4811.0, 4810.0, 4809.0, 4809.0, 4809.0, 4810.0, 4811.0, 4810.0, 4821.0, 4822.0, 4811.0, 4811.0, 4810.0, 4810.0, 4810.0, 4820.0, 4820.0, 4822.0, 4843.0, 4808.0, 4812.0, 4811.0, 4815.0, 4826.0, 4817.0, 4815.0, 4818.0, 4794.0, 4781.0, 4793.0, 4792.0, 4778.0, 4765.0, 4775.0, 4763.0],
