{
  "AcquisitionMatrixPE": 106,
  "AcquisitionNumber": 1,
  "AcquisitionTime": "18:41:50.742500",
  "BandwidthPerPixelPhaseEncode": 13.477,
  "BaseResolution": 106,
  "BodyPartExamined": "BRAIN",
  "CoilCombinationMethod": "Sum of Squares",
  "ConsistencyInfo": "N4_VE11C_LATEST_20160120",
  "ConversionSoftware": "dcm2niix",
  "ConversionSoftwareVersion": "v1.0.20220720",
  "DerivedVendorReportedEchoSpacing": 0.000700005,
  "DeviceSerialNumber": "166108",
  "DwellTime": 2.6e-06,
  "EchoTime": 0.03,
  "EchoTrainLength": 80,
  "EffectiveEchoSpacing": 0.000700005,
  "FlipAngle": 62,
  "HeudiconvVersion": "1.3.0",
  "ImageComments": "Unaliased MB4/PE3/LB",
  "ImageOrientationPatientDICOM": [1, 0, 0, 0, 0.992757, -0.120137],
  "ImageOrientationText": "Tra>Cor(-6.9)",
  "ImageType": [
    "ORIGINAL",
    "PRIMARY",
    "M",
    "MB",
    "ND",
    "MOSAIC"
],
  "ImagingFrequency": 123.244,
  "InPlanePhaseEncodingDirectionDICOM": "COL",
  "InstitutionAddress": "Bedford Way 26,London,London,GB,WC1H 0AP",
  "InstitutionName": "University College",
  "InstitutionalDepartmentName": "Department",
  "MRAcquisitionType": "2D",
  "MagneticFieldStrength": 3,
  "Manufacturer": "Siemens",
  "ManufacturersModelName": "Prisma",
  "MatrixCoilMode": "SENSE",
  "Modality": "MR",
  "MultibandAccelerationFactor": 4,
  "NonlinearGradientCorrection": false,
  "PartialFourier": 0.75,
  "PatientPosition": "HFS",
  "PercentPhaseFOV": 100,
  "PercentSampling": 100,
  "PhaseEncodingDirection": "j-",
  "PhaseEncodingSteps": 80,
  "PhaseResolution": 1,
  "PixelBandwidth": 1815,
  "ProcedureStepDescription": "Egor^MovieProject2",
  "ProtocolName": "func-bold_task-motor_run-01",
  "PulseSequenceDetails": "%CustomerSeq%\\cmrr_mbep2d_bold",
  "ReceiveCoilActiveElements": "HEA;HEP",
  "ReceiveCoilName": "Head_32",
  "ReconMatrixPE": 106,
  "RepetitionTime": 1,
  "SAR": 0.0405879,
  "ScanOptions": "PFP\\FS\\EXT",
  "ScanningSequence": "EP",
  "SequenceName": "epfid2d1_106",
  "SequenceVariant": "SK\\SS",
  "SeriesDescription": "func-bold_task-motor_run-01",
  "SeriesNumber": 6,
  "ShimSetting": [-1537, 579, 7373, 115, -94, -14, 250, -32],
  "SliceThickness": 2,
  "SliceTiming": [0, 0.535, 0.09, 0.6225, 0.1775, 0.7125, 0.2675, 0.8025, 0.355, 0.89, 0.445, 0, 0.535, 0.09, 0.6225, 0.1775, 0.7125, 0.2675, 0.8025, 0.355, 0.89, 0.445, 0, 0.535, 0.09, 0.6225, 0.1775, 0.7125, 0.2675, 0.8025, 0.355, 0.89, 0.445, 0, 0.535, 0.09, 0.6225, 0.1775, 0.7125, 0.2675, 0.8025, 0.355, 0.89, 0.445],
  "SoftwareVersions": "syngo MR E11",
  "SpacingBetweenSlices": 2,
  "StationName": "AWP166108",
  "TaskName": "somatotopy",
  "TotalReadoutTime": 0.0735005,
  "TxRefAmp": 243.192,
  "WipMemBlock": "b25d7f54-c49f-4d24-b566-a47ce6bac025||Sequence: R016 ve11c/master r/e634e98; Dec 19 2017 11:00:25 by eja",
  "dcmmeta_affine": [
    [-2.0, 0.0, 0.0, 106.0],
    [0.0, 1.9855146408081055, -0.24027368426322937, -97.52687072753906],
    [0.0, 0.24027368426322937, 1.9855146408081055, -17.226755142211914],
    [0.0, 0.0, 0.0, 1.0]
],
  "dcmmeta_reorient_transform": [
    [0.0, -1.0, 0.0, 105.0],
    [1.0, 0.0, 0.0, 0.0],
    [0.0, 0.0, 1.0, 0.0],
    [0.0, 0.0, 0.0, 1.0]
],
  "dcmmeta_shape": [106, 106, 44, 467],
  "dcmmeta_slice_dim": 2,
  "dcmmeta_version": 0.6,
  "global": {
    "const": {
      "AcquisitionMatrix": [106, 0, 0, 106],
      "AngioFlag": "N",
      "BitsAllocated": 16,
      "BitsStored": 16,
      "BodyPartExamined": "BRAIN",
      "CardiacNumberOfImages": 1,
      "Columns": 742,
      "EchoNumbers": 1,
      "EchoTime": 30.0,
      "EchoTrainLength": 80,
      "FlipAngle": 62.0,
      "HighBit": 15,
      "ImageOrientationPatient": [1.0, 0.0, 0.0, 0.0, 0.99275734119381, -0.1201368449136],
      "ImagePositionPatient": [-742.0, -742.34583823713, 84.409016438258],
      "ImageType": [
        "ORIGINAL",
        "PRIMARY",
        "M",
        "MB",
        "ND",
        "MOSAIC"
],
      "ImagedNucleus": "1H",
      "ImagingFrequency": 123.243625,
      "InPlanePhaseEncodingDirection": "COL",
      "MRAcquisitionType": "2D",
      "MagneticFieldStrength": 3.0,
      "Manufacturer": "SIEMENS",
      "ManufacturerModelName": "Prisma",
      "Modality": "MR",
      "NominalInterval": 0,
      "NumberOfAverages": 1.0,
      "NumberOfPhaseEncodingSteps": 80,
      "PercentPhaseFieldOfView": 100.0,
      "PercentSampling": 100.0,
      "PerformedProcedureStepStartTime": "180500.288000",
      "PhotometricInterpretation": "MONOCHROME2",
      "PixelBandwidth": 1815.0,
      "PixelRepresentation": 0,
      "PixelSpacing": [2.0, 2.0],
      "ProtocolName": "func-bold_task-motor_run-01",
      "RepetitionTime": 1000.0,
      "Rows": 742,
      "SAR": 0.04058794286265,
      "SamplesPerPixel": 1,
      "ScanOptions": [
        "PFP",
        "FS",
        "EXT"
],
      "ScanningSequence": "EP",
      "SequenceName": "epfid2d1_106",
      "SequenceVariant": [
        "SK",
        "SS"
],
      "SeriesDescription": "func-bold_task-motor_run-01",
      "SeriesNumber": 6,
      "SeriesTime": "184228.923000",
      "SliceLocation": -5.3854161085276,
      "SliceThickness": 2.0,
      "SmallestImagePixelValue": 0,
      "SoftwareVersions": "syngo MR E11",
      "SpacingBetweenSlices": 1.9999999693119,
      "SpecificCharacterSet": "ISO_IR 100",
      "StudyID": "1",
      "StudyTime": "180500.189000",
      "TransmitCoilName": "Body",
      "VariableFlipAngleFlag": "N",
      "WindowCenterWidthExplanation": "Algo1",
      "dBdt": 0.0},
    "slices": {}
  },
  "time": {
    "samples": {
      "AcquisitionNumber": [1, 2, 3, 4, 5, 6, 7, 8, 9, 10, 11, 12, 13, 14, 15, 16, 17, 18, 19, 20, 21, 22, 23, 24, 25, 26, 27, 28, 29, 30, 31, 32, 33, 34, 35, 36, 37, 38, 39, 40, 41, 42, 43, 44, 45, 46, 47, 48, 49, 50, 51, 52, 53, 54, 55, 56, 57, 58, 59, 60, 61, 62, 63, 64, 65, 66, 67, 68, 69, 70, 71, 72, 73, 74, 75, 76, 77, 78, 79, 80, 81, 82, 83, 84, 85, 86, 87, 88, 89, 90, 91, 92, 93, 94, 95, 96, 97, 98, 99, 100, 101, 102, 103, 104, 105, 106, 107, 108, 109, 110, 111, 112, 113, 114, 115, 116, 117, 118, 119, 120, 121, 122, 123, 124, 125, 126, 127, 128, 129, 130, 131, 132, 133, 134, 135, 136, 137, 138, 139, 140, 141, 142, 143, 144, 145, 146, 147, 148, 149, 150, 151, 152, 153, 154, 155, 156, 157, 158, 159, 160, 161, 162, 163, 164, 165, 166, 167, 168, 169, 170, 171, 172, 173, 174, 175, 176, 177, 178, 179, 180, 181, 182, 183, 184, 185, 186, 187, 188, 189, 190, 191, 192, 193, 194, 195, 196, 197, 198, 199, 200, 201, 202, 203, 204, 205, 206, 207, 208, 209, 210, 211, 212, 213, 214, 215, 216, 217, 218, 219, 220, 221, 222, 223, 224, 225, 226, 227, 228, 229, 230, 231, 232, 233, 234, 235, 236, 237, 238, 239, 240, 241, 242, 243, 244, 245, 246, 247, 248, 249, 250, 251, 252, 253, 254, 255, 256, 257, 258, 259, 260, 261, 262, 263, 264, 265, 266, 267, 268, 269, 270, 271, 272, 273, 274, 275, 276, 277, 278, 279, 280, 281, 282, 283, 284, 285, 286, 287, 288, 289, 290, 291, 292, 293, 294, 295, 296, 297, 298, 299, 300, 301, 302, 303, 304, 305, 306, 307, 308, 309, 310, 311, 312, 313, 314, 315, 316, 317, 318, 319, 320, 321, 322, 323, 324, 325, 326, 327, 328, 329, 330, 331, 332, 333, 334, 335, 336, 337, 338, 339, 340, 341, 342, 343, 344, 345, 346, 347, 348, 349, 350, 351, 352, 353, 354, 355, 356, 357, 358, 359, 360, 361, 362, 363, 364, 365, 366, 367, 368, 369, 370, 371, 372, 373, 374, 375, 376, 377, 378, 379, 380, 381, 382, 383, 384, 385, 386, 387, 388, 389, 390, 391, 392, 393, 394, 395, 396, 397, 398, 399, 400, 401, 402, 403, 404, 405, 406, 407, 408, 409, 410, 411, 412, 413, 414, 415, 416, 417, 418, 419, 420, 421, 422, 423, 424, 425, 426, 427, 428, 429, 430, 431, 432, 433, 434, 435, 436, 437, 438, 439, 440, 441, 442, 443, 444, 445, 446, 447, 448, 449, 450, 451, 452, 453, 454, 455, 456, 457, 458, 459, 460, 461, 462, 463, 464, 465, 466, 467],
      "AcquisitionTime": ["184150.742500", "184151.742500", "184152.742500", "184153.742500", "184154.742500", "184155.742500", "184156.742500", "184157.742500", "184158.742500", "184159.742500", "184200.742500", "184201.742500", "184202.742500", "184203.742500", "184204.742500", "184205.742500", "184206.742500", "184207.742500", "184208.742500", "184209.742500", "184210.742500", "184211.742500", "184212.742500", "184213.742500", "184214.742500", "184215.742500", "184216.742500", "184217.742500", "184218.742500", "184219.742500", "184220.742500", "184221.742500", "184222.742500", "184223.742500", "184224.742500", "184225.742500", "184226.742500", "184227.742500", "184228.742500", "184229.742500", "184230.742500", "184231.742500", "184232.742500", "184233.742500", "184234.742500", "184235.742500", "184236.742500", "184237.742500", "184238.742500", "184239.742500", "184240.742500", "184241.742500", "184242.742500", "184243.742500", "184244.742500", "184245.742500", "184246.742500", "184247.742500", "184248.742500", "184249.742500", "184250.742500", "184251.742500", "184252.742500", "184253.742500", "184254.742500", "184255.742500", "184256.742500", "184257.742500", "184258.742500", "184259.742500", "184300.742500", "184301.742500", "184302.742500", "184303.742500", "184304.742500", "184305.742500", "184306.742500", "184307.742500", "184308.742500", "184309.742500", "184310.742500", "184311.742500", "184312.742500", "184313.742500", "184314.742500", "184315.742500", "184316.742500", "184317.742500", "184318.742500", "184319.742500", "184320.742500", "184321.742500", "184322.742500", "184323.742500", "184324.742500", "184325.742500", "184326.742500", "184327.742500", "184328.742500", "184329.742500", "184330.742500", "184331.742500", "184332.742500", "184333.742500", "184334.742500", "184335.742500", "184336.742500", "184337.742500", "184338.742500", "184339.742500", "184340.742500", "184341.742500", "184342.742500", "184343.742500", "184344.742500", "184345.742500", "184346.742500", "184347.742500", "184348.742500", "184349.742500", "184350.742500", "184351.742500", "184352.742500", "184353.742500", "184354.742500", "184355.742500", "184356.742500", "184357.742500", "184358.742500", "184359.742500", "184400.742500", "184401.742500", "184402.742500", "184403.742500", "184404.742500", "184405.742500", "184406.742500", "184407.742500", "184408.742500", "184409.742500", "184410.742500", "184411.742500", "184412.742500", "184413.742500", "184414.742500", "184415.742500", "184416.742500", "184417.742500", "184418.742500", "184419.742500", "184420.742500", "184421.742500", "184422.742500", "184423.742500", "184424.742500", "184425.742500", "184426.742500", "184427.742500", "184428.742500", "184429.742500", "184430.742500", "184431.742500", "184432.742500", "184433.742500", "184434.742500", "184435.742500", "184436.742500", "184437.742500", "184438.742500", "184439.742500", "184440.742500", "184441.742500", "184442.742500", "184443.742500", "184444.742500", "184445.742500", "184446.742500", "184447.742500", "184448.742500", "184449.742500", "184450.742500", "184451.742500", "184452.742500", "184453.742500", "184454.742500", "184455.742500", "184456.742500", "184457.742500", "184458.742500", "184459.742500", "184500.742500", "184501.742500", "184502.742500", "184503.742500", "184504.742500", "184505.742500", "184506.742500", "184507.742500", "184508.742500", "184509.742500", "184510.742500", "184511.742500", "184512.742500", "184513.742500", "184514.742500", "184515.742500", "184516.742500", "184517.742500", "184518.742500", "184519.742500", "184520.742500", "184521.742500", "184522.742500", "184523.742500", "184524.742500", "184525.742500", "184526.742500", "184527.742500", "184528.742500", "184529.742500", "184530.742500", "184531.742500", "184532.742500", "184533.742500", "184534.742500", "184535.742500", "184536.742500", "184537.742500", "184538.742500", "184539.742500", "184540.742500", "184541.742500", "184542.742500", "184543.742500", "184544.742500", "184545.742500", "184546.742500", "184547.742500", "184548.742500", "184549.742500", "184550.742500", "184551.742500", "184552.742500", "184553.742500", "184554.742500", "184555.742500", "184556.742500", "184557.742500", "184558.742500", "184559.742500", "184600.742500", "184601.742500", "184602.742500", "184603.742500", "184604.742500", "184605.742500", "184606.742500", "184607.742500", "184608.742500", "184609.742500", "184610.742500", "184611.742500", "184612.742500", "184613.742500", "184614.742500", "184615.742500", "184616.742500", "184617.742500", "184618.742500", "184619.742500", "184620.742500", "184621.742500", "184622.742500", "184623.742500", "184624.742500", "184625.742500", "184626.742500", "184627.742500", "184628.742500", "184629.742500", "184630.742500", "184631.742500", "184632.742500", "184633.742500", "184634.742500", "184635.742500", "184636.742500", "184637.742500", "184638.742500", "184639.742500", "184640.742500", "184641.742500", "184642.742500", "184643.742500", "184644.742500", "184645.742500", "184646.742500", "184647.742500", "184648.742500", "184649.742500", "184650.742500", "184651.742500", "184652.742500", "184653.742500", "184654.742500", "184655.742500", "184656.742500", "184657.742500", "184658.742500", "184659.742500", "184700.742500", "184701.742500", "184702.742500", "184703.742500", "184704.742500", "184705.742500", "184706.742500", "184707.742500", "184708.742500", "184709.742500", "184710.742500", "184711.742500", "184712.742500", "184713.742500", "184714.742500", "184715.742500", "184716.742500", "184717.742500", "184718.742500", "184719.742500", "184720.742500", "184721.742500", "184722.742500", "184723.742500", "184724.742500", "184725.742500", "184726.742500", "184727.742500", "184728.742500", "184729.742500", "184730.742500", "184731.742500", "184732.742500", "184733.742500", "184734.742500", "184735.742500", "184736.742500", "184737.742500", "184738.742500", "184739.742500", "184740.742500", "184741.742500", "184742.742500", "184743.742500", "184744.742500", "184745.742500", "184746.742500", "184747.742500", "184748.742500", "184749.742500", "184750.742500", "184751.742500", "184752.742500", "184753.742500", "184754.742500", "184755.742500", "184756.742500", "184757.742500", "184758.742500", "184759.742500", "184800.742500", "184801.742500", "184802.742500", "184803.742500", "184804.742500", "184805.742500", "184806.742500", "184807.742500", "184808.742500", "184809.742500", "184810.742500", "184811.742500", "184812.742500", "184813.742500", "184814.742500", "184815.742500", "184816.742500", "184817.742500", "184818.742500", "184819.742500", "184820.742500", "184821.742500", "184822.742500", "184823.742500", "184824.742500", "184825.742500", "184826.742500", "184827.742500", "184828.742500", "184829.742500", "184830.742500", "184831.742500", "184832.742500", "184833.742500", "184834.742500", "184835.742500", "184836.742500", "184837.742500", "184838.742500", "184839.742500", "184840.742500", "184841.742500", "184842.742500", "184843.742500", "184844.742500", "184845.742500", "184846.742500", "184847.742500", "184848.742500", "184849.742500", "184850.742500", "184851.742500", "184852.742500", "184853.742500", "184854.742500", "184855.742500", "184856.742500", "184857.742500", "184858.742500", "184859.742500", "184900.742500", "184901.742500", "184902.742500", "184903.742500", "184904.742500", "184905.742500", "184906.742500", "184907.742500", "184908.742500", "184909.742500", "184910.742500", "184911.742500", "184912.742500", "184913.742500", "184914.742500", "184915.742500", "184916.742500", "184917.742500", "184918.742500", "184919.742500", "184920.742500", "184921.742500", "184922.742500", "184923.742500", "184924.742500", "184925.742500", "184926.742500", "184927.742500", "184928.742500", "184929.742500", "184930.742500", "184931.742500", "184932.742500", "184933.742500", "184934.742500", "184935.742500", "184936.742500"],
      "ContentTime": ["184228.925000", "184228.928000", "184228.931000", "184228.933000", "184228.936000", "184228.938000", "184228.941000", "184228.943000", "184228.946000", "184228.948000", "184228.951000", "184228.953000", "184228.956000", "184228.958000", "184228.971000", "184228.974000", "184228.977000", "184228.979000", "184228.981000", "184228.984000", "184228.986000", "184228.995000", "184228.998000", "184229.001000", "184229.004000", "184229.006000", "184229.009000", "184229.011000", "184229.014000", "184229.016000", "184229.019000", "184229.021000", "184229.024000", "184229.026000", "184229.029000", "184229.031000", "184229.033000", "184248.890000", "184248.893000", "184248.896000", "184248.898000", "184248.901000", "184248.903000", "184248.906000", "184248.908000", "184248.910000", "184248.913000", "184248.915000", "184248.933000", "184248.935000", "184248.938000", "184248.940000", "184248.942000", "184248.945000", "184248.947000", "184248.950000", "184248.952000", "184308.890000", "184308.893000", "184308.895000", "184308.898000", "184308.900000", "184308.903000", "184308.905000", "184308.908000", "184308.910000", "184308.913000", "184308.915000", "184308.918000", "184308.920000", "184308.922000", "184308.925000", "184308.927000", "184308.930000", "184308.932000", "184308.935000", "184308.937000", "184328.889000", "184328.892000", "184328.895000", "184328.897000", "184328.900000", "184328.902000", "184328.905000", "184328.907000", "184328.910000", "184328.912000", "184328.914000", "184328.917000", "184328.919000", "184328.922000", "184328.924000", "184328.927000", "184328.929000", "184328.932000", "184328.934000", "184328.937000", "184348.889000", "184348.892000", "184348.895000", "184348.897000", "184348.899000", "184348.902000", "184348.904000", "184348.907000", "184348.909000", "184348.912000", "184348.914000", "184348.917000", "184348.919000", "184348.922000", "184348.924000", "184348.927000", "184348.932000", "184348.934000", "184348.937000", "184348.939000", "184408.889000", "184408.892000", "184408.894000", "184408.897000", "184408.899000", "184408.902000", "184408.904000", "184408.907000", "184408.909000", "184408.912000", "184408.914000", "184408.917000", "184408.919000", "184408.922000", "184408.924000", "184408.927000", "184408.929000", "184408.931000", "184408.934000", "184408.936000", "184428.889000", "184428.892000", "184428.895000", "184428.897000", "184428.900000", "184428.902000", "184428.905000", "184428.907000", "184428.910000", "184428.912000", "184428.915000", "184428.917000", "184428.920000", "184428.922000", "184428.924000", "184428.927000", "184428.929000", "184428.932000", "184428.934000", "184428.937000", "184448.889000", "184448.892000", "184448.895000", "184448.897000", "184448.900000", "184448.902000", "184448.905000", "184448.907000", "184448.910000", "184448.912000", "184448.914000", "184448.917000", "184448.919000", "184448.922000", "184448.924000", "184448.927000", "184448.929000", "184448.932000", "184448.934000", "184448.937000", "184508.891000", "184508.893000", "184508.896000", "184508.898000", "184508.901000", "184508.903000", "184508.906000", "184508.908000", "184508.910000", "184508.913000", "184508.915000", "184508.918000", "184508.920000", "184508.923000", "184508.925000", "184508.928000", "184508.930000", "184508.933000", "184508.935000", "184508.938000", "184528.890000", "184528.893000", "184528.896000", "184528.898000", "184528.901000", "184528.903000", "184528.906000", "184528.908000", "184528.910000", "184528.913000", "184528.915000", "184528.918000", "184528.920000", "184528.923000", "184528.925000", "184528.928000", "184528.930000", "184528.933000", "184528.935000", "184528.938000", "184548.889000", "184548.892000", "184548.894000", "184548.897000", "184548.899000", "184548.902000", "184548.904000", "184548.907000", "184548.909000", "184548.912000", "184548.914000", "184548.917000", "184548.919000", "184548.922000", "184548.924000", "184548.927000", "184548.929000", "184548.932000", "184548.934000", "184548.937000", "184608.889000", "184608.892000", "184608.895000", "184608.897000", "184608.900000", "184608.902000", "184608.905000", "184608.907000", "184608.910000", "184608.912000", "184608.915000", "184608.917000", "184608.919000", "184608.922000", "184608.924000", "184608.927000", "184608.929000", "184608.932000", "184608.934000", "184608.937000", "184628.889000", "184628.892000", "184628.895000", "184628.897000", "184628.900000", "184628.902000", "184628.905000", "184628.907000", "184628.910000", "184628.912000", "184628.915000", "184628.917000", "184628.920000", "184628.922000", "184628.924000", "184628.927000", "184628.929000", "184628.932000", "184628.934000", "184628.937000", "184648.889000", "184648.901000", "184648.903000", "184648.906000", "184648.908000", "184648.911000", "184648.913000", "184648.916000", "184648.918000", "184648.921000", "184648.923000", "184648.926000", "184648.928000", "184648.931000", "184648.933000", "184648.936000", "184648.938000", "184648.940000", "184648.943000", "184648.945000", "184708.889000", "184708.892000", "184708.895000", "184708.897000", "184708.900000", "184708.902000", "184708.905000", "184708.907000", "184708.910000", "184708.912000", "184708.914000", "184708.917000", "184708.919000", "184708.922000", "184708.924000", "184708.927000", "184708.929000", "184708.932000", "184708.934000", "184708.937000", "184728.890000", "184728.893000", "184728.896000", "184728.898000", "184728.901000", "184728.903000", "184728.906000", "184728.908000", "184728.911000", "184728.913000", "184728.915000", "184728.918000", "184728.921000", "184728.923000", "184728.925000", "184728.928000", "184728.930000", "184728.933000", "184728.935000", "184728.938000", "184748.890000", "184748.893000", "184748.896000", "184748.898000", "184748.900000", "184748.903000", "184748.905000", "184748.908000", "184748.910000", "184748.913000", "184748.915000", "184748.918000", "184748.920000", "184748.923000", "184748.925000", "184748.928000", "184748.930000", "184748.933000", "184748.935000", "184748.938000", "184808.889000", "184808.892000", "184808.895000", "184808.897000", "184808.900000", "184808.902000", "184808.905000", "184808.907000", "184808.910000", "184808.912000", "184808.914000", "184808.917000", "184808.919000", "184808.922000", "184808.924000", "184808.927000", "184808.929000", "184808.932000", "184808.934000", "184808.937000", "184828.889000", "184828.892000", "184828.895000", "184828.897000", "184828.900000", "184828.902000", "184828.905000", "184828.907000", "184828.909000", "184828.912000", "184828.914000", "184828.917000", "184828.919000", "184828.922000", "184828.924000", "184828.927000", "184828.929000", "184828.932000", "184828.934000", "184828.937000", "184848.889000", "184848.892000", "184848.895000", "184848.897000", "184848.900000", "184848.902000", "184848.905000", "184848.907000", "184848.910000", "184848.912000", "184848.915000", "184848.917000", "184848.919000", "184848.922000", "184848.925000", "184848.927000", "184848.929000", "184848.932000", "184848.934000", "184848.937000", "184908.890000", "184908.892000", "184908.895000", "184908.897000", "184908.900000", "184908.903000", "184908.905000", "184908.908000", "184908.910000", "184908.913000", "184908.915000", "184908.918000", "184908.920000", "184908.923000", "184908.925000", "184908.928000", "184908.930000", "184908.932000", "184908.935000", "184908.937000", "184928.889000", "184928.892000", "184928.895000", "184928.897000", "184928.900000", "184928.902000", "184928.905000", "184928.907000", "184928.910000", "184928.912000", "184928.915000", "184928.917000", "184928.920000", "184928.922000", "184928.925000", "184928.927000", "184928.930000", "184928.932000", "184928.934000", "184928.937000", "184938.493000", "184938.495000", "184938.498000", "184938.501000", "184938.503000", "184938.506000", "184938.508000", "184938.511000", "184938.514000", "184938.516000"],
