{
  "AcquisitionMatrixPE": 106,
  "AcquisitionNumber": 1,
  "AcquisitionTime": "12:16:45.730000",
  "BandwidthPerPixelPhaseEncode": 16.846,
  "BaseResolution": 106,
  "BodyPartExamined": "BRAIN",
  "CoilCombinationMethod": "Sum of Squares",
  "ConsistencyInfo": "N4_VE11C_LATEST_20160120",
  "ConversionSoftware": "dcm2niix",
  "ConversionSoftwareVersion": "v1.0.20220720",
  "DerivedVendorReportedEchoSpacing": 0.000560012,
  "DeviceSerialNumber": "166108",
  "DwellTime": 1.8e-06,
  "EchoTime": 0.0352,
  "EchoTrainLength": 106,
  "EffectiveEchoSpacing": 0.000560012,
  "FlipAngle": 60,
  "HeudiconvVersion": "1.3.0",
  "ImageComments": "Unaliased MB4/PE3/LB",
  "ImageOrientationPatientDICOM": [1, 0, 0, 0, 1, 0],
  "ImageOrientationText": "Tra",
  "ImageType": [
    "ORIGINAL",
    "PRIMARY",
    "M",
    "MB",
    "ND",
    "MOSAIC"
],
  "ImagingFrequency": 123.244,
  "InPlanePhaseEncodingDirectionDICOM": "COL",
  "InstitutionAddress": "Bedford Way 26,London,London,GB,WC1H 0AP",
  "InstitutionName": "University College",
  "InstitutionalDepartmentName": "Department",
  "MRAcquisitionType": "2D",
  "MagneticFieldStrength": 3,
  "Manufacturer": "Siemens",
  "ManufacturersModelName": "Prisma",
  "MatrixCoilMode": "SENSE",
  "Modality": "MR",
  "MultibandAccelerationFactor": 4,
  "NonlinearGradientCorrection": false,
  "PartialFourier": 1,
  "PatientPosition": "HFS",
  "PercentPhaseFOV": 100,
  "PercentSampling": 100,
  "PhaseEncodingDirection": "j-",
  "PhaseEncodingSteps": 106,
  "PhaseResolution": 1,
  "PixelBandwidth": 2620,
  "ProcedureStepDescription": "Egor^MovieProject2",
  "ProtocolName": "task-backtothefuture_run-2",
  "PulseSequenceDetails": "%CustomerSeq%\\cmrr_mbep2d_bold",
  "ReceiveCoilActiveElements": "HEA;HEP",
  "ReceiveCoilName": "Head_32",
  "ReconMatrixPE": 106,
  "RepetitionTime": 1.5,
  "SAR": 0.0657289,
  "ScanOptions": "FS\\EXT",
  "ScanningSequence": "EP",
  "SequenceName": "epfid2d1_106",
  "SequenceVariant": "SK\\SS",
  "SeriesDescription": "task-backtothefuture_run-2",
  "SeriesNumber": 7,
  "ShimSetting": [-1587, 640, 7421, 411, -92, 212, 37, -33],
  "SliceThickness": 2,
  "SliceTiming": [0, 1.07, 0.66, 0.2475, 1.3175, 0.905, 0.495, 0.0825, 1.1525, 0.74, 0.33, 1.4, 0.9875, 0.5775, 0.165, 1.235, 0.8225, 0.4125, 0, 1.07, 0.66, 0.2475, 1.3175, 0.905, 0.495, 0.0825, 1.1525, 0.74, 0.33, 1.4, 0.9875, 0.5775, 0.165, 1.235, 0.8225, 0.4125, 0, 1.07, 0.66, 0.2475, 1.3175, 0.905, 0.495, 0.0825, 1.1525, 0.74, 0.33, 1.4, 0.9875, 0.5775, 0.165, 1.235, 0.8225, 0.4125, 0, 1.07, 0.66, 0.2475, 1.3175, 0.905, 0.495, 0.0825, 1.1525, 0.74, 0.33, 1.4, 0.9875, 0.5775, 0.165, 1.235, 0.8225, 0.4125],
  "SoftwareVersions": "syngo MR E11",
  "SpacingBetweenSlices": 2,
  "StationName": "AWP166108",
  "TaskName": "backtothefuture",
  "TotalReadoutTime": 0.0588013,
  "TxRefAmp": 221.82,
  "WipMemBlock": "5bdaf291-6d6c-401a-b30f-7bf850e567b6||Sequence: R016 ve11c/master r/e634e98; Dec 19 2017 11:00:25 by eja",
  "dcmmeta_affine": [
    [-2.0, 0.0, 0.0, 106.0],
    [0.0, 2.0, 0.0, -88.33734893798828],
    [0.0, 0.0, 2.0, -61.361446380615234],
    [0.0, 0.0, 0.0, 1.0]
],
  "dcmmeta_reorient_transform": [
    [0.0, -1.0, 0.0, 105.0],
    [1.0, 0.0, 0.0, 0.0],
    [0.0, 0.0, 1.0, 0.0],
    [0.0, 0.0, 0.0, 1.0]
],
  "dcmmeta_shape": [106, 106, 72, 1522],
  "dcmmeta_slice_dim": 2,
  "dcmmeta_version": 0.6,
  "global": {
    "const": {
      "AcquisitionMatrix": [106, 0, 0, 106],
      "AngioFlag": "N",
      "BitsAllocated": 16,
      "BitsStored": 16,
      "BodyPartExamined": "BRAIN",
      "CardiacNumberOfImages": 1,
      "Columns": 954,
      "EchoNumbers": 1,
      "EchoTime": 35.2,
      "EchoTrainLength": 106,
      "FlipAngle": 60.0,
      "HighBit": 15,
      "ImageOrientationPatient": [1.0, 0.0, 0.0, 0.0, 1.0, 0.0],
      "ImagePositionPatient": [-954.0, -969.66265106201, -61.361446380615],
      "ImageType": [
        "ORIGINAL",
        "PRIMARY",
        "M",
        "MB",
        "ND",
        "MOSAIC"
],
      "ImagedNucleus": "1H",
      "ImagingFrequency": 123.243721,
      "InPlanePhaseEncodingDirection": "COL",
      "MRAcquisitionType": "2D",
      "MagneticFieldStrength": 3.0,
      "Manufacturer": "SIEMENS",
      "ManufacturerModelName": "Prisma",
      "Modality": "MR",
      "NominalInterval": 0,
      "NumberOfAverages": 1.0,
      "NumberOfPhaseEncodingSteps": 106,
      "PercentPhaseFieldOfView": 100.0,
      "PercentSampling": 100.0,
      "PerformedProcedureStepStartTime": "110729.579000",
      "PhotometricInterpretation": "MONOCHROME2",
      "PixelBandwidth": 2620.0,
      "PixelRepresentation": 0,
      "PixelSpacing": [2.0, 2.0],
      "ProtocolName": "task-backtothefuture_run-2",
      "RepetitionTime": 1500.0,
      "Rows": 954,
      "SAR": 0.06572893722861,
      "SamplesPerPixel": 1,
      "ScanOptions": [
        "FS",
        "EXT"
],
      "ScanningSequence": "EP",
      "SequenceName": "epfid2d1_106",
      "SequenceVariant": [
        "SK",
        "SS"
],
      "SeriesDescription": "task-backtothefuture_run-2",
      "SeriesNumber": 7,
      "SeriesTime": "121732.712000",
      "SliceLocation": -61.361446380615,
      "SliceThickness": 2.0,
      "SmallestImagePixelValue": 0,
      "SoftwareVersions": "syngo MR E11",
      "SpacingBetweenSlices": 2.0000000537281,
      "SpecificCharacterSet": "ISO_IR 100",
      "StudyID": "1",
      "StudyTime": "110729.519000",
      "TransmitCoilName": "Body",
      "VariableFlipAngleFlag": "N",
      "WindowCenterWidthExplanation": "Algo1",
      "dBdt": 0.0},
    "slices": {}
  },
  "time": {
    "samples": {
      "AcquisitionNumber": [1, 2, 3, 4, 5, 6, 7, 8, 9, 10, 11, 12, 13, 14, 15, 16, 17, 18, 19, 20, 21, 22, 23, 24, 25, 26, 27, 28, 29, 30, 31, 32, 33, 34, 35, 36, 37, 38, 39, 40, 41, 42, 43, 44, 45, 46, 47, 48, 49, 50, 51, 52, 53, 54, 55, 56, 57, 58, 59, 60, 61, 62, 63, 64, 65, 66, 67, 68, 69, 70, 71, 72, 73, 74, 75, 76, 77, 78, 79, 80, 81, 82, 83, 84, 85, 86, 87, 88, 89, 90, 91, 92, 93, 94, 95, 96, 97, 98, 99, 100, 101, 102, 103, 104, 105, 106, 107, 108, 109, 110, 111, 112, 113, 114, 115, 116, 117, 118, 119, 120, 121, 122, 123, 124, 125, 126, 127, 128, 129, 130, 131, 132, 133, 134, 135, 136, 137, 138, 139, 140, 141, 142, 143, 144, 145, 146, 147, 148, 149, 150, 151, 152, 153, 154, 155, 156, 157, 158, 159, 160, 161, 162, 163, 164, 165, 166, 167, 168, 169, 170, 171, 172, 173, 174, 175, 176, 177, 178, 179, 180, 181, 182, 183, 184, 185, 186, 187, 188, 189, 190, 191, 192, 193, 194, 195, 196, 197, 198, 199, 200, 201, 202, 203, 204, 205, 206, 207, 208, 209, 210, 211, 212, 213, 214, 215, 216, 217, 218, 219, 220, 221, 222, 223, 224, 225, 226, 227, 228, 229, 230, 231, 232, 233, 234, 235, 236, 237, 238, 239, 240, 241, 242, 243, 244, 245, 246, 247, 248, 249, 250, 251, 252, 253, 254, 255, 256, 257, 258, 259, 260, 261, 262, 263, 264, 265, 266, 267, 268, 269, 270, 271, 272, 273, 274, 275, 276, 277, 278, 279, 280, 281, 282, 283, 284, 285, 286, 287, 288, 289, 290, 291, 292, 293, 294, 295, 296, 297, 298, 299, 300, 301, 302, 303, 304, 305, 306, 307, 308, 309, 310, 311, 312, 313, 314, 315, 316, 317, 318, 319, 320, 321, 322, 323, 324, 325, 326, 327, 328, 329, 330, 331, 332, 333, 334, 335, 336, 337, 338, 339, 340, 341, 342, 343, 344, 345, 346, 347, 348, 349, 350, 351, 352, 353, 354, 355, 356, 357, 358, 359, 360, 361, 362, 363, 364, 365, 366, 367, 368, 369, 370, 371, 372, 373, 374, 375, 376, 377, 378, 379, 380, 381, 382, 383, 384, 385, 386, 387, 388, 389, 390, 391, 392, 393, 394, 395, 396, 397, 398, 399, 400, 401, 402, 403, 404, 405, 406, 407, 408, 409, 410, 411, 412, 413, 414, 415, 416, 417, 418, 419, 420, 421, 422, 423, 424, 425, 426, 427, 428, 429, 430, 431, 432, 433, 434, 435, 436, 437, 438, 439, 440, 441, 442, 443, 444, 445, 446, 447, 448, 449, 450, 451, 452, 453, 454, 455, 456, 457, 458, 459, 460, 461, 462, 463, 464, 465, 466, 467, 468, 469, 470, 471, 472, 473, 474, 475, 476, 477, 478, 479, 480, 481, 482, 483, 484, 485, 486, 487, 488, 489, 490, 491, 492, 493, 494, 495, 496, 497, 498, 499, 500, 501, 502, 503, 504, 505, 506, 507, 508, 509, 510, 511, 512, 513, 514, 515, 516, 517, 518, 519, 520, 521, 522, 523, 524, 525, 526, 527, 528, 529, 530, 531, 532, 533, 534, 535, 536, 537, 538, 539, 540, 541, 542, 543, 544, 545, 546, 547, 548, 549, 550, 551, 552, 553, 554, 555, 556, 557, 558, 559, 560, 561, 562, 563, 564, 565, 566, 567, 568, 569, 570, 571, 572, 573, 574, 575, 576, 577, 578, 579, 580, 581, 582, 583, 584, 585, 586, 587, 588, 589, 590, 591, 592, 593, 594, 595, 596, 597, 598, 599, 600, 601, 602, 603, 604, 605, 606, 607, 608, 609, 610, 611, 612, 613, 614, 615, 616, 617, 618, 619, 620, 621, 622, 623, 624, 625, 626, 627, 628, 629, 630, 631, 632, 633, 634, 635, 636, 637, 638, 639, 640, 641, 642, 643, 644, 645, 646, 647, 648, 649, 650, 651, 652, 653, 654, 655, 656, 657, 658, 659, 660, 661, 662, 663, 664, 665, 666, 667, 668, 669, 670, 671, 672, 673, 674, 675, 676, 677, 678, 679, 680, 681, 682, 683, 684, 685, 686, 687, 688, 689, 690, 691, 692, 693, 694, 695, 696, 697, 698, 699, 700, 701, 702, 703, 704, 705, 706, 707, 708, 709, 710, 711, 712, 713, 714, 715, 716, 717, 718, 719, 720, 721, 722, 723, 724, 725, 726, 727, 728, 729, 730, 731, 732, 733, 734, 735, 736, 737, 738, 739, 740, 741, 742, 743, 744, 745, 746, 747, 748, 749, 750, 751, 752, 753, 754, 755, 756, 757, 758, 759, 760, 761, 762, 763, 764, 765, 766, 767, 768, 769, 770, 771, 772, 773, 774, 775, 776, 777, 778, 779, 780, 781, 782, 783, 784, 785, 786, 787, 788, 789, 790, 791, 792, 793, 794, 795, 796, 797, 798, 799, 800, 801, 802, 803, 804, 805, 806, 807, 808, 809, 810, 811, 812, 813, 814, 815, 816, 817, 818, 819, 820, 821, 822, 823, 824, 825, 826, 827, 828, 829, 830, 831, 832, 833, 834, 835, 836, 837, 838, 839, 840, 841, 842, 843, 844, 845, 846, 847, 848, 849, 850, 851, 852, 853, 854, 855, 856, 857, 858, 859, 860, 861, 862, 863, 864, 865, 866, 867, 868, 869, 870, 871, 872, 873, 874, 875, 876, 877, 878, 879, 880, 881, 882, 883, 884, 885, 886, 887, 888, 889, 890, 891, 892, 893, 894, 895, 896, 897, 898, 899, 900, 901, 902, 903, 904, 905, 906, 907, 908, 909, 910, 911, 912, 913, 914, 915, 916, 917, 918, 919, 920, 921, 922, 923, 924, 925, 926, 927, 928, 929, 930, 931, 932, 933, 934, 935, 936, 937, 938, 939, 940, 941, 942, 943, 944, 945, 946, 947, 948, 949, 950, 951, 952, 953, 954, 955, 956, 957, 958, 959, 960, 961, 962, 963, 964, 965, 966, 967, 968, 969, 970, 971, 972, 973, 974, 975, 976, 977, 978, 979, 980, 981, 982, 983, 984, 985, 986, 987, 988, 989, 990, 991, 992, 993, 994, 995, 996, 997, 998, 999, 1000, 1001, 1002, 1003, 1004, 1005, 1006, 1007, 1008, 1009, 1010, 1011, 1012, 1013, 1014, 1015, 1016, 1017, 1018, 1019, 1020, 1021, 1022, 1023, 1024, 1025, 1026, 1027, 1028, 1029, 1030, 1031, 1032, 1033, 1034, 1035, 1036, 1037, 1038, 1039, 1040, 1041, 1042, 1043, 1044, 1045, 1046, 1047, 1048, 1049, 1050, 1051, 1052, 1053, 1054, 1055, 1056, 1057, 1058, 1059, 1060, 1061, 1062, 1063, 1064, 1065, 1066, 1067, 1068, 1069, 1070, 1071, 1072, 1073, 1074, 1075, 1076, 1077, 1078, 1079, 1080, 1081, 1082, 1083, 1084, 1085, 1086, 1087, 1088, 1089, 1090, 1091, 1092, 1093, 1094, 1095, 1096, 1097, 1098, 1099, 1100, 1101, 1102, 1103, 1104, 1105, 1106, 1107, 1108, 1109, 1110, 1111, 1112, 1113, 1114, 1115, 1116, 1117, 1118, 1119, 1120, 1121, 1122, 1123, 1124, 1125, 1126, 1127, 1128, 1129, 1130, 1131, 1132, 1133, 1134, 1135, 1136, 1137, 1138, 1139, 1140, 1141, 1142, 1143, 1144, 1145, 1146, 1147, 1148, 1149, 1150, 1151, 1152, 1153, 1154, 1155, 1156, 1157, 1158, 1159, 1160, 1161, 1162, 1163, 1164, 1165, 1166, 1167, 1168, 1169, 1170, 1171, 1172, 1173, 1174, 1175, 1176, 1177, 1178, 1179, 1180, 1181, 1182, 1183, 1184, 1185, 1186, 1187, 1188, 1189, 1190, 1191, 1192, 1193, 1194, 1195, 1196, 1197, 1198, 1199, 1200, 1201, 1202, 1203, 1204, 1205, 1206, 1207, 1208, 1209, 1210, 1211, 1212, 1213, 1214, 1215, 1216, 1217, 1218, 1219, 1220, 1221, 1222, 1223, 1224, 1225, 1226, 1227, 1228, 1229, 1230, 1231, 1232, 1233, 1234, 1235, 1236, 1237, 1238, 1239, 1240, 1241, 1242, 1243, 1244, 1245, 1246, 1247, 1248, 1249, 1250, 1251, 1252, 1253, 1254, 1255, 1256, 1257, 1258, 1259, 1260, 1261, 1262, 1263, 1264, 1265, 1266, 1267, 1268, 1269, 1270, 1271, 1272, 1273, 1274, 1275, 1276, 1277, 1278, 1279, 1280, 1281, 1282, 1283, 1284, 1285, 1286, 1287, 1288, 1289, 1290, 1291, 1292, 1293, 1294, 1295, 1296, 1297, 1298, 1299, 1300, 1301, 1302, 1303, 1304, 1305, 1306, 1307, 1308, 1309, 1310, 1311, 1312, 1313, 1314, 1315, 1316, 1317, 1318, 1319, 1320, 1321, 1322, 1323, 1324, 1325, 1326, 1327, 1328, 1329, 1330, 1331, 1332, 1333, 1334, 1335, 1336, 1337, 1338, 1339, 1340, 1341, 1342, 1343, 1344, 1345, 1346, 1347, 1348, 1349, 1350, 1351, 1352, 1353, 1354, 1355, 1356, 1357, 1358, 1359, 1360, 1361, 1362, 1363, 1364, 1365, 1366, 1367, 1368, 1369, 1370, 1371, 1372, 1373, 1374, 1375, 1376, 1377, 1378, 1379, 1380, 1381, 1382, 1383, 1384, 1385, 1386, 1387, 1388, 1389, 1390, 1391, 1392, 1393, 1394, 1395, 1396, 1397, 1398, 1399, 1400, 1401, 1402, 1403, 1404, 1405, 1406, 1407, 1408, 1409, 1410, 1411, 1412, 1413, 1414, 1415, 1416, 1417, 1418, 1419, 1420, 1421, 1422, 1423, 1424, 1425, 1426, 1427, 1428, 1429, 1430, 1431, 1432, 1433, 1434, 1435, 1436, 1437, 1438, 1439, 1440, 1441, 1442, 1443, 1444, 1445, 1446, 1447, 1448, 1449, 1450, 1451, 1452, 1453, 1454, 1455, 1456, 1457, 1458, 1459, 1460, 1461, 1462, 1463, 1464, 1465, 1466, 1467, 1468, 1469, 1470, 1471, 1472, 1473, 1474, 1475, 1476, 1477, 1478, 1479, 1480, 1481, 1482, 1483, 1484, 1485, 1486, 1487, 1488, 1489, 1490, 1491, 1492, 1493, 1494, 1495, 1496, 1497, 1498, 1499, 1500, 1501, 1502, 1503, 1504, 1505, 1506, 1507, 1508, 1509, 1510, 1511, 1512, 1513, 1514, 1515, 1516, 1517, 1518, 1519, 1520, 1521, 1522],
      "AcquisitionTime": ["121645.730000", "121647.230000", "121648.730000", "121650.230000", "121651.730000", "121653.230000", "121654.730000", "121656.230000", "121657.730000", "121659.230000", "121700.730000", "121702.230000", "121703.730000", "121705.230000", "121706.730000", "121708.230000", "121709.730000", "121711.230000", "121712.730000", "121714.230000", "121715.730000", "121717.230000", "121718.730000", "121720.230000", "121721.730000", "121723.230000", "121724.730000", "121726.230000", "121727.730000", "121729.230000", "121730.730000", "121732.230000", "121733.730000", "121735.230000", "121736.730000", "121738.230000", "121739.730000", "121741.230000", "121742.730000", "121744.230000", "121745.730000", "121747.230000", "121748.730000", "121750.230000", "121751.730000", "121753.230000", "121754.730000", "121756.230000", "121757.730000", "121759.230000", "121800.730000", "121802.230000", "121803.730000", "121805.230000", "121806.730000", "121808.230000", "121809.730000", "121811.230000", "121812.730000", "121814.230000", "121815.730000", "121817.230000", "121818.730000", "121820.230000", "121821.730000", "121823.230000", "121824.730000", "121826.230000", "121827.730000", "121829.230000", "121830.730000", "121832.230000", "121833.730000", "121835.230000", "121836.730000", "121838.230000", "121839.730000", "121841.230000", "121842.730000", "121844.230000", "121845.730000", "121847.230000", "121848.730000", "121850.230000", "121851.730000", "121853.230000", "121854.730000", "121856.230000", "121857.730000", "121859.230000", "121900.730000", "121902.230000", "121903.730000", "121905.230000", "121906.730000", "121908.230000", "121909.730000", "121911.230000", "121912.730000", "121914.230000", "121915.730000", "121917.230000", "121918.730000", "121920.230000", "121921.730000", "121923.230000", "121924.730000", "121926.230000", "121927.730000", "121929.230000", "121930.730000", "121932.230000", "121933.730000", "121935.230000", "121936.730000", "121938.230000", "121939.730000", "121941.230000", "121942.730000", "121944.230000", "121945.730000", "121947.230000", "121948.730000", "121950.230000", "121951.730000", "121953.230000", "121954.730000", "121956.230000", "121957.730000", "121959.230000", "122000.730000", "122002.230000", "122003.730000", "122005.230000", "122006.730000", "122008.230000", "122009.730000", "122011.230000", "122012.730000", "122014.230000", "122015.730000", "122017.230000", "122018.730000", "122020.230000", "122021.730000", "122023.230000", "122024.730000", "122026.230000", "122027.730000", "122029.230000", "122030.730000", "122032.230000", "122033.730000", "122035.230000", "122036.730000", "122038.230000", "122039.730000", "122041.230000", "122042.730000", "122044.230000", "122045.730000", "122047.230000", "122048.730000", "122050.230000", "122051.730000", "122053.230000", "122054.730000", "122056.230000", "122057.730000", "122059.230000", "122100.730000", "122102.230000", "122103.730000", "122105.230000", "122106.730000", "122108.230000", "122109.730000", "122111.230000", "122112.730000", "122114.230000", "122115.730000", "122117.230000", "122118.730000", "122120.230000", "122121.730000", "122123.230000", "122124.730000", "122126.230000", "122127.730000", "122129.230000", "122130.730000", "122132.230000", "122133.730000", "122135.230000", "122136.730000", "122138.230000", "122139.730000", "122141.230000", "122142.730000", "122144.230000", "122145.730000", "122147.230000", "122148.730000", "122150.230000", "122151.730000", "122153.230000", "122154.730000", "122156.230000", "122157.730000", "122159.230000", "122200.730000", "122202.230000", "122203.730000", "122205.230000", "122206.730000", "122208.230000", "122209.730000", "122211.230000", "122212.730000", "122214.230000", "122215.730000", "122217.230000", "122218.730000", "122220.230000", "122221.730000", "122223.230000", "122224.730000", "122226.230000", "122227.730000", "122229.230000", "122230.730000", "122232.230000", "122233.730000", "122235.230000", "122236.730000", "122238.230000", "122239.730000", "122241.230000", "122242.730000", "122244.230000", "122245.730000", "122247.230000", "122248.730000", "122250.230000", "122251.730000", "122253.230000", "122254.730000", "122256.230000", "122257.730000", "122259.230000", "122300.730000", "122302.230000", "122303.730000", "122305.230000", "122306.730000", "122308.230000", "122309.730000", "122311.230000", "122312.730000", "122314.230000", "122315.730000", "122317.230000", "122318.730000", "122320.230000", "122321.730000", "122323.230000", "122324.730000", "122326.230000", "122327.730000", "122329.230000", "122330.730000", "122332.230000", "122333.730000", "122335.230000", "122336.730000", "122338.230000", "122339.730000", "122341.230000", "122342.730000", "122344.230000", "122345.730000", "122347.230000", "122348.730000", "122350.230000", "122351.730000", "122353.230000", "122354.730000", "122356.230000", "122357.730000", "122359.230000", "122400.730000", "122402.230000", "122403.730000", "122405.230000", "122406.730000", "122408.230000", "122409.730000", "122411.230000", "122412.730000", "122414.230000", "122415.730000", "122417.230000", "122418.730000", "122420.230000", "122421.730000", "122423.230000", "122424.730000", "122426.230000", "122427.730000", "122429.230000", "122430.730000", "122432.230000", "122433.730000", "122435.230000", "122436.730000", "122438.230000", "122439.730000", "122441.230000", "122442.730000", "122444.230000", "122445.730000", "122447.230000", "122448.730000", "122450.230000", "122451.730000", "122453.230000", "122454.730000", "122456.230000", "122457.730000", "122459.230000", "122500.730000", "122502.230000", "122503.730000", "122505.230000", "122506.730000", "122508.230000", "122509.730000", "122511.230000", "122512.730000", "122514.230000", "122515.730000", "122517.230000", "122518.730000", "122520.230000", "122521.730000", "122523.230000", "122524.730000", "122526.230000", "122527.730000", "122529.230000", "122530.730000", "122532.230000", "122533.730000", "122535.230000", "122536.730000", "122538.230000", "122539.730000", "122541.230000", "122542.730000", "122544.230000", "122545.730000", "122547.230000", "122548.730000", "122550.230000", "122551.730000", "122553.230000", "122554.730000", "122556.230000", "122557.730000", "122559.230000", "122600.730000", "122602.230000", "122603.730000", "122605.230000", "122606.730000", "122608.230000", "122609.730000", "122611.230000", "122612.730000", "122614.230000", "122615.730000", "122617.230000", "122618.730000", "122620.230000", "122621.730000", "122623.230000", "122624.730000", "122626.230000", "122627.730000", "122629.230000", "122630.730000", "122632.230000", "122633.730000", "122635.230000", "122636.730000", "122638.230000", "122639.730000", "122641.230000", "122642.730000", "122644.230000", "122645.730000", "122647.230000", "122648.730000", "122650.230000", "122651.730000", "122653.230000", "122654.730000", "122656.230000", "122657.730000", "122659.230000", "122700.730000", "122702.230000", "122703.730000", "122705.230000", "122706.730000", "122708.230000", "122709.730000", "122711.230000", "122712.730000", "122714.230000", "122715.730000", "122717.230000", "122718.730000", "122720.230000", "122721.730000", "122723.230000", "122724.730000", "122726.230000", "122727.730000", "122729.230000", "122730.730000", "122732.230000", "122733.730000", "122735.230000", "122736.730000", "122738.230000", "122739.730000", "122741.230000", "122742.730000", "122744.230000", "122745.730000", "122747.230000", "122748.730000", "122750.230000", "122751.730000", "122753.230000", "122754.730000", "122756.230000", "122757.730000", "122759.230000", "122800.730000", "122802.230000", "122803.730000", "122805.230000", "122806.730000", "122808.230000", "122809.730000", "122811.230000", "122812.730000", "122814.230000", "122815.730000", "122817.230000", "122818.730000", "122820.230000", "122821.730000", "122823.230000", "122824.730000", "122826.230000", "122827.730000", "122829.230000", "122830.730000", "122832.230000", "122833.730000", "122835.230000", "122836.730000", "122838.230000", "122839.730000", "122841.230000", "122842.730000", "122844.230000", "122845.730000", "122847.230000", "122848.730000", "122850.230000", "122851.730000", "122853.230000", "122854.730000", "122856.230000", "122857.730000", "122859.230000", "122900.730000", "122902.230000", "122903.730000", "122905.230000", "122906.730000", "122908.230000", "122909.730000", "122911.230000", "122912.730000", "122914.230000", "122915.730000", "122917.230000", "122918.730000", "122920.230000", "122921.730000", "122923.230000", "122924.730000", "122926.230000", "122927.730000", "122929.230000", "122930.730000", "122932.230000", "122933.730000", "122935.230000", "122936.730000", "122938.230000", "122939.730000", "122941.230000", "122942.730000", "122944.230000", "122945.730000", "122947.230000", "122948.730000", "122950.230000", "122951.730000", "122953.230000", "122954.730000", "122956.230000", "122957.730000", "122959.230000", "123000.730000", "123002.230000", "123003.730000", "123005.230000", "123006.730000", "123008.230000", "123009.730000", "123011.230000", "123012.730000", "123014.230000", "123015.730000", "123017.230000", "123018.730000", "123020.230000", "123021.730000", "123023.230000", "123024.730000", "123026.230000", "123027.730000", "123029.230000", "123030.730000", "123032.230000", "123033.730000", "123035.230000", "123036.730000", "123038.230000", "123039.730000", "123041.230000", "123042.730000", "123044.230000", "123045.730000", "123047.230000", "123048.730000", "123050.230000", "123051.730000", "123053.230000", "123054.730000", "123056.230000", "123057.730000", "123059.230000", "123100.730000", "123102.230000", "123103.730000", "123105.230000", "123106.730000", "123108.230000", "123109.730000", "123111.230000", "123112.730000", "123114.230000", "123115.730000", "123117.230000", "123118.730000", "123120.230000", "123121.730000", "123123.230000", "123124.730000", "123126.230000", "123127.730000", "123129.230000", "123130.730000", "123132.230000", "123133.730000", "123135.230000", "123136.730000", "123138.230000", "123139.730000", "123141.230000", "123142.730000", "123144.230000", "123145.730000", "123147.230000", "123148.730000", "123150.230000", "123151.730000", "123153.230000", "123154.730000", "123156.230000", "123157.730000", "123159.230000", "123200.730000", "123202.230000", "123203.730000", "123205.230000", "123206.730000", "123208.230000", "123209.730000", "123211.230000", "123212.730000", "123214.230000", "123215.730000", "123217.230000", "123218.730000", "123220.230000", "123221.730000", "123223.230000", "123224.730000", "123226.230000", "123227.730000", "123229.230000", "123230.730000", "123232.230000", "123233.730000", "123235.230000", "123236.730000", "123238.230000", "123239.730000", "123241.230000", "123242.730000", "123244.230000", "123245.730000", "123247.230000", "123248.730000", "123250.230000", "123251.730000", "123253.230000", "123254.730000", "123256.230000", "123257.730000", "123259.230000", "123300.730000", "123302.230000", "123303.730000", "123305.230000", "123306.730000", "123308.230000", "123309.730000", "123311.230000", "123312.730000", "123314.230000", "123315.730000", "123317.230000", "123318.730000", "123320.230000", "123321.730000", "123323.230000", "123324.730000", "123326.230000", "123327.730000", "123329.230000", "123330.730000", "123332.230000", "123333.730000", "123335.230000", "123336.730000", "123338.230000", "123339.730000", "123341.230000", "123342.730000", "123344.230000", "123345.730000", "123347.230000", "123348.730000", "123350.230000", "123351.730000", "123353.230000", "123354.730000", "123356.230000", "123357.730000", "123359.230000", "123400.730000", "123402.230000", "123403.730000", "123405.230000", "123406.730000", "123408.230000", "123409.730000", "123411.230000", "123412.730000", "123414.230000", "123415.730000", "123417.230000", "123418.730000", "123420.230000", "123421.730000", "123423.230000", "123424.730000", "123426.230000", "123427.730000", "123429.230000", "123430.730000", "123432.230000", "123433.730000", "123435.230000", "123436.730000", "123438.230000", "123439.730000", "123441.230000", "123442.730000", "123444.230000", "123445.730000", "123447.230000", "123448.730000", "123450.230000", "123451.730000", "123453.230000", "123454.730000", "123456.230000", "123457.730000", "123459.230000", "123500.730000", "123502.230000", "123503.730000", "123505.230000", "123506.730000", "123508.230000", "123509.730000", "123511.230000", "123512.730000", "123514.230000", "123515.730000", "123517.230000", "123518.730000", "123520.230000", "123521.730000", "123523.230000", "123524.730000", "123526.230000", "123527.730000", "123529.230000", "123530.730000", "123532.230000", "123533.730000", "123535.230000", "123536.730000", "123538.230000", "123539.730000", "123541.230000", "123542.730000", "123544.230000", "123545.730000", "123547.230000", "123548.730000", "123550.230000", "123551.730000", "123553.230000", "123554.730000", "123556.230000", "123557.730000", "123559.230000", "123600.730000", "123602.230000", "123603.730000", "123605.230000", "123606.730000", "123608.230000", "123609.730000", "123611.230000", "123612.730000", "123614.230000", "123615.730000", "123617.230000", "123618.730000", "123620.230000", "123621.730000", "123623.230000", "123624.730000", "123626.230000", "123627.730000", "123629.230000", "123630.730000", "123632.230000", "123633.730000", "123635.230000", "123636.730000", "123638.230000", "123639.730000", "123641.230000", "123642.730000", "123644.230000", "123645.730000", "123647.230000", "123648.730000", "123650.230000", "123651.730000", "123653.230000", "123654.730000", "123656.230000", "123657.730000", "123659.230000", "123700.730000", "123702.230000", "123703.730000", "123705.230000", "123706.730000", "123708.230000", "123709.730000", "123711.230000", "123712.730000", "123714.230000", "123715.730000", "123717.230000", "123718.730000", "123720.230000", "123721.730000", "123723.230000", "123724.730000", "123726.230000", "123727.730000", "123729.230000", "123730.730000", "123732.230000", "123733.730000", "123735.230000", "123736.730000", "123738.230000", "123739.730000", "123741.230000", "123742.730000", "123744.230000", "123745.730000", "123747.230000", "123748.730000", "123750.230000", "123751.730000", "123753.230000", "123754.730000", "123756.230000", "123757.730000", "123759.230000", "123800.730000", "123802.230000", "123803.730000", "123805.230000", "123806.730000", "123808.230000", "123809.730000", "123811.230000", "123812.730000", "123814.230000", "123815.730000", "123817.230000", "123818.730000", "123820.230000", "123821.730000", "123823.230000", "123824.730000", "123826.230000", "123827.730000", "123829.230000", "123830.730000", "123832.230000", "123833.730000", "123835.230000", "123836.730000", "123838.230000", "123839.730000", "123841.230000", "123842.730000", "123844.230000", "123845.730000", "123847.230000", "123848.730000", "123850.230000", "123851.730000", "123853.230000", "123854.730000", "123856.230000", "123857.730000", "123859.230000", "123900.730000", "123902.230000", "123903.730000", "123905.230000", "123906.730000", "123908.230000", "123909.730000", "123911.230000", "123912.730000", "123914.230000", "123915.730000", "123917.230000", "123918.730000", "123920.230000", "123921.730000", "123923.230000", "123924.730000", "123926.230000", "123927.730000", "123929.230000", "123930.730000", "123932.230000", "123933.730000", "123935.230000", "123936.730000", "123938.230000", "123939.730000", "123941.230000", "123942.730000", "123944.230000", "123945.730000", "123947.230000", "123948.730000", "123950.230000", "123951.730000", "123953.230000", "123954.730000", "123956.230000", "123957.730000", "123959.230000", "124000.730000", "124002.230000", "124003.730000", "124005.230000", "124006.730000", "124008.230000", "124009.730000", "124011.230000", "124012.730000", "124014.230000", "124015.730000", "124017.230000", "124018.730000", "124020.230000", "124021.730000", "124023.230000", "124024.730000", "124026.230000", "124027.730000", "124029.230000", "124030.730000", "124032.230000", "124033.730000", "124035.230000", "124036.730000", "124038.230000", "124039.730000", "124041.230000", "124042.730000", "124044.230000", "124045.730000", 