{
  "AcquisitionMatrixPE": 106,
  "AcquisitionNumber": 1,
  "AcquisitionTime": "20:00:44.850000",
  "BandwidthPerPixelPhaseEncode": 16.846,
  "BaseResolution": 106,
  "BodyPartExamined": "BRAIN",
  "CoilCombinationMethod": "Sum of Squares",
  "ConsistencyInfo": "N4_VE11C_LATEST_20160120",
  "ConversionSoftware": "dcm2niix",
  "ConversionSoftwareVersion": "v1.0.20220720",
  "DerivedVendorReportedEchoSpacing": 0.000560012,
  "DeviceSerialNumber": "166108",
  "DwellTime": 1.8e-06,
  "EchoTime": 0.0352,
  "EchoTrainLength": 106,
  "EffectiveEchoSpacing": 0.000560012,
  "FlipAngle": 60,
  "HeudiconvVersion": "1.3.0",
  "ImageComments": "Unaliased MB4/PE3/LB",
  "ImageOrientationPatientDICOM": [1, 0, 0, 0, 0.917755, -0.397148],
  "ImageOrientationText": "Tra>Cor(-23.4)",
  "ImageType": [
    "ORIGINAL",
    "PRIMARY",
    "M",
    "MB",
    "ND",
    "MOSAIC"
],
  "ImagingFrequency": 123.244,
  "InPlanePhaseEncodingDirectionDICOM": "COL",
  "InstitutionAddress": "Bedford Way 26,London,London,GB,WC1H 0AP",
  "InstitutionName": "University College",
  "InstitutionalDepartmentName": "Department",
  "MRAcquisitionType": "2D",
  "MagneticFieldStrength": 3,
  "Manufacturer": "Siemens",
  "ManufacturersModelName": "Prisma",
  "MatrixCoilMode": "SENSE",
  "Modality": "MR",
  "MultibandAccelerationFactor": 4,
  "NonlinearGradientCorrection": false,
  "PartialFourier": 1,
  "PatientPosition": "HFS",
  "PercentPhaseFOV": 100,
  "PercentSampling": 100,
  "PhaseEncodingDirection": "j-",
  "PhaseEncodingSteps": 106,
  "PhaseResolution": 1,
  "PixelBandwidth": 2620,
  "ProcedureStepDescription": "Egor^MovieProject2",
  "ProtocolName": "func-bold_task-pRF_run-03",
  "PulseSequenceDetails": "%CustomerSeq%\\cmrr_mbep2d_bold",
  "ReceiveCoilActiveElements": "HEA;HEP",
  "ReceiveCoilName": "Head_32",
  "ReconMatrixPE": 106,
  "RepetitionTime": 1,
  "SAR": 0.0918953,
  "ScanOptions": "FS\\EXT",
  "ScanningSequence": "EP",
  "SequenceName": "epfid2d1_106",
  "SequenceVariant": "SK\\SS",
  "SeriesDescription": "func-bold_task-pRF_run-03",
  "SeriesNumber": 14,
  "ShimSetting": [-1519, 670, 7388, 141, -41, 108, 86, -64],
  "SliceThickness": 2,
  "SliceTiming": [0, 0.4075, 0.8175, 0.245, 0.6525, 0.0825, 0.49, 0.8975, 0.3275, 0.735, 0.1625, 0.5725, 0, 0.4075, 0.8175, 0.245, 0.6525, 0.0825, 0.49, 0.8975, 0.3275, 0.735, 0.1625, 0.5725, 0, 0.4075, 0.8175, 0.245, 0.6525, 0.0825, 0.49, 0.8975, 0.3275, 0.735, 0.1625, 0.5725, 0, 0.4075, 0.8175, 0.245, 0.6525, 0.0825, 0.49, 0.8975, 0.3275, 0.735, 0.1625, 0.5725],
  "SoftwareVersions": "syngo MR E11",
  "SpacingBetweenSlices": 2,
  "StationName": "AWP166108",
  "TaskName": "retinotopy",
  "TotalReadoutTime": 0.0588013,
  "TxRefAmp": 239.94,
  "WipMemBlock": "ff6c726e-de52-4bdc-9858-9717d072387f||Sequence: R016 ve11c/master r/e634e98; Dec 19 2017 11:00:25 by eja",
  "dcmmeta_affine": [
    [-2.0, 0.0, 0.0, 106.0],
    [0.0, 1.8355093002319336, -0.7942957282066345, -80.48173522949219],
    [0.0, 0.7942957282066345, 1.8355093002319336, -47.42579650878906],
    [0.0, 0.0, 0.0, 1.0]
],
  "dcmmeta_reorient_transform": [
    [0.0, -1.0, 0.0, 105.0],
    [1.0, 0.0, 0.0, 0.0],
    [0.0, 0.0, 1.0, 0.0],
    [0.0, 0.0, 0.0, 1.0]
],
  "dcmmeta_shape": [106, 106, 48, 356],
  "dcmmeta_slice_dim": 2,
  "dcmmeta_version": 0.6,
  "global": {
    "const": {
      "AcquisitionMatrix": [106, 0, 0, 106],
      "AngioFlag": "N",
      "BitsAllocated": 16,
      "BitsStored": 16,
      "BodyPartExamined": "BRAIN",
      "CardiacNumberOfImages": 1,
      "Columns": 742,
      "EchoNumbers": 1,
      "EchoTime": 35.2,
      "EchoTrainLength": 106,
      "FlipAngle": 60.0,
      "HighBit": 15,
      "ImageOrientationPatient": [1.0, 0.0, 0.0, 0.0, 0.9177546397099, -0.3971478582228],
      "ImagePositionPatient": [-742.0, -695.93868913997, 288.56129144401],
      "ImageType": [
        "ORIGINAL",
        "PRIMARY",
        "M",
        "MB",
        "ND",
        "MOSAIC"
],
      "ImagedNucleus": "1H",
      "ImagingFrequency": 123.243651,
      "InPlanePhaseEncodingDirection": "COL",
      "MRAcquisitionType": "2D",
      "MagneticFieldStrength": 3.0,
      "Manufacturer": "SIEMENS",
      "ManufacturerModelName": "Prisma",
      "Modality": "MR",
      "NominalInterval": 0,
      "NumberOfAverages": 1.0,
      "NumberOfPhaseEncodingSteps": 106,
      "PercentPhaseFieldOfView": 100.0,
      "PercentSampling": 100.0,
      "PerformedProcedureStepStartTime": "185526.528000",
      "PhotometricInterpretation": "MONOCHROME2",
      "PixelBandwidth": 2620.0,
      "PixelRepresentation": 0,
      "PixelSpacing": [2.0, 2.0],
      "ProtocolName": "func-bold_task-pRF_run-03",
      "RepetitionTime": 1000.0,
      "Rows": 742,
      "SAR": 0.09189533693235,
      "SamplesPerPixel": 1,
      "ScanOptions": [
        "FS",
        "EXT"
],
      "ScanningSequence": "EP",
      "SequenceName": "epfid2d1_106",
      "SequenceVariant": [
        "SK",
        "SS"
],
      "SeriesDescription": "func-bold_task-pRF_run-03",
      "SeriesNumber": 14,
      "SeriesTime": "200123.879000",
      "SliceLocation": -11.562095782892,
      "SliceThickness": 2.0,
      "SmallestImagePixelValue": 0,
      "SoftwareVersions": "syngo MR E11",
      "SpacingBetweenSlices": 1.9999999875476,
      "SpecificCharacterSet": "ISO_IR 100",
      "StudyID": "1",
      "StudyTime": "185526.408000",
      "TransmitCoilName": "Body",
      "VariableFlipAngleFlag": "N",
      "WindowCenterWidthExplanation": "Algo1",
      "dBdt": 0.0},
    "slices": {}
  },
  "time": {
    "samples": {
      "AcquisitionNumber": [1, 2, 3, 4, 5, 6, 7, 8, 9, 10, 11, 12, 13, 14, 15, 16, 17, 18, 19, 20, 21, 22, 23, 24, 25, 26, 27, 28, 29, 30, 31, 32, 33, 34, 35, 36, 37, 38, 39, 40, 41, 42, 43, 44, 45, 46, 47, 48, 49, 50, 51, 52, 53, 54, 55, 56, 57, 58, 59, 60, 61, 62, 63, 64, 65, 66, 67, 68, 69, 70, 71, 72, 73, 74, 75, 76, 77, 78, 79, 80, 81, 82, 83, 84, 85, 86, 87, 88, 89, 90, 91, 92, 93, 94, 95, 96, 97, 98, 99, 100, 101, 102, 103, 104, 105, 106, 107, 108, 109, 110, 111, 112, 113, 114, 115, 116, 117, 118, 119, 120, 121, 122, 123, 124, 125, 126, 127, 128, 129, 130, 131, 132, 133, 134, 135, 136, 137, 138, 139, 140, 141, 142, 143, 144, 145, 146, 147, 148, 149, 150, 151, 152, 153, 154, 155, 156, 157, 158, 159, 160, 161, 162, 163, 164, 165, 166, 167, 168, 169, 170, 171, 172, 173, 174, 175, 176, 177, 178, 179, 180, 181, 182, 183, 184, 185, 186, 187, 188, 189, 190, 191, 192, 193, 194, 195, 196, 197, 198, 199, 200, 201, 202, 203, 204, 205, 206, 207, 208, 209, 210, 211, 212, 213, 214, 215, 216, 217, 218, 219, 220, 221, 222, 223, 224, 225, 226, 227, 228, 229, 230, 231, 232, 233, 234, 235, 236, 237, 238, 239, 240, 241, 242, 243, 244, 245, 246, 247, 248, 249, 250, 251, 252, 253, 254, 255, 256, 257, 258, 259, 260, 261, 262, 263, 264, 265, 266, 267, 268, 269, 270, 271, 272, 273, 274, 275, 276, 277, 278, 279, 280, 281, 282, 283, 284, 285, 286, 287, 288, 289, 290, 291, 292, 293, 294, 295, 296, 297, 298, 299, 300, 301, 302, 303, 304, 305, 306, 307, 308, 309, 310, 311, 312, 313, 314, 315, 316, 317, 318, 319, 320, 321, 322, 323, 324, 325, 326, 327, 328, 329, 330, 331, 332, 333, 334, 335, 336, 337, 338, 339, 340, 341, 342, 343, 344, 345, 346, 347, 348, 349, 350, 351, 352, 353, 354, 355, 356],
      "AcquisitionTime": ["200044.850000", "200045.850000", "200046.850000", "200047.850000", "200048.850000", "200049.850000", "200050.850000", "200051.850000", "200052.850000", "200053.850000", "200054.850000", "200055.850000", "200056.850000", "200057.850000", "200058.850000", "200059.850000", "200100.850000", "200101.850000", "200102.850000", "200103.850000", "200104.850000", "200105.850000", "200106.850000", "200107.850000", "200108.850000", "200109.850000", "200110.850000", "200111.850000", "200112.850000", "200113.850000", "200114.850000", "200115.850000", "200116.850000", "200117.850000", "200118.850000", "200119.850000", "200120.850000", "200121.850000", "200122.850000", "200123.850000", "200124.850000", "200125.850000", "200126.850000", "200127.850000", "200128.850000", "200129.850000", "200130.850000", "200131.850000", "200132.850000", "200133.850000", "200134.850000", "200135.850000", "200136.850000", "200137.850000", "200138.850000", "200139.850000", "200140.850000", "200141.850000", "200142.850000", "200143.850000", "200144.850000", "200145.850000", "200146.850000", "200147.850000", "200148.850000", "200149.850000", "200150.850000", "200151.850000", "200152.850000", "200153.850000", "200154.850000", "200155.850000", "200156.850000", "200157.850000", "200158.850000", "200159.850000", "200200.850000", "200201.850000", "200202.850000", "200203.850000", "200204.850000", "200205.850000", "200206.850000", "200207.850000", "200208.850000", "200209.850000", "200210.850000", "200211.850000", "200212.850000", "200213.850000", "200214.850000", "200215.850000", "200216.850000", "200217.850000", "200218.850000", "200219.850000", "200220.850000", "200221.850000", "200222.850000", "200223.850000", "200224.850000", "200225.850000", "200226.850000", "200227.850000", "200228.850000", "200229.850000", "200230.850000", "200231.850000", "200232.850000", "200233.850000", "200234.850000", "200235.850000", "200236.850000", "200237.850000", "200238.850000", "200239.850000", "200240.850000", "200241.850000", "200242.850000", "200243.850000", "200244.850000", "200245.850000", "200246.850000", "200247.850000", "200248.850000", "200249.850000", "200250.850000", "200251.850000", "200252.850000", "200253.850000", "200254.850000", "200255.850000", "200256.850000", "200257.850000", "200258.850000", "200259.850000", "200300.850000", "200301.850000", "200302.850000", "200303.850000", "200304.850000", "200305.850000", "200306.850000", "200307.850000", "200308.850000", "200309.850000", "200310.850000", "200311.850000", "200312.850000", "200313.850000", "200314.850000", "200315.850000", "200316.850000", "200317.850000", "200318.850000", "200319.850000", "200320.850000", "200321.850000", "200322.850000", "200323.850000", "200324.850000", "200325.850000", "200326.850000", "200327.850000", "200328.850000", "200329.850000", "200330.850000", "200331.850000", "200332.850000", "200333.850000", "200334.850000", "200335.850000", "200336.850000", "200337.850000", "200338.850000", "200339.850000", "200340.850000", "200341.850000", "200342.850000", "200343.850000", "200344.850000", "200345.850000", "200346.850000", "200347.850000", "200348.850000", "200349.850000", "200350.850000", "200351.850000", "200352.850000", "200353.850000", "200354.850000", "200355.850000", "200356.850000", "200357.850000", "200358.850000", "200359.850000", "200400.850000", "200401.850000", "200402.850000", "200403.850000", "200404.850000", "200405.850000", "200406.850000", "200407.850000", "200408.850000", "200409.850000", "200410.850000", "200411.850000", "200412.850000", "200413.850000", "200414.850000", "200415.850000", "200416.850000", "200417.850000", "200418.850000", "200419.850000", "200420.850000", "200421.850000", "200422.850000", "200423.850000", "200424.850000", "200425.850000", "200426.850000", "200427.850000", "200428.850000", "200429.850000", "200430.850000", "200431.850000", "200432.850000", "200433.850000", "200434.850000", "200435.850000", "200436.850000", "200437.850000", "200438.850000", "200439.850000", "200440.850000", "200441.850000", "200442.850000", "200443.850000", "200444.850000", "200445.850000", "200446.850000", "200447.850000", "200448.850000", "200449.850000", "200450.850000", "200451.850000", "200452.850000", "200453.850000", "200454.850000", "200455.850000", "200456.850000", "200457.850000", "200458.850000", "200459.850000", "200500.850000", "200501.850000", "200502.850000", "200503.850000", "200504.850000", "200505.850000", "200506.850000", "200507.850000", "200508.850000", "200509.850000", "200510.850000", "200511.850000", "200512.850000", "200513.850000", "200514.850000", "200515.850000", "200516.850000", "200517.850000", "200518.850000", "200519.850000", "200520.850000", "200521.850000", "200522.850000", "200523.850000", "200524.850000", "200525.850000", "200526.850000", "200527.850000", "200528.850000", "200529.850000", "200530.850000", "200531.850000", "200532.850000", "200533.850000", "200534.850000", "200535.850000", "200536.850000", "200537.850000", "200538.850000", "200539.850000", "200540.850000", "200541.850000", "200542.850000", "200543.850000", "200544.850000", "200545.850000", "200546.850000", "200547.850000", "200548.850000", "200549.850000", "200550.850000", "200551.850000", "200552.850000", "200553.850000", "200554.850000", "200555.850000", "200556.850000", "200557.850000", "200558.850000", "200559.850000", "200600.850000", "200601.850000", "200602.850000", "200603.850000", "200604.850000", "200605.850000", "200606.850000", "200607.850000", "200608.850000", "200609.850000", "200610.850000", "200611.850000", "200612.850000", "200613.850000", "200614.850000", "200615.850000", "200616.850000", "200617.850000", "200618.850000", "200619.850000", "200620.850000", "200621.850000", "200622.850000", "200623.850000", "200624.850000", "200625.850000", "200626.850000", "200627.850000", "200628.850000", "200629.850000", "200630.850000", "200631.850000", "200632.850000", "200633.850000", "200634.850000", "200635.850000", "200636.850000", "200637.850000", "200638.850000", "200639.850000"],
      "ContentTime": ["200123.881000", "200123.884000", "200123.887000", "200123.889000", "200123.892000", "200123.894000", "200123.897000", "200123.899000", "200123.902000", "200123.904000", "200123.907000", "200123.909000", "200123.912000", "200123.914000", "200123.917000", "200123.919000", "200123.922000", "200123.924000", "200123.927000", "200123.930000", "200123.932000", "200123.935000", "200123.937000", "200123.941000", "200123.944000", "200123.949000", "200123.952000", "200123.954000", "200123.957000", "200123.959000", "200123.962000", "200123.964000", "200123.967000", "200123.969000", "200123.972000", "200123.974000", "200123.977000", "200123.979000", "200143.851000", "200143.853000", "200143.856000", "200143.858000", "200143.862000", "200143.865000", "200143.868000", "200143.870000", "200143.873000", "200143.875000", "200143.878000", "200143.880000", "200143.882000", "200143.885000", "200143.891000", "200143.893000", "200143.895000", "200143.898000", "200143.900000", "200143.903000", "200203.851000", "200203.853000", "200203.856000", "200203.858000", "200203.861000", "200203.864000", "200203.866000", "200203.869000", "200203.871000", "200203.874000", "200203.876000", "200203.878000", "200203.881000", "200203.883000", "200203.886000", "200203.888000", "200203.891000", "200203.893000", "200203.895000", "200203.898000", "200223.850000", "200223.853000", "200223.856000", "200223.858000", "200223.861000", "200223.864000", "200223.867000", "200223.869000", "200223.871000", "200223.874000", "200223.877000", "200223.879000", "200223.881000", "200223.884000", "200223.886000", "200223.889000", "200223.891000", "200223.894000", "200223.896000", "200223.899000", "200243.850000", "200243.853000", "200243.856000", "200243.858000", "200243.861000", "200243.864000", "200243.867000", "200243.869000", "200243.872000", "200243.874000", "200243.877000", "200243.886000", "200243.889000", "200243.891000", "200243.894000", "200243.896000", "200243.899000", "200243.901000", "200243.904000", "200243.906000", "200303.850000", "200303.853000", "200303.855000", "200303.858000", "200303.861000", "200303.864000", "200303.867000", "200303.869000", "200303.871000", "200303.874000", "200303.876000", "200303.879000", "200303.881000", "200303.884000", "200303.886000", "200303.889000", "200303.891000", "200303.894000", "200303.896000", "200303.898000", "200323.850000", "200323.852000", "200323.855000", "200323.857000", "200323.861000", "200323.864000", "200323.866000", "200323.869000", "200323.871000", "200323.874000", "200323.876000", "200323.879000", "200323.881000", "200323.884000", "200323.886000", "200323.888000", "200323.891000", "200323.893000", "200323.896000", "200323.898000", "200343.850000", "200343.853000", "200343.856000", "200343.858000", "200343.861000", "200343.864000", "200343.867000", "200343.869000", "200343.872000", "200343.874000", "200343.877000", "200343.879000", "200343.882000", "200343.899000", "200343.901000", "200343.904000", "200343.906000", "200343.909000", "200343.911000", "200343.914000", "200403.851000", "200403.853000", "200403.856000", "200403.858000", "200403.862000", "200403.865000", "200403.867000", "200403.870000", "200403.872000", "200403.875000", "200403.877000", "200403.880000", "200403.882000", "200403.885000", "200403.887000", "200403.890000", "200403.892000", "200403.895000", "200403.897000", "200403.900000", "200423.850000", "200423.853000", "200423.856000", "200423.858000", "200423.862000", "200423.864000", "200423.867000", "200423.869000", "200423.872000", "200423.874000", "200423.877000", "200423.879000", "200423.882000", "200423.884000", "200423.887000", "200423.889000", "200423.892000", "200423.894000", "200423.896000", "200423.899000", "200443.851000", "200443.853000", "200443.856000", "200443.858000", "200443.862000", "200443.865000", "200443.868000", "200443.870000", "200443.873000", "200443.875000", "200443.878000", "200443.880000", "200443.883000", "200443.885000", "200443.888000", "200443.890000", "200443.893000", "200443.895000", "200443.898000", "200443.900000", "200503.850000", "200503.853000", "200503.856000", "200503.858000", "200503.861000", "200503.864000", "200503.867000", "200503.869000", "200503.872000", "200503.874000", "200503.876000", "200503.879000", "200503.881000", "200503.884000", "200503.886000", "200503.889000", "200503.891000", "200503.894000", "200503.896000", "200503.899000", "200523.851000", "200523.853000", "200523.856000", "200523.858000", "200523.862000", "200523.864000", "200523.867000", "200523.869000", "200523.872000", "200523.874000", "200523.877000", "200523.879000", "200523.882000", "200523.884000", "200523.887000", "200523.889000", "200523.892000", "200523.894000", "200523.897000", "200523.899000", "200543.850000", "200543.852000", "200543.855000", "200543.857000", "200543.861000", "200543.864000", "200543.867000", "200543.869000", "200543.871000", "200543.874000", "200543.876000", "200543.879000", "200543.881000", "200543.884000", "200543.886000", "200543.889000", "200543.891000", "200543.894000", "200543.896000", "200543.899000", "200603.851000", "200603.853000", "200603.856000", "200603.858000", "200603.862000", "200603.865000", "200603.868000", "200603.870000", "200603.873000", "200603.875000", "200603.878000", "200603.880000", "200603.883000", "200603.885000", "200603.888000", "200603.890000", "200603.893000", "200603.895000", "200603.898000", "200603.900000", "200623.850000", "200623.853000", "200623.856000", "200623.858000", "200623.862000", "200623.865000", "200623.867000", "200623.870000", "200623.872000", "200623.875000", "200623.877000", "200623.880000", "200623.882000", "200623.885000", "200623.887000", "200623.890000", "200623.892000", "200623.895000", "200623.897000", "200623.900000", "200640.983000", "200640.987000", "200640.991000", "200640.994000", "200640.997000", "200641.000000", "200641.004000", "200641.007000", "200641.009000", "200641.012000", "200641.014000", "200641.018000", "200641.021000", "200641.023000", "200641.026000", "200641.028000", "200641.031000", "200641.033000"],
      "InstanceCreationTime": ["200123.881000", "200123.884000", "200123.887000", "200123.889000", "200123.892000", "200123.894000", "200123.897000", "200123.899000", "200123.902000", "200123.904000", "200123.907000", "200123.909000", "200123.912000", "200123.914000", "200123.917000", "200123.919000", "200123.922000", "200123.924000", "200123.927000", "200123.930000", "200123.932000", "200123.935000", "200123.937000", "200123.941000", "200123.944000", "200123.949000", "200123.952000", "200123.954000", "200123.957000", "200123.959000", "200123.962000", "200123.964000", "200123.967000", "200123.969000", "200123.972000", "200123.974000", "200123.977000", "200123.979000", "200143.851000", "200143.853000", "200143.856000", "200143.858000", "200143.862000", "200143.865000", "200143.868000", "200143.870000", "200143.873000", "200143.875000", "200143.878000", "200143.880000", "200143.882000", "200143.885000", "200143.891000", "200143.893000", "200143.895000", "200143.898000", "200143.900000", "200143.903000", "200203.851000", "200203.853000", "200203.856000", "200203.858000", "200203.861000", "200203.864000", "200203.866000", "200203.869000", "200203.871000", "200203.874000", "200203.876000", "200203.878000", "200203.881000", "200203.883000", "200203.886000", "200203.888000", "200203.891000", "200203.893000", "200203.895000", "200203.898000", "200223.850000", "200223.853000", "200223.856000", "200223.858000", "200223.861000", "200223.864000", "200223.867000", "200223.869000", "200223.871000", "200223.874000", "200223.877000", "200223.879000", "200223.881000", "200223.884000", "200223.886000", "200223.889000", "200223.891000", "200223.894000", "200223.896000", "200223.899000", "200243.850000", "200243.853000", "200243.856000", "200243.858000", "200243.861000", "200243.864000", "200243.867000", "200243.869000", "200243.872000", "200243.874000", "200243.877000", "200243.886000", "200243.889000", "200243.891000", "200243.894000", "200243.896000", "200243.899000", "200243.901000", "200243.904000", "200243.906000", "200303.850000", "200303.853000", "200303.855000", "200303.858000", "200303.861000", "200303.864000", "200303.867000", "200303.869000", "200303.871000", "200303.874000", "200303.876000", "200303.879000", "200303.881000", "200303.884000", "200303.886000", "200303.889000", "200303.891000", "200303.894000", "200303.896000", "200303.898000", "200323.850000", "200323.852000", "200323.855000", "200323.857000", "200323.861000", "200323.864000", "200323.866000", "200323.869000", "200323.871000", "200323.874000", "200323.876000", "200323.879000", "200323.881000", "200323.884000", "200323.886000", "200323.888000", "200323.891000", "200323.893000", "200323.896000", "200323.898000", "200343.850000", "200343.853000", "200343.856000", "200343.858000", "200343.861000", "200343.864000", "200343.867000", "200343.869000", "200343.872000", "200343.874000", "200343.877000", "200343.879000", "200343.882000", "200343.899000", "200343.901000", "200343.904000", "200343.906000", "200343.909000", "200343.911000", "200343.914000", "200403.851000", "200403.853000", "200403.856000", "200403.858000", "200403.862000", "200403.865000", "200403.867000", "200403.870000", "200403.872000", "200403.875000", "200403.877000", "200403.880000", "200403.882000", "200403.885000", "200403.887000", "200403.890000", "200403.892000", "200403.895000", "200403.897000", "200403.900000", "200423.850000", "200423.853000", "200423.856000", "200423.858000", "200423.862000", "200423.864000", "200423.867000", "200423.869000", "200423.872000", "200423.874000", "200423.877000", "200423.879000", "200423.882000", "200423.884000", "200423.887000", "200423.889000", "200423.892000", "200423.894000", "200423.896000", "200423.899000", "200443.851000", "200443.853000", "200443.856000", "200443.858000", "200443.862000", "200443.865000", "200443.868000", "200443.870000", "200443.873000", "200443.875000", "200443.878000", "200443.880000", "200443.883000", "200443.885000", "200443.888000", "200443.890000", "200443.893000", "200443.895000", "200443.898000", "200443.900000", "200503.850000", "200503.853000", "200503.856000", "200503.858000", "200503.861000", "200503.864000", "200503.867000", "200503.869000", "200503.872000", "200503.874000", "200503.876000", "200503.879000", "200503.881000", "200503.884000", "200503.886000", "200503.889000", "200503.891000", "200503.894000", "200503.896000", "200503.899000", "200523.851000", "200523.853000", "200523.856000", "200523.858000", "200523.862000", "200523.864000", "200523.867000", "200523.869000", "200523.872000", "200523.874000", "200523.877000", "200523.879000", "200523.882000", "200523.884000", "200523.887000", "200523.889000", "200523.892000", "200523.894000", "200523.897000", "200523.899000", "200543.850000", "200543.852000", "200543.855000", "200543.857000", "200543.861000", "200543.864000", "200543.867000", "200543.869000", "200543.871000", "200543.874000", "200543.876000", "200543.879000", "200543.881000", "200543.884000", "200543.886000", "200543.889000", "200543.891000", "200543.894000", "200543.896000", "200543.899000", "200603.851000", "200603.853000", "200603.856000", "200603.858000", "200603.862000", "200603.865000", "200603.868000", "200603.870000", "200603.873000", "200603.875000", "200603.878000", "200603.880000", "200603.883000", "200603.885000", "200603.888000", "200603.890000", "200603.893000", "200603.895000", "200603.898000", "200603.900000", "200623.850000", "200623.853000", "200623.856000", "200623.858000", "200623.862000", "200623.865000", "200623.867000", "200623.870000", "200623.872000", "200623.875000", "200623.877000", "200623.880000", "200623.882000", "200623.885000", "200623.887000", "200623.890000", "200623.892000", "200623.895000", "200623.897000", "200623.900000", "200640.983000", "200640.987000", "200640.991000", "200640.994000", "200640.997000", "200641.000000", "200641.004000", "200641.007000", "200641.009000", "200641.012000", "200641.014000", "200641.018000", "200641.021000", "200641.023000", "200641.026000", "200641.028000", "200641.031000", "200641.033000"],
      "InstanceNumber": [1, 2, 3, 4, 5, 6, 7, 8, 9, 10, 11, 12, 13, 14, 15, 16, 17, 18, 19, 20, 21, 22, 23, 24, 25, 26, 27, 28, 29, 30, 31, 32, 33, 34, 35, 36, 37, 38, 39, 40, 41, 42, 43, 44, 45, 46, 47, 48, 49, 50, 51, 52, 53, 54, 55, 56, 57, 58, 59, 60, 61, 62, 63, 64, 65, 66, 67, 68, 69, 70, 71, 72, 73, 74, 75, 76, 77, 78, 79, 80, 81, 82, 83, 84, 85, 86, 87, 88, 89, 90, 91, 92, 93, 94, 95, 96, 97, 98, 99, 100, 101, 102, 103, 104, 105, 106, 107, 108, 109, 110, 111, 112, 113, 114, 115, 116, 117, 118, 119, 120, 121, 122, 123, 124, 125, 126, 127, 128, 129, 130, 131, 132, 133, 134, 135, 136, 137, 138, 139, 140, 141, 142, 143, 144, 145, 146, 147, 148, 149, 150, 151, 152, 153, 154, 155, 156, 157, 158, 159, 160, 161, 162, 163, 164, 165, 166, 167, 168, 169, 170, 171, 172, 173, 174, 175, 176, 177, 178, 179, 180, 181, 182, 183, 184, 185, 186, 187, 188, 189, 190, 191, 192, 193, 194, 195, 196, 197, 198, 199, 200, 201, 202, 203, 204, 205, 206, 207, 208, 209, 210, 211, 212, 213, 214, 215, 216, 217, 218, 219, 220, 221, 222, 223, 224, 225, 226, 227, 228, 229, 230, 231, 232, 233, 234, 235, 236, 237, 238, 239, 240, 241, 242, 243, 244, 245, 246, 247, 248, 249, 250, 251, 252, 253, 254, 255, 256, 257, 258, 259, 260, 261, 262, 263, 264, 265, 266, 267, 268, 269, 270, 271, 272, 273, 274, 275, 276, 277, 278, 279, 280, 281, 282, 283, 284, 285, 286, 287, 288, 289, 290, 291, 292, 293, 294, 295, 296, 297, 298, 299, 300, 301, 302, 303, 304, 305, 306, 307, 308, 309, 310, 311, 312, 313, 314, 315, 316, 317, 318, 319, 320, 321, 322, 323, 324, 325, 326, 327, 328, 329, 330, 331, 332, 333, 334, 335, 336, 337, 338, 339, 340, 341, 342, 343, 344, 345, 346, 347, 348, 349, 350, 351, 352, 353, 354, 355, 356],
      "LargestImagePixelValue": [15780, 15312, 15081, 15082, 14906, 15078, 15128, 14953, 14994, 14988, 14740, 14882, 14928, 14910, 14932, 14900, 14874, 14989, 14925, 15015, 14865, 14910, 15231, 15029, 15033, 15138, 15036, 14944, 15001, 14990, 15002, 15110, 15121, 14923, 15144, 15063, 15043, 14962, 15030, 15029, 15174, 15008, 15067, 15187, 15271, 15147, 15147, 15125, 15246, 15237, 15256, 15222, 15077, 15099, 15127, 15099, 15000, 15128, 14996, 15032, 15086, 14944, 15100, 15038, 14882, 14856, 14925, 15041, 15023, 15062, 15070, 15023, 14980, 15091, 15036, 14847, 14885, 14879, 15025, 14860, 14827, 15076, 15027, 14864, 14997, 14959, 14887, 14858, 14761, 14788, 14829, 15022, 15078, 15102, 14981, 14991, 15070, 14972, 14947, 14909, 14748, 15035, 14906, 14938, 14768, 14916, 14947, 14873, 14849, 14896, 14686, 14758, 14907, 14829, 14877, 14889, 14999, 14950, 14857, 14770, 14904, 14865, 14977, 14977, 14837, 14986, 15105, 15002, 15064, 15188, 15020, 14957, 14887, 15012, 14718, 15010, 14888, 14887, 14839, 15016, 14930, 15029, 14986, 14925, 15115, 14991, 14838, 14704, 14887, 14840, 15012, 14912, 14765, 14861, 14826, 14863, 14829, 14841, 14921, 14824, 14929, 14924, 14956, 14957, 14983, 14908, 14787, 14823, 14750, 14850, 14892, 14860, 14838, 14826, 14818, 15028, 15108, 14988, 14812, 14949, 14897, 15026, 14981, 14881, 15008, 14886, 14984, 14940, 14987, 14916, 14923, 14924, 15124, 14899, 15026, 15015, 15073, 14969, 14954, 15068, 14815, 14954, 14967, 14902, 14693, 14909, 14846, 15085, 14879, 14936, 15101, 15034, 15068, 15113, 14755, 14929, 14994, 15206, 15095, 14969, 14869, 14960, 14932, 14862, 14826, 14950, 14814, 14798, 14864, 14941, 14936, 14750, 14771, 14853, 14897, 14704, 14934, 14995, 14582, 14774, 14669, 14714, 14670, 14742, 14797, 14714, 14776, 14844, 14762, 14870, 14722, 14848, 14688, 14703, 14539, 14605, 14720, 14691, 14657, 14825, 14933, 14719, 14937, 14858, 14717, 14775, 14924, 14826, 14859, 14817, 14855, 14892, 14690, 14568, 14665, 14660, 14711, 14727, 14699, 14791, 14811, 14687, 14752, 14764, 14881, 14689, 14690, 14684, 14723, 14725, 14586, 14697, 14591, 14679, 14712, 14627, 14654, 14581, 14634, 14766, 14873, 14702, 14819, 14870, 14722, 14760, 14599, 14540, 14728, 14560, 14639, 14758, 14838, 14737, 14908, 14894, 14892, 14887, 14710, 14788, 14683, 14669, 14683, 14658, 14757, 14733, 14594, 14690, 14705, 14590, 14555, 14496, 14461, 14605, 14631, 14586, 14548, 14559, 14761, 14692, 14795, 14682, 14673, 14693, 14680, 14713, 14689, 14672, 14556, 14719, 14601, 14613, 14477, 14447, 14533, 14472],
