{
  "AcquisitionMatrixPE": 106,
  "AcquisitionNumber": 1,
  "AcquisitionTime": "19:22:42.912500",
  "BandwidthPerPixelPhaseEncode": 13.477,
  "BaseResolution": 106,
  "BodyPartExamined": "BRAIN",
  "CoilCombinationMethod": "Sum of Squares",
  "ConsistencyInfo": "N4_VE11C_LATEST_20160120",
  "ConversionSoftware": "dcm2niix",
  "ConversionSoftwareVersion": "v1.0.20220720",
  "DerivedVendorReportedEchoSpacing": 0.000700005,
  "DeviceSerialNumber": "166108",
  "DwellTime": 2.6e-06,
  "EchoTime": 0.03,
  "EchoTrainLength": 80,
  "EffectiveEchoSpacing": 0.000700005,
  "FlipAngle": 62,
  "HeudiconvVersion": "1.3.0",
  "ImageComments": "Unaliased MB4/PE3/LB",
  "ImageOrientationPatientDICOM": [1, 0, 0, 0, 0.971961, -0.235142],
  "ImageOrientationText": "Tra>Cor(-13.6)",
  "ImageType": [
    "ORIGINAL",
    "PRIMARY",
    "M",
    "MB",
    "ND",
    "MOSAIC"
],
  "ImagingFrequency": 123.244,
  "InPlanePhaseEncodingDirectionDICOM": "COL",
  "InstitutionAddress": "Bedford Way 26,London,London,GB,WC1H 0AP",
  "InstitutionName": "University College",
  "InstitutionalDepartmentName": "Department",
  "MRAcquisitionType": "2D",
  "MagneticFieldStrength": 3,
  "Manufacturer": "Siemens",
  "ManufacturersModelName": "Prisma",
  "MatrixCoilMode": "SENSE",
  "Modality": "MR",
  "MultibandAccelerationFactor": 4,
  "NonlinearGradientCorrection": false,
  "PartialFourier": 0.75,
  "PatientPosition": "HFS",
  "PercentPhaseFOV": 100,
  "PercentSampling": 100,
  "PhaseEncodingDirection": "j-",
  "PhaseEncodingSteps": 80,
  "PhaseResolution": 1,
  "PixelBandwidth": 1815,
  "ProcedureStepDescription": "Egor^MovieProject2",
  "ProtocolName": "func-bold_task-motor_run-02",
  "PulseSequenceDetails": "%CustomerSeq%\\cmrr_mbep2d_bold",
  "ReceiveCoilActiveElements": "HEA;HEP",
  "ReceiveCoilName": "Head_32",
  "ReconMatrixPE": 106,
  "RepetitionTime": 1,
  "SAR": 0.051302,
  "ScanOptions": "PFP\\FS\\EXT",
  "ScanningSequence": "EP",
  "SequenceName": "epfid2d1_106",
  "SequenceVariant": "SK\\SS",
  "SeriesDescription": "func-bold_task-motor_run-02",
  "SeriesNumber": 4,
  "ShimSetting": [-1516, 663, 7350, -33, -43, 130, 95, -84],
  "SliceThickness": 2,
  "SliceTiming": [0, 0.535, 0.0875, 0.6225, 0.1775, 0.7125, 0.2675, 0.8, 0.355, 0.89, 0.445, 0, 0.535, 0.0875, 0.6225, 0.1775, 0.7125, 0.2675, 0.8, 0.355, 0.89, 0.445, 0, 0.535, 0.0875, 0.6225, 0.1775, 0.7125, 0.2675, 0.8, 0.355, 0.89, 0.445, 0, 0.535, 0.0875, 0.6225, 0.1775, 0.7125, 0.2675, 0.8, 0.355, 0.89, 0.445],
  "SoftwareVersions": "syngo MR E11",
  "SpacingBetweenSlices": 2,
  "StationName": "AWP166108",
  "TaskName": "somatotopy",
  "TotalReadoutTime": 0.0735005,
  "TxRefAmp": 239.94,
  "WipMemBlock": "e2ecc011-c8fe-4b61-bfd5-00c4ba11fc58||Sequence: R016 ve11c/master r/e634e98; Dec 19 2017 11:00:25 by eja",
  "dcmmeta_affine": [
    [-2.0, 0.0, 0.0, 106.0],
    [0.0, 1.9439220428466797, -0.47028422355651855, -94.73690032958984],
    [0.0, 0.47028419375419617, 1.9439220428466797, -19.04004669189453],
    [0.0, 0.0, 0.0, 1.0]
],
  "dcmmeta_reorient_transform": [
    [0.0, -1.0, 0.0, 105.0],
    [1.0, 0.0, 0.0, 0.0],
    [0.0, 0.0, 1.0, 0.0],
    [0.0, 0.0, 0.0, 1.0]
],
  "dcmmeta_shape": [106, 106, 44, 469],
  "dcmmeta_slice_dim": 2,
  "dcmmeta_version": 0.6,
  "global": {
    "const": {
      "AcquisitionMatrix": [106, 0, 0, 106],
      "AngioFlag": "N",
      "BitsAllocated": 16,
      "BitsStored": 16,
      "BodyPartExamined": "BRAIN",
      "CardiacNumberOfImages": 1,
      "Columns": 742,
      "EchoNumbers": 1,
      "EchoTime": 30.0,
      "EchoTrainLength": 80,
      "FlipAngle": 62.0,
      "HighBit": 15,
      "ImageOrientationPatient": [1.0, 0.0, 0.0, 0.0, 0.97196100271939, -0.2351421042534],
      "ImagePositionPatient": [-742.0, -727.54210943939, 179.8901733354],
      "ImageType": [
        "ORIGINAL",
        "PRIMARY",
        "M",
        "MB",
        "ND",
        "MOSAIC"
],
      "ImagedNucleus": "1H",
      "ImagingFrequency": 123.243654,
      "InPlanePhaseEncodingDirection": "COL",
      "MRAcquisitionType": "2D",
      "MagneticFieldStrength": 3.0,
      "Manufacturer": "SIEMENS",
      "ManufacturerModelName": "Prisma",
      "Modality": "MR",
      "NominalInterval": 0,
      "NumberOfAverages": 1.0,
      "NumberOfPhaseEncodingSteps": 80,
      "PercentPhaseFieldOfView": 100.0,
      "PercentSampling": 100.0,
      "PerformedProcedureStepStartTime": "185526.528000",
      "PhotometricInterpretation": "MONOCHROME2",
      "PixelBandwidth": 1815.0,
      "PixelRepresentation": 0,
      "PixelSpacing": [2.0, 2.0],
      "ProtocolName": "func-bold_task-motor_run-02",
      "RepetitionTime": 1000.0,
      "Rows": 742,
      "SAR": 0.05130204792696,
      "SamplesPerPixel": 1,
      "ScanOptions": [
        "PFP",
        "FS",
        "EXT"
],
      "ScanningSequence": "EP",
      "SequenceName": "epfid2d1_106",
      "SequenceVariant": [
        "SK",
        "SS"
],
      "SeriesDescription": "func-bold_task-motor_run-02",
      "SeriesNumber": 4,
      "SeriesTime": "192313.406000",
      "SliceLocation": 3.7704507078982,
      "SliceThickness": 2.0,
      "SmallestImagePixelValue": 0,
      "SoftwareVersions": "syngo MR E11",
      "SpacingBetweenSlices": 2.0000000412016,
      "SpecificCharacterSet": "ISO_IR 100",
      "StudyID": "1",
      "StudyTime": "185526.408000",
      "TransmitCoilName": "Body",
      "VariableFlipAngleFlag": "N",
      "WindowCenterWidthExplanation": "Algo1",
      "dBdt": 0.0},
    "slices": {}
  },
  "time": {
    "samples": {
      "AcquisitionNumber": [1, 2, 3, 4, 5, 6, 7, 8, 9, 10, 11, 12, 13, 14, 15, 16, 17, 18, 19, 20, 21, 22, 23, 24, 25, 26, 27, 28, 29, 30, 31, 32, 33, 34, 35, 36, 37, 38, 39, 40, 41, 42, 43, 44, 45, 46, 47, 48, 49, 50, 51, 52, 53, 54, 55, 56, 57, 58, 59, 60, 61, 62, 63, 64, 65, 66, 67, 68, 69, 70, 71, 72, 73, 74, 75, 76, 77, 78, 79, 80, 81, 82, 83, 84, 85, 86, 87, 88, 89, 90, 91, 92, 93, 94, 95, 96, 97, 98, 99, 100, 101, 102, 103, 104, 105, 106, 107, 108, 109, 110, 111, 112, 113, 114, 115, 116, 117, 118, 119, 120, 121, 122, 123, 124, 125, 126, 127, 128, 129, 130, 131, 132, 133, 134, 135, 136, 137, 138, 139, 140, 141, 142, 143, 144, 145, 146, 147, 148, 149, 150, 151, 152, 153, 154, 155, 156, 157, 158, 159, 160, 161, 162, 163, 164, 165, 166, 167, 168, 169, 170, 171, 172, 173, 174, 175, 176, 177, 178, 179, 180, 181, 182, 183, 184, 185, 186, 187, 188, 189, 190, 191, 192, 193, 194, 195, 196, 197, 198, 199, 200, 201, 202, 203, 204, 205, 206, 207, 208, 209, 210, 211, 212, 213, 214, 215, 216, 217, 218, 219, 220, 221, 222, 223, 224, 225, 226, 227, 228, 229, 230, 231, 232, 233, 234, 235, 236, 237, 238, 239, 240, 241, 242, 243, 244, 245, 246, 247, 248, 249, 250, 251, 252, 253, 254, 255, 256, 257, 258, 259, 260, 261, 262, 263, 264, 265, 266, 267, 268, 269, 270, 271, 272, 273, 274, 275, 276, 277, 278, 279, 280, 281, 282, 283, 284, 285, 286, 287, 288, 289, 290, 291, 292, 293, 294, 295, 296, 297, 298, 299, 300, 301, 302, 303, 304, 305, 306, 307, 308, 309, 310, 311, 312, 313, 314, 315, 316, 317, 318, 319, 320, 321, 322, 323, 324, 325, 326, 327, 328, 329, 330, 331, 332, 333, 334, 335, 336, 337, 338, 339, 340, 341, 342, 343, 344, 345, 346, 347, 348, 349, 350, 351, 352, 353, 354, 355, 356, 357, 358, 359, 360, 361, 362, 363, 364, 365, 366, 367, 368, 369, 370, 371, 372, 373, 374, 375, 376, 377, 378, 379, 380, 381, 382, 383, 384, 385, 386, 387, 388, 389, 390, 391, 392, 393, 394, 395, 396, 397, 398, 399, 400, 401, 402, 403, 404, 405, 406, 407, 408, 409, 410, 411, 412, 413, 414, 415, 416, 417, 418, 419, 420, 421, 422, 423, 424, 425, 426, 427, 428, 429, 430, 431, 432, 433, 434, 435, 436, 437, 438, 439, 440, 441, 442, 443, 444, 445, 446, 447, 448, 449, 450, 451, 452, 453, 454, 455, 456, 457, 458, 459, 460, 461, 462, 463, 464, 465, 466, 467, 468, 469],
      "AcquisitionTime": ["192242.912500", "192243.912500", "192244.912500", "192245.912500", "192246.912500", "192247.912500", "192248.912500", "192249.912500", "192250.912500", "192251.912500", "192252.912500", "192253.912500", "192254.912500", "192255.912500", "192256.912500", "192257.912500", "192258.912500", "192259.912500", "192300.912500", "192301.912500", "192302.912500", "192303.912500", "192304.912500", "192305.912500", "192306.912500", "192307.912500", "192308.912500", "192309.912500", "192310.912500", "192311.912500", "192312.912500", "192313.912500", "192314.912500", "192315.912500", "192316.912500", "192317.912500", "192318.912500", "192319.912500", "192320.912500", "192321.912500", "192322.912500", "192323.912500", "192324.912500", "192325.912500", "192326.912500", "192327.912500", "192328.912500", "192329.912500", "192330.912500", "192331.912500", "192332.912500", "192333.912500", "192334.912500", "192335.912500", "192336.912500", "192337.912500", "192338.912500", "192339.912500", "192340.912500", "192341.912500", "192342.912500", "192343.912500", "192344.912500", "192345.912500", "192346.912500", "192347.912500", "192348.912500", "192349.912500", "192350.912500", "192351.912500", "192352.912500", "192353.912500", "192354.912500", "192355.912500", "192356.912500", "192357.912500", "192358.912500", "192359.912500", "192400.912500", "192401.912500", "192402.912500", "192403.912500", "192404.912500", "192405.912500", "192406.912500", "192407.912500", "192408.912500", "192409.912500", "192410.912500", "192411.912500", "192412.912500", "192413.912500", "192414.912500", "192415.912500", "192416.912500", "192417.912500", "192418.912500", "192419.912500", "192420.912500", "192421.912500", "192422.912500", "192423.912500", "192424.912500", "192425.912500", "192426.912500", "192427.912500", "192428.912500", "192429.912500", "192430.912500", "192431.912500", "192432.912500", "192433.912500", "192434.912500", "192435.912500", "192436.912500", "192437.912500", "192438.912500", "192439.912500", "192440.912500", "192441.912500", "192442.912500", "192443.912500", "192444.912500", "192445.912500", "192446.912500", "192447.912500", "192448.912500", "192449.912500", "192450.912500", "192451.912500", "192452.912500", "192453.912500", "192454.912500", "192455.912500", "192456.912500", "192457.912500", "192458.912500", "192459.912500", "192500.912500", "192501.912500", "192502.912500", "192503.912500", "192504.912500", "192505.912500", "192506.912500", "192507.912500", "192508.912500", "192509.912500", "192510.912500", "192511.912500", "192512.912500", "192513.912500", "192514.912500", "192515.912500", "192516.912500", "192517.912500", "192518.912500", "192519.912500", "192520.912500", "192521.912500", "192522.912500", "192523.912500", "192524.912500", "192525.912500", "192526.912500", "192527.912500", "192528.912500", "192529.912500", "192530.912500", "192531.912500", "192532.912500", "192533.912500", "192534.912500", "192535.912500", "192536.912500", "192537.912500", "192538.912500", "192539.912500", "192540.912500", "192541.912500", "192542.912500", "192543.912500", "192544.912500", "192545.912500", "192546.912500", "192547.912500", "192548.912500", "192549.912500", "192550.912500", "192551.912500", "192552.912500", "192553.912500", "192554.912500", "192555.912500", "192556.912500", "192557.912500", "192558.912500", "192559.912500", "192600.912500", "192601.912500", "192602.912500", "192603.912500", "192604.912500", "192605.912500", "192606.912500", "192607.912500", "192608.912500", "192609.912500", "192610.912500", "192611.912500", "192612.912500", "192613.912500", "192614.912500", "192615.912500", "192616.912500", "192617.912500", "192618.912500", "192619.912500", "192620.912500", "192621.912500", "192622.912500", "192623.912500", "192624.912500", "192625.912500", "192626.912500", "192627.912500", "192628.912500", "192629.912500", "192630.912500", "192631.912500", "192632.912500", "192633.912500", "192634.912500", "192635.912500", "192636.912500", "192637.912500", "192638.912500", "192639.912500", "192640.912500", "192641.912500", "192642.912500", "192643.912500", "192644.912500", "192645.912500", "192646.912500", "192647.912500", "192648.912500", "192649.912500", "192650.912500", "192651.912500", "192652.912500", "192653.912500", "192654.912500", "192655.912500", "192656.912500", "192657.912500", "192658.912500", "192659.912500", "192700.912500", "192701.912500", "192702.912500", "192703.912500", "192704.912500", "192705.912500", "192706.912500", "192707.912500", "192708.912500", "192709.912500", "192710.912500", "192711.912500", "192712.912500", "192713.912500", "192714.912500", "192715.912500", "192716.912500", "192717.912500", "192718.912500", "192719.912500", "192720.912500", "192721.912500", "192722.912500", "192723.912500", "192724.912500", "192725.912500", "192726.912500", "192727.912500", "192728.912500", "192729.912500", "192730.912500", "192731.912500", "192732.912500", "192733.912500", "192734.912500", "192735.912500", "192736.912500", "192737.912500", "192738.912500", "192739.912500", "192740.912500", "192741.912500", "192742.912500", "192743.912500", "192744.912500", "192745.912500", "192746.912500", "192747.912500", "192748.912500", "192749.912500", "192750.912500", "192751.912500", "192752.912500", "192753.912500", "192754.912500", "192755.912500", "192756.912500", "192757.912500", "192758.912500", "192759.912500", "192800.912500", "192801.912500", "192802.912500", "192803.912500", "192804.912500", "192805.912500", "192806.912500", "192807.912500", "192808.912500", "192809.912500", "192810.912500", "192811.912500", "192812.912500", "192813.912500", "192814.912500", "192815.912500", "192816.912500", "192817.912500", "192818.912500", "192819.912500", "192820.912500", "192821.912500", "192822.912500", "192823.912500", "192824.912500", "192825.912500", "192826.912500", "192827.912500", "192828.912500", "192829.912500", "192830.912500", "192831.912500", "192832.912500", "192833.912500", "192834.912500", "192835.912500", "192836.912500", "192837.912500", "192838.912500", "192839.912500", "192840.912500", "192841.912500", "192842.912500", "192843.912500", "192844.912500", "192845.912500", "192846.912500", "192847.912500", "192848.912500", "192849.912500", "192850.912500", "192851.912500", "192852.912500", "192853.912500", "192854.912500", "192855.912500", "192856.912500", "192857.912500", "192858.912500", "192859.912500", "192900.912500", "192901.912500", "192902.912500", "192903.912500", "192904.912500", "192905.912500", "192906.912500", "192907.912500", "192908.912500", "192909.912500", "192910.912500", "192911.912500", "192912.912500", "192913.912500", "192914.912500", "192915.912500", "192916.912500", "192917.912500", "192918.912500", "192919.912500", "192920.912500", "192921.912500", "192922.912500", "192923.912500", "192924.912500", "192925.912500", "192926.912500", "192927.912500", "192928.912500", "192929.912500", "192930.912500", "192931.912500", "192932.912500", "192933.912500", "192934.912500", "192935.912500", "192936.912500", "192937.912500", "192938.912500", "192939.912500", "192940.912500", "192941.912500", "192942.912500", "192943.912500", "192944.912500", "192945.912500", "192946.912500", "192947.912500", "192948.912500", "192949.912500", "192950.912500", "192951.912500", "192952.912500", "192953.912500", "192954.912500", "192955.912500", "192956.912500", "192957.912500", "192958.912500", "192959.912500", "193000.912500", "193001.912500", "193002.912500", "193003.912500", "193004.912500", "193005.912500", "193006.912500", "193007.912500", "193008.912500", "193009.912500", "193010.912500", "193011.912500", "193012.912500", "193013.912500", "193014.912500", "193015.912500", "193016.912500", "193017.912500", "193018.912500", "193019.912500", "193020.912500", "193021.912500", "193022.912500", "193023.912500", "193024.912500", "193025.912500", "193026.912500", "193027.912500", "193028.912500", "193029.912500", "193030.912500"],
      "ContentTime": ["192313.408000", "192313.411000", "192313.414000", "192313.416000", "192313.418000", "192313.421000", "192313.425000", "192313.428000", "192313.430000", "192313.433000", "192313.435000", "192313.443000", "192313.446000", "192313.448000", "192313.451000", "192313.453000", "192313.456000", "192313.458000", "192313.461000", "192313.463000", "192313.465000", "192313.468000", "192313.470000", "192313.473000", "192313.475000", "192313.478000", "192313.480000", "192313.483000", "192313.485000", "192313.487000", "192333.378000", "192333.381000", "192333.384000", "192333.386000", "192333.389000", "192333.391000", "192333.394000", "192333.396000", "192333.398000", "192333.401000", "192333.403000", "192333.406000", "192333.408000", "192333.411000", "192333.413000", "192333.416000", "192333.418000", "192333.421000", "192333.423000", "192333.425000", "192353.377000", "192353.380000", "192353.383000", "192353.385000", "192353.388000", "192353.390000", "192353.393000", "192353.395000", "192353.398000", "192353.400000", "192353.402000", "192353.405000", "192353.407000", "192353.410000", "192353.412000", "192353.415000", "192353.417000", "192353.420000", "192353.422000", "192353.425000", "192413.377000", "192413.380000", "192413.383000", "192413.385000", "192413.387000", "192413.390000", "192413.392000", "192413.395000", "192413.397000", "192413.400000", "192413.402000", "192413.405000", "192413.407000", "192413.409000", "192413.412000", "192413.414000", "192413.417000", "192413.419000", "192413.422000", "192413.424000", "192433.378000", "192433.380000", "192433.383000", "192433.385000", "192433.388000", "192433.390000", "192433.393000", "192433.395000", "192433.398000", "192433.400000", "192433.402000", "192433.405000", "192433.407000", "192433.410000", "192433.412000", "192433.415000", "192433.417000", "192433.419000", "192433.422000", "192433.424000", "192453.378000", "192453.380000", "192453.383000", "192453.385000", "192453.388000", "192453.390000", "192453.393000", "192453.395000", "192453.397000", "192453.400000", "192453.402000", "192453.405000", "192453.407000", "192453.410000", "192453.412000", "192453.415000", "192453.417000", "192453.420000", "192453.422000", "192453.425000", "192513.377000", "192513.380000", "192513.383000", "192513.385000", "192513.388000", "192513.390000", "192513.393000", "192513.395000", "192513.398000", "192513.400000", "192513.402000", "192513.405000", "192513.407000", "192513.410000", "192513.412000", "192513.415000", "192513.417000", "192513.419000", "192513.422000", "192513.424000", "192533.378000", "192533.381000", "192533.383000", "192533.386000", "192533.388000", "192533.391000", "192533.393000", "192533.396000", "192533.398000", "192533.400000", "192533.403000", "192533.405000", "192533.408000", "192533.410000", "192533.413000", "192533.415000", "192533.418000", "192533.420000", "192533.423000", "192533.425000", "192553.379000", "192553.381000", "192553.384000", "192553.386000", "192553.389000", "192553.391000", "192553.394000", "192553.396000", "192553.398000", "192553.401000", "192553.403000", "192553.406000", "192553.409000", "192553.411000", "192553.413000", "192553.416000", "192553.418000", "192553.421000", "192553.423000", "192553.426000", "192613.377000", "192613.380000", "192613.383000", "192613.385000", "192613.387000", "192613.390000", "192613.402000", "192613.405000", "192613.407000", "192613.410000", "192613.412000", "192613.415000", "192613.417000", "192613.420000", "192613.422000", "192613.424000", "192613.427000", "192613.429000", "192613.432000", "192613.434000", "192633.377000", "192633.380000", "192633.382000", "192633.387000", "192633.389000", "192633.392000", "192633.394000", "192633.397000", "192633.399000", "192633.402000", "192633.404000", "192633.406000", "192633.409000", "192633.411000", "192633.414000", "192633.416000", "192633.419000", "192633.421000", "192633.424000", "192633.426000", "192653.378000", "192653.380000", "192653.383000", "192653.385000", "192653.388000", "192653.390000", "192653.393000", "192653.395000", "192653.398000", "192653.400000", "192653.402000", "192653.405000", "192653.407000", "192653.410000", "192653.412000", "192653.415000", "192653.417000", "192653.420000", "192653.422000", "192653.425000", "192713.377000", "192713.380000", "192713.382000", "192713.385000", "192713.387000", "192713.390000", "192713.392000", "192713.395000", "192713.397000", "192713.400000", "192713.402000", "192713.404000", "192713.407000", "192713.416000", "192713.418000", "192713.421000", "192713.423000", "192713.426000", "192713.428000", "192713.431000", "192733.377000", "192733.380000", "192733.382000", "192733.385000", "192733.387000", "192733.390000", "192733.392000", "192733.395000", "192733.397000", "192733.400000", "192733.402000", "192733.405000", "192733.407000", "192733.410000", "192733.412000", "192733.415000", "192733.417000", "192733.420000", "192733.422000", "192733.424000", "192753.378000", "192753.381000", "192753.384000", "192753.386000", "192753.389000", "192753.391000", "192753.394000", "192753.396000", "192753.399000", "192753.401000", "192753.404000", "192753.406000", "192753.409000", "192753.411000", "192753.414000", "192753.416000", "192753.419000", "192753.421000", "192753.423000", "192753.426000", "192813.379000", "192813.381000", "192813.384000", "192813.386000", "192813.389000", "192813.391000", "192813.394000", "192813.396000", "192813.399000", "192813.401000", "192813.403000", "192813.406000", "192813.408000", "192813.411000", "192813.413000", "192813.416000", "192813.418000", "192813.421000", "192813.423000", "192813.426000", "192833.377000", "192833.380000", "192833.383000", "192833.385000", "192833.388000", "192833.390000", "192833.393000", "192833.395000", "192833.397000", "192833.400000", "192833.402000", "192833.405000", "192833.407000", "192833.410000", "192833.412000", "192833.415000", "192833.417000", "192833.420000", "192833.422000", "192833.425000", "192853.377000", "192853.380000", "192853.383000", "192853.385000", "192853.387000", "192853.390000", "192853.392000", "192853.395000", "192853.397000", "192853.400000", "192853.402000", "192853.405000", "192853.407000", "192853.410000", "192853.412000", "192853.418000", "192853.421000", "192853.423000", "192853.426000", "192853.428000", "192913.377000", "192913.380000", "192913.383000", "192913.385000", "192913.387000", "192913.390000", "192913.392000", "192913.395000", "192913.397000", "192913.400000", "192913.402000", "192913.405000", "192913.407000", "192913.410000", "192913.412000", "192913.415000", "192913.417000", "192913.419000", "192913.422000", "192913.424000", "192933.378000", "192933.380000", "192933.383000", "192933.385000", "192933.388000", "192933.390000", "192933.393000", "192933.395000", "192933.398000", "192933.400000", "192933.403000", "192933.405000", "192933.408000", "192933.410000", "192933.413000", "192933.415000", "192933.418000", "192933.420000", "192933.422000", "192933.425000", "192953.395000", "192953.398000", "192953.401000", "192953.403000", "192953.406000", "192953.409000", "192953.412000", "192953.414000", "192953.417000", "192953.420000", "192953.423000", "192953.426000", "192953.428000", "192953.431000", "192953.434000", "192953.436000", "192953.439000", "192953.443000", "192953.445000", "192953.448000", "193013.378000", "193013.381000", "193013.384000", "193013.386000", "193013.389000", "193013.391000", "193013.393000", "193013.396000", "193013.398000", "193013.401000", "193013.403000", "193013.406000", "193013.408000", "193013.411000", "193013.413000", "193013.416000", "193013.418000", "193013.421000", "193013.423000", "193013.426000", "193032.403000", "193032.405000", "193032.408000", "193032.410000", "193032.413000", "193032.416000", "193032.418000", "193032.420000", "193032.423000", "193032.425000", "193032.428000", "193032.430000", "193032.433000", "193032.435000", "193032.438000", "193032.440000", "193032.443000", "193032.445000", "193032.448000"],
