{
  "AcquisitionMatrixPE": 106,
  "AcquisitionNumber": 1,
  "AcquisitionTime": "12:54:15.797500",
  "BandwidthPerPixelPhaseEncode": 13.477,
  "BaseResolution": 106,
  "BodyPartExamined": "BRAIN",
  "CoilCombinationMethod": "Sum of Squares",
  "ConsistencyInfo": "N4_VE11C_LATEST_20160120",
  "ConversionSoftware": "dcm2niix",
  "ConversionSoftwareVersion": "v1.0.20220720",
  "DerivedVendorReportedEchoSpacing": 0.000700005,
  "DeviceSerialNumber": "166108",
  "DwellTime": 2.6e-06,
  "EchoTime": 0.03,
  "EchoTrainLength": 80,
  "EffectiveEchoSpacing": 0.000700005,
  "FlipAngle": 62,
  "HeudiconvVersion": "1.3.0",
  "ImageComments": "Unaliased MB4/PE3/LB",
  "ImageOrientationPatientDICOM": [1, 0, 0, 0, 0.91496, -0.403545],
  "ImageOrientationText": "Tra>Cor(-23.8)",
  "ImageType": [
    "ORIGINAL",
    "PRIMARY",
    "M",
    "MB",
    "ND",
    "MOSAIC"
],
  "ImagingFrequency": 123.244,
  "InPlanePhaseEncodingDirectionDICOM": "COL",
  "InstitutionAddress": "Bedford Way 26,London,London,GB,WC1H 0AP",
  "InstitutionName": "University College",
  "InstitutionalDepartmentName": "Department",
  "MRAcquisitionType": "2D",
  "MagneticFieldStrength": 3,
  "Manufacturer": "Siemens",
  "ManufacturersModelName": "Prisma",
  "MatrixCoilMode": "SENSE",
  "Modality": "MR",
  "MultibandAccelerationFactor": 4,
  "NonlinearGradientCorrection": false,
  "PartialFourier": 0.75,
  "PatientPosition": "HFS",
  "PercentPhaseFOV": 100,
  "PercentSampling": 100,
  "PhaseEncodingDirection": "j-",
  "PhaseEncodingSteps": 80,
  "PhaseResolution": 1,
  "PixelBandwidth": 1815,
  "ProcedureStepDescription": "Egor^MovieProject2",
  "ProtocolName": "func-bold_task-tono_run-02",
  "PulseSequenceDetails": "%CustomerSeq%\\cmrr_mbep2d_bold",
  "ReceiveCoilActiveElements": "HEA;HEP",
  "ReceiveCoilName": "Head_32",
  "ReconMatrixPE": 106,
  "RepetitionTime": 1,
  "SAR": 0.0456945,
  "ScanOptions": "PFP\\FS\\EXT",
  "ScanningSequence": "EP",
  "SequenceName": "epfid2d1_106",
  "SequenceVariant": "SK\\SS",
  "SeriesDescription": "func-bold_task-tono_run-02",
  "SeriesNumber": 20,
  "ShimSetting": [-1497, 613, 7473, 259, -9, 17, 271, -96],
  "SliceThickness": 2,
  "SliceTiming": [0, 0.535, 0.09, 0.625, 0.18, 0.7125, 0.2675, 0.8025, 0.3575, 0.8925, 0.4475, 0, 0.535, 0.09, 0.625, 0.18, 0.7125, 0.2675, 0.8025, 0.3575, 0.8925, 0.4475, 0, 0.535, 0.09, 0.625, 0.18, 0.7125, 0.2675, 0.8025, 0.3575, 0.8925, 0.4475, 0, 0.535, 0.09, 0.625, 0.18, 0.7125, 0.2675, 0.8025, 0.3575, 0.8925, 0.4475],
  "SoftwareVersions": "syngo MR E11",
  "SpacingBetweenSlices": 2,
  "StationName": "AWP166108",
  "TaskName": "tonotopy",
  "TotalReadoutTime": 0.0735005,
  "TxRefAmp": 237.365,
  "WipMemBlock": "f0c3383b-13b8-4489-8b83-65ecba27b5ec||Sequence: R016 ve11c/master r/e634e98; Dec 19 2017 11:00:25 by eja",
  "dcmmeta_affine": [
    [-2.0, 0.0, 0.0, 106.0],
    [0.0, 1.8299193382263184, -0.8070906400680542, -71.08067321777344],
    [0.0, 0.8070906400680542, 1.8299192190170288, -58.1607551574707],
    [0.0, 0.0, 0.0, 1.0]
],
  "dcmmeta_reorient_transform": [
    [0.0, -1.0, 0.0, 105.0],
    [1.0, 0.0, 0.0, 0.0],
    [0.0, 0.0, 1.0, 0.0],
    [0.0, 0.0, 0.0, 1.0]
],
  "dcmmeta_shape": [106, 106, 44, 264],
  "dcmmeta_slice_dim": 2,
  "dcmmeta_version": 0.6,
  "global": {
    "const": {
      "AcquisitionMatrix": [106, 0, 0, 106],
      "AngioFlag": "N",
      "BitsAllocated": 16,
      "BitsStored": 16,
      "BodyPartExamined": "BRAIN",
      "CardiacNumberOfImages": 1,
      "Columns": 742,
      "EchoNumbers": 1,
      "EchoTime": 30.0,
      "EchoTrainLength": 80,
      "FlipAngle": 62.0,
      "HighBit": 15,
      "ImageOrientationPatient": [1.0, 0.0, 0.0, 0.0, 0.91495965822336, -0.4035453181785],
      "ImagePositionPatient": [-742.0, -702.97519495703, 283.23858469137],
      "ImageType": [
        "ORIGINAL",
        "PRIMARY",
        "M",
        "MB",
        "ND",
        "MOSAIC"
],
      "ImagedNucleus": "1H",
      "ImagingFrequency": 123.243602,
      "InPlanePhaseEncodingDirection": "COL",
      "MRAcquisitionType": "2D",
      "MagneticFieldStrength": 3.0,
      "Manufacturer": "SIEMENS",
      "ManufacturerModelName": "Prisma",
      "Modality": "MR",
      "NominalInterval": 0,
      "NumberOfAverages": 1.0,
      "NumberOfPhaseEncodingSteps": 80,
      "PercentPhaseFieldOfView": 100.0,
      "PercentSampling": 100.0,
      "PerformedProcedureStepStartTime": "113357.979000",
      "PhotometricInterpretation": "MONOCHROME2",
      "PixelBandwidth": 1815.0,
      "PixelRepresentation": 0,
      "PixelSpacing": [2.0, 2.0],
      "ProtocolName": "func-bold_task-tono_run-02",
      "RepetitionTime": 1000.0,
      "Rows": 742,
      "SAR": 0.04569446119399,
      "SamplesPerPixel": 1,
      "ScanOptions": [
        "PFP",
        "FS",
        "EXT"
],
      "ScanningSequence": "EP",
      "SequenceName": "epfid2d1_106",
      "SequenceVariant": [
        "SK",
        "SS"
],
      "SeriesDescription": "func-bold_task-tono_run-02",
      "SeriesNumber": 20,
      "SeriesTime": "125438.444000",
      "SliceLocation": -24.530470075661,
      "SliceThickness": 2.0,
      "SmallestImagePixelValue": 0,
      "SoftwareVersions": "syngo MR E11",
      "SpacingBetweenSlices": 1.9999999472002,
      "SpecificCharacterSet": "ISO_IR 100",
      "StudyID": "1",
      "StudyTime": "113357.925000",
      "TransmitCoilName": "Body",
      "VariableFlipAngleFlag": "N",
      "WindowCenterWidthExplanation": "Algo1",
      "dBdt": 0.0},
    "slices": {}
  },
  "time": {
    "samples": {
      "AcquisitionNumber": [1, 2, 3, 4, 5, 6, 7, 8, 9, 10, 11, 12, 13, 14, 15, 16, 17, 18, 19, 20, 21, 22, 23, 24, 25, 26, 27, 28, 29, 30, 31, 32, 33, 34, 35, 36, 37, 38, 39, 40, 41, 42, 43, 44, 45, 46, 47, 48, 49, 50, 51, 52, 53, 54, 55, 56, 57, 58, 59, 60, 61, 62, 63, 64, 65, 66, 67, 68, 69, 70, 71, 72, 73, 74, 75, 76, 77, 78, 79, 80, 81, 82, 83, 84, 85, 86, 87, 88, 89, 90, 91, 92, 93, 94, 95, 96, 97, 98, 99, 100, 101, 102, 103, 104, 105, 106, 107, 108, 109, 110, 111, 112, 113, 114, 115, 116, 117, 118, 119, 120, 121, 122, 123, 124, 125, 126, 127, 128, 129, 130, 131, 132, 133, 134, 135, 136, 137, 138, 139, 140, 141, 142, 143, 144, 145, 146, 147, 148, 149, 150, 151, 152, 153, 154, 155, 156, 157, 158, 159, 160, 161, 162, 163, 164, 165, 166, 167, 168, 169, 170, 171, 172, 173, 174, 175, 176, 177, 178, 179, 180, 181, 182, 183, 184, 185, 186, 187, 188, 189, 190, 191, 192, 193, 194, 195, 196, 197, 198, 199, 200, 201, 202, 203, 204, 205, 206, 207, 208, 209, 210, 211, 212, 213, 214, 215, 216, 217, 218, 219, 220, 221, 222, 223, 224, 225, 226, 227, 228, 229, 230, 231, 232, 233, 234, 235, 236, 237, 238, 239, 240, 241, 242, 243, 244, 245, 246, 247, 248, 249, 250, 251, 252, 253, 254, 255, 256, 257, 258, 259, 260, 261, 262, 263, 264],
      "AcquisitionTime": ["125415.797500", "125416.797500", "125417.797500", "125418.797500", "125419.797500", "125420.797500", "125421.797500", "125422.797500", "125423.797500", "125424.797500", "125425.797500", "125426.797500", "125427.797500", "125428.797500", "125429.797500", "125430.797500", "125431.797500", "125432.797500", "125433.797500", "125434.797500", "125435.797500", "125436.797500", "125437.797500", "125438.797500", "125439.797500", "125440.797500", "125441.797500", "125442.797500", "125443.797500", "125444.797500", "125445.797500", "125446.797500", "125447.797500", "125448.797500", "125449.797500", "125450.797500", "125451.797500", "125452.797500", "125453.797500", "125454.797500", "125455.797500", "125456.797500", "125457.797500", "125458.797500", "125459.797500", "125500.797500", "125501.797500", "125502.797500", "125503.797500", "125504.797500", "125505.797500", "125506.797500", "125507.797500", "125508.797500", "125509.797500", "125510.797500", "125511.797500", "125512.797500", "125513.797500", "125514.797500", "125515.797500", "125516.797500", "125517.797500", "125518.797500", "125519.797500", "125520.797500", "125521.797500", "125522.797500", "125523.797500", "125524.797500", "125525.797500", "125526.797500", "125527.797500", "125528.797500", "125529.797500", "125530.797500", "125531.797500", "125532.797500", "125533.797500", "125534.797500", "125535.797500", "125536.797500", "125537.797500", "125538.797500", "125539.797500", "125540.797500", "125541.797500", "125542.797500", "125543.797500", "125544.797500", "125545.797500", "125546.797500", "125547.797500", "125548.797500", "125549.797500", "125550.797500", "125551.797500", "125552.797500", "125553.797500", "125554.797500", "125555.797500", "125556.797500", "125557.797500", "125558.797500", "125559.797500", "125600.797500", "125601.797500", "125602.797500", "125603.797500", "125604.797500", "125605.797500", "125606.797500", "125607.797500", "125608.797500", "125609.797500", "125610.797500", "125611.797500", "125612.797500", "125613.797500", "125614.797500", "125615.797500", "125616.797500", "125617.797500", "125618.797500", "125619.797500", "125620.797500", "125621.797500", "125622.797500", "125623.797500", "125624.797500", "125625.797500", "125626.797500", "125627.797500", "125628.797500", "125629.797500", "125630.797500", "125631.797500", "125632.797500", "125633.797500", "125634.797500", "125635.797500", "125636.797500", "125637.797500", "125638.797500", "125639.797500", "125640.797500", "125641.797500", "125642.797500", "125643.797500", "125644.797500", "125645.797500", "125646.797500", "125647.797500", "125648.797500", "125649.797500", "125650.797500", "125651.797500", "125652.797500", "125653.797500", "125654.797500", "125655.797500", "125656.797500", "125657.797500", "125658.797500", "125659.797500", "125700.797500", "125701.797500", "125702.797500", "125703.797500", "125704.797500", "125705.797500", "125706.797500", "125707.797500", "125708.797500", "125709.797500", "125710.797500", "125711.797500", "125712.797500", "125713.797500", "125714.797500", "125715.797500", "125716.797500", "125717.797500", "125718.797500", "125719.797500", "125720.797500", "125721.797500", "125722.797500", "125723.797500", "125724.797500", "125725.797500", "125726.797500", "125727.797500", "125728.797500", "125729.797500", "125730.797500", "125731.797500", "125732.797500", "125733.797500", "125734.797500", "125735.797500", "125736.797500", "125737.797500", "125738.797500", "125739.797500", "125740.797500", "125741.797500", "125742.797500", "125743.797500", "125744.797500", "125745.797500", "125746.797500", "125747.797500", "125748.797500", "125749.797500", "125750.797500", "125751.797500", "125752.797500", "125753.797500", "125754.797500", "125755.797500", "125756.797500", "125757.797500", "125758.797500", "125759.797500", "125800.797500", "125801.797500", "125802.797500", "125803.797500", "125804.797500", "125805.797500", "125806.797500", "125807.797500", "125808.797500", "125809.797500", "125810.797500", "125811.797500", "125812.797500", "125813.797500", "125814.797500", "125815.797500", "125816.797500", "125817.797500", "125818.797500", "125819.797500", "125820.797500", "125821.797500", "125822.797500", "125823.797500", "125824.797500", "125825.797500", "125826.797500", "125827.797500", "125828.797500", "125829.797500", "125830.797500", "125831.797500", "125832.797500", "125833.797500", "125834.797500", "125835.797500", "125836.797500", "125837.797500", "125838.797500"],
      "ContentTime": ["125438.446000", "125438.449000", "125438.452000", "125438.454000", "125438.457000", "125438.459000", "125438.462000", "125438.465000", "125438.467000", "125438.470000", "125438.472000", "125438.474000", "125438.477000", "125438.479000", "125438.482000", "125438.484000", "125438.487000", "125438.489000", "125438.492000", "125438.494000", "125438.505000", "125438.508000", "125458.417000", "125458.420000", "125458.423000", "125458.425000", "125458.427000", "125458.430000", "125458.432000", "125458.435000", "125458.437000", "125458.440000", "125458.442000", "125458.445000", "125458.447000", "125458.450000", "125458.452000", "125458.459000", "125458.462000", "125458.464000", "125458.467000", "125458.470000", "125518.417000", "125518.420000", "125518.423000", "125518.427000", "125518.429000", "125518.432000", "125518.434000", "125518.437000", "125518.439000", "125518.441000", "125518.444000", "125518.446000", "125518.449000", "125518.451000", "125518.454000", "125518.456000", "125518.459000", "125518.461000", "125518.464000", "125518.466000", "125538.418000", "125538.421000", "125538.424000", "125538.426000", "125538.428000", "125538.431000", "125538.433000", "125538.436000", "125538.438000", "125538.441000", "125538.443000", "125538.446000", "125538.448000", "125538.450000", "125538.453000", "125538.455000", "125538.458000", "125538.460000", "125538.463000", "125538.465000", "125558.418000", "125558.421000", "125558.424000", "125558.426000", "125558.429000", "125558.431000", "125558.433000", "125558.436000", "125558.438000", "125558.441000", "125558.443000", "125558.446000", "125558.448000", "125558.450000", "125558.453000", "125558.456000", "125558.458000", "125558.460000", "125558.463000", "125558.465000", "125618.418000", "125618.421000", "125618.424000", "125618.426000", "125618.429000", "125618.431000", "125618.434000", "125618.436000", "125618.438000", "125618.441000", "125618.443000", "125618.446000", "125618.457000", "125618.460000", "125618.462000", "125618.465000", "125618.467000", "125618.469000", "125618.472000", "125618.474000", "125638.418000", "125638.421000", "125638.424000", "125638.426000", "125638.428000", "125638.431000", "125638.433000", "125638.436000", "125638.438000", "125638.441000", "125638.443000", "125638.446000", "125638.448000", "125638.451000", "125638.453000", "125638.456000", "125638.458000", "125638.460000", "125638.463000", "125638.465000", "125658.418000", "125658.421000", "125658.423000", "125658.426000", "125658.428000", "125658.431000", "125658.433000", "125658.436000", "125658.438000", "125658.441000", "125658.443000", "125658.446000", "125658.448000", "125658.451000", "125658.453000", "125658.456000", "125658.458000", "125658.460000", "125658.463000", "125658.465000", "125718.417000", "125718.420000", "125718.423000", "125718.425000", "125718.428000", "125718.430000", "125718.433000", "125718.435000", "125718.438000", "125718.440000", "125718.443000", "125718.445000", "125718.448000", "125718.450000", "125718.453000", "125718.455000", "125718.458000", "125718.460000", "125718.463000", "125718.465000", "125738.417000", "125738.420000", "125738.423000", "125738.425000", "125738.428000", "125738.430000", "125738.433000", "125738.435000", "125738.437000", "125738.440000", "125738.442000", "125738.445000", "125738.447000", "125738.450000", "125738.452000", "125738.455000", "125738.460000", "125738.462000", "125738.465000", "125738.467000", "125758.418000", "125758.421000", "125758.424000", "125758.426000", "125758.428000", "125758.431000", "125758.433000", "125758.436000", "125758.438000", "125758.441000", "125758.443000", "125758.446000", "125758.448000", "125758.451000", "125758.454000", "125758.456000", "125758.458000", "125758.461000", "125758.463000", "125758.466000", "125818.418000", "125818.421000", "125818.424000", "125818.426000", "125818.428000", "125818.431000", "125818.433000", "125818.436000", "125818.438000", "125818.441000", "125818.443000", "125818.446000", "125818.448000", "125818.451000", "125818.453000", "125818.456000", "125818.458000", "125818.461000", "125818.463000", "125818.466000", "125838.418000", "125838.421000", "125838.424000", "125838.426000", "125838.429000", "125838.431000", "125838.434000", "125838.436000", "125838.438000", "125838.441000", "125838.443000", "125838.446000", "125838.448000", "125838.451000", "125838.453000", "125838.456000", "125838.458000", "125838.461000", "125838.463000", "125838.466000", "125840.222000", "125840.225000"],
      "InstanceCreationTime": ["125438.446000", "125438.449000", "125438.452000", "125438.454000", "125438.457000", "125438.459000", "125438.462000", "125438.465000", "125438.467000", "125438.470000", "125438.472000", "125438.474000", "125438.477000", "125438.479000", "125438.482000", "125438.484000", "125438.487000", "125438.489000", "125438.492000", "125438.494000", "125438.505000", "125438.508000", "125458.417000", "125458.420000", "125458.423000", "125458.425000", "125458.427000", "125458.430000", "125458.432000", "125458.435000", "125458.437000", "125458.440000", "125458.442000", "125458.445000", "125458.447000", "125458.450000", "125458.452000", "125458.459000", "125458.462000", "125458.464000", "125458.467000", "125458.470000", "125518.417000", "125518.420000", "125518.423000", "125518.427000", "125518.429000", "125518.432000", "125518.434000", "125518.437000", "125518.439000", "125518.441000", "125518.444000", "125518.446000", "125518.449000", "125518.451000", "125518.454000", "125518.456000", "125518.459000", "125518.461000", "125518.464000", "125518.466000", "125538.418000", "125538.421000", "125538.424000", "125538.426000", "125538.428000", "125538.431000", "125538.433000", "125538.436000", "125538.438000", "125538.441000", "125538.443000", "125538.446000", "125538.448000", "125538.450000", "125538.453000", "125538.455000", "125538.458000", "125538.460000", "125538.463000", "125538.465000", "125558.418000", "125558.421000", "125558.424000", "125558.426000", "125558.429000", "125558.431000", "125558.433000", "125558.436000", "125558.438000", "125558.441000", "125558.443000", "125558.446000", "125558.448000", "125558.450000", "125558.453000", "125558.456000", "125558.458000", "125558.460000", "125558.463000", "125558.465000", "125618.418000", "125618.421000", "125618.424000", "125618.426000", "125618.429000", "125618.431000", "125618.434000", "125618.436000", "125618.438000", "125618.441000", "125618.443000", "125618.446000", "125618.457000", "125618.460000", "125618.462000", "125618.465000", "125618.467000", "125618.469000", "125618.472000", "125618.474000", "125638.418000", "125638.421000", "125638.424000", "125638.426000", "125638.428000", "125638.431000", "125638.433000", "125638.436000", "125638.438000", "125638.441000", "125638.443000", "125638.446000", "125638.448000", "125638.451000", "125638.453000", "125638.456000", "125638.458000", "125638.460000", "125638.463000", "125638.465000", "125658.418000", "125658.421000", "125658.423000", "125658.426000", "125658.428000", "125658.431000", "125658.433000", "125658.436000", "125658.438000", "125658.441000", "125658.443000", "125658.446000", "125658.448000", "125658.451000", "125658.453000", "125658.456000", "125658.458000", "125658.460000", "125658.463000", "125658.465000", "125718.417000", "125718.420000", "125718.423000", "125718.425000", "125718.428000", "125718.430000", "125718.433000", "125718.435000", "125718.438000", "125718.440000", "125718.443000", "125718.445000", "125718.448000", "125718.450000", "125718.453000", "125718.455000", "125718.458000", "125718.460000", "125718.463000", "125718.465000", "125738.417000", "125738.420000", "125738.423000", "125738.425000", "125738.428000", "125738.430000", "125738.433000", "125738.435000", "125738.437000", "125738.440000", "125738.442000", "125738.445000", "125738.447000", "125738.450000", "125738.452000", "125738.455000", "125738.460000", "125738.462000", "125738.465000", "125738.467000", "125758.418000", "125758.421000", "125758.424000", "125758.426000", "125758.428000", "125758.431000", "125758.433000", "125758.436000", "125758.438000", "125758.441000", "125758.443000", "125758.446000", "125758.448000", "125758.451000", "125758.454000", "125758.456000", "125758.458000", "125758.461000", "125758.463000", "125758.466000", "125818.418000", "125818.421000", "125818.424000", "125818.426000", "125818.428000", "125818.431000", "125818.433000", "125818.436000", "125818.438000", "125818.441000", "125818.443000", "125818.446000", "125818.448000", "125818.451000", "125818.453000", "125818.456000", "125818.458000", "125818.461000", "125818.463000", "125818.466000", "125838.418000", "125838.421000", "125838.424000", "125838.426000", "125838.429000", "125838.431000", "125838.434000", "125838.436000", "125838.438000", "125838.441000", "125838.443000", "125838.446000", "125838.448000", "125838.451000", "125838.453000", "125838.456000", "125838.458000", "125838.461000", "125838.463000", "125838.466000", "125840.222000", "125840.225000"],
      "InstanceNumber": [1, 2, 3, 4, 5, 6, 7, 8, 9, 10, 11, 12, 13, 14, 15, 16, 17, 18, 19, 20, 21, 22, 23, 24, 25, 26, 27, 28, 29, 30, 31, 32, 33, 34, 35, 36, 37, 38, 39, 40, 41, 42, 43, 44, 45, 46, 47, 48, 49, 50, 51, 52, 53, 54, 55, 56, 57, 58, 59, 60, 61, 62, 63, 64, 65, 66, 67, 68, 69, 70, 71, 72, 73, 74, 75, 76, 77, 78, 79, 80, 81, 82, 83, 84, 85, 86, 87, 88, 89, 90, 91, 92, 93, 94, 95, 96, 97, 98, 99, 100, 101, 102, 103, 104, 105, 106, 107, 108, 109, 110, 111, 112, 113, 114, 115, 116, 117, 118, 119, 120, 121, 122, 123, 124, 125, 126, 127, 128, 129, 130, 131, 132, 133, 134, 135, 136, 137, 138, 139, 140, 141, 142, 143, 144, 145, 146, 147, 148, 149, 150, 151, 152, 153, 154, 155, 156, 157, 158, 159, 160, 161, 162, 163, 164, 165, 166, 167, 168, 169, 170, 171, 172, 173, 174, 175, 176, 177, 178, 179, 180, 181, 182, 183, 184, 185, 186, 187, 188, 189, 190, 191, 192, 193, 194, 195, 196, 197, 198, 199, 200, 201, 202, 203, 204, 205, 206, 207, 208, 209, 210, 211, 212, 213, 214, 215, 216, 217, 218, 219, 220, 221, 222, 223, 224, 225, 226, 227, 228, 229, 230, 231, 232, 233, 234, 235, 236, 237, 238, 239, 240, 241, 242, 243, 244, 245, 246, 247, 248, 249, 250, 251, 252, 253, 254, 255, 256, 257, 258, 259, 260, 261, 262, 263, 264],
      "LargestImagePixelValue": [14189, 13822, 13821, 13752, 13510, 13593, 13483, 13459, 13500, 13347, 13408, 13483, 13475, 13714, 13603, 13566, 13661, 13617, 13667, 13638, 13656, 13624, 13539, 13607, 13577, 13529, 13578, 13591, 13582, 13589, 13649, 13549, 13490, 13551, 13595, 13660, 13679, 13552, 13663, 13607, 13546, 13552, 13507, 13579, 13548, 13617, 13702, 13494, 13547, 13470, 13539, 13590, 13449, 13376, 13439, 13441, 13413, 13349, 13346, 13370, 13370, 13430, 13414, 13386, 13304, 13393, 13472, 13301, 13391, 13405, 13241, 13397, 13366, 13257, 13353, 13298, 13265, 13291, 13279, 13213, 13414, 13377, 13175, 13336, 13158, 13155, 13362, 13281, 13147, 13281, 13107, 13043, 13216, 13089, 13089, 13258, 13166, 13241, 13315, 13165, 13119, 13103, 13043, 13092, 13019, 13068, 13094, 13061, 12916, 13108, 13027, 13066, 12993, 12945, 13007, 13125, 13000, 13100, 13120, 12949, 13320, 13124, 13042, 13088, 13048, 12915, 13171, 13110, 13019, 13039, 13027, 13003, 13053, 13064, 12998, 13118, 13015, 13103, 13274, 13087, 13025, 13086, 13141, 13062, 13101, 13041, 12983, 13030, 12931, 12994, 12941, 12748, 12830, 12891, 12882, 12893, 12939, 12870, 12921, 12809, 12818, 12806, 13003, 12873, 12863, 12992, 12844, 12970, 12855, 12873, 12905, 13018, 12803, 12991, 12965, 13010, 13095, 13029, 12893, 13000, 12879, 12908, 13003, 12896, 13031, 12923, 12917, 12770, 12698, 12777, 12750, 12594, 12631, 12661, 12635, 12686, 12682, 12603, 12712, 12643, 12642, 12544, 12547, 12588, 12494, 12536, 12589, 12541, 12499, 12540, 12571, 12403, 12482, 12575, 12539, 12628, 12642, 12675, 12600, 12486, 12698, 12584, 12595, 12545, 12571, 12513, 12528, 12635, 12728, 12613, 12559, 12452, 12572, 12424, 12645, 12652, 12587, 12651, 12640, 12531, 12529, 12588, 12443, 12555, 12485, 12604, 12668, 12697, 12649, 12456, 12462, 12452, 12601, 12595, 12581, 12653, 12452, 12474, 12356, 12438, 12528, 12673, 12684, 12708],
      "TriggerTime": [8102.5, 9102.5, 10102.5, 11102.5, 12102.5, 13102.5, 14102.5, 15102.5, 16102.5, 17102.5, 18102.5, 19102.5, 20102.5, 21102.5, 22102.5, 23102.5, 24102.5, 25102.5, 26102.5, 27102.5, 28102.5, 29102.5, 30102.5, 31102.5, 32102.5, 33102.5, 34102.5, 35102.5, 36102.5, 37102.5, 38102.5, 39102.5, 40102.5, 41102.5, 42102.5, 43102.5, 44102.5, 45102.5, 46102.5, 47102.5, 48102.5, 49102.5, 50102.5, 51102.5, 52102.5, 53102.5, 54102.5, 55102.5, 56102.5, 57102.5, 58102.5, 59102.5, 60102.5, 61102.5, 62102.5, 63102.5, 64102.5, 65102.5, 66102.5, 67102.5, 68102.5, 69102.5, 70102.5, 71102.5, 72102.5, 73102.5, 74102.5, 75102.5, 76102.5, 77102.5, 78102.5, 79102.5, 80102.5, 81102.5, 82102.5, 83102.5, 84102.5, 85102.5, 86102.5, 87102.5, 88102.5, 89102.5, 90102.5, 91102.5, 92102.5, 93102.5, 94102.5, 95102.5, 96102.5, 97102.5, 98102.5, 99102.5, 100102.5, 101102.5, 102102.5, 103102.5, 104102.5, 105102.5, 106102.5, 107102.5, 108102.5, 109102.5, 110102.5, 111102.5, 112102.5, 113102.5, 114102.5, 115102.5, 116102.5, 117102.5, 118102.5, 119102.5, 120102.5, 121102.5, 122102.5, 123102.5, 124102.5, 125102.5, 126102.5, 127102.5, 128102.5, 129102.5, 130102.5, 131102.5, 132102.5, 133102.5, 134102.5, 135102.5, 136102.5, 137102.5, 138102.5, 139102.5, 140102.5, 141102.5, 142102.5, 143102.5, 144102.5, 145102.5, 146102.5, 147102.5, 148102.5, 149102.5, 150102.5, 151102.5, 152102.5, 153102.5, 154102.5, 155102.5, 156102.5, 157102.5, 158102.5, 159102.5, 160102.5, 161102.5, 162102.5, 163102.5, 164102.5, 165102.5, 166102.5, 167102.5, 168102.5, 169102.5, 170102.5, 171102.5, 172102.5, 173102.5, 174102.5, 175102.5, 176102.5, 177102.5, 178102.5, 179102.5, 180102.5, 181102.5, 182102.5, 183102.5, 184102.5, 185102.5, 186102.5, 187102.5, 188102.5, 189102.5, 190102.5, 191102.5, 192102.5, 193102.5, 194102.5, 195102.5, 196102.5, 197102.5, 198102.5, 199102.5, 200102.5, 201102.5, 202102.5, 203102.5, 204102.5, 205102.5, 206102.5, 207102.5, 208102.5, 209102.5, 210102.5, 211102.5, 212102.5, 213102.5, 214102.5, 215102.5, 216102.5, 217102.5, 218102.5, 219102.5, 220102.5, 221102.5, 222102.5, 223102.5, 224102.5, 225102.5, 226102.5, 227102.5, 228102.5, 229102.5, 230102.5, 231102.5, 232102.5, 233102.5, 234102.5, 235102.5, 236102.5, 237102.5, 238102.5, 239102.5, 240102.5, 241102.5, 242102.5, 243102.5, 244102.5, 245102.5, 246102.5, 247102.5, 248102.5, 249102.5, 250102.5, 251102.5, 252102.5, 253102.5, 254102.5, 255102.5, 256102.5, 257102.5, 258102.5, 259102.5, 260102.5, 261102.5, 262102.5, 263102.5, 264102.5, 265102.5, 266102.5, 267102.5, 268102.5, 269102.5, 270102.5, 271102.5],
      "WindowCenter": [4869.0, 4866.0, 4880.0, 4868.0, 4841.0, 4839.0, 4839.0, 4839.0, 4828.0, 4831.0, 4830.0, 4841.0, 4843.0, 4852.0, 4865.0, 4857.0, 4869.0, 4855.0, 4852.0, 4853.0, 4850.0, 4852.0, 4856.0, 4853.0, 4855.0, 4853.0, 4853.0, 4853.0, 4856.0, 4853.0, 4864.0, 4855.0, 4854.0, 4854.0, 4854.0, 4867.0, 4864.0, 4856.0, 4865.0, 4866.0, 4855.0, 4868.0, 4856.0, 4859.0, 4852.0, 4851.0, 4865.0, 4853.0, 4857.0, 4858.0, 4852.0, 4853.0, 4854.0, 4856.0, 4855.0, 4855.0, 4854.0, 4858.0, 4855.0, 4856.0, 4853.0, 4854.0, 4855.0, 4853.0, 4854.0, 4852.0, 4854.0, 4853.0, 4855.0, 4856.0, 4854.0, 4857.0, 4854.0, 4854.0, 4856.0, 4853.0, 4843.0, 4854.0, 4858.0, 4858.0, 4855.0, 4855.0, 4847.0, 4853.0, 4843.0, 4843.0, 4853.0, 4854.0, 4844.0, 4854.0, 4844.0, 4844.0, 4852.0, 4854.0, 4853.0, 4857.0, 4856.0, 4845.0, 4855.0, 4842.0, 4843.0, 4843.0, 4843.0, 4841.0, 4842.0, 4844.0, 4842.0, 4842.0, 4836.0, 4842.0, 4843.0, 4843.0, 4842.0, 4843.0, 4843.0, 4842.0, 4846.0, 4853.0, 4852.0, 4843.0, 4853.0, 4853.0, 4853.0, 4847.0, 4842.0, 4832.0, 4847.0, 4855.0, 4847.0, 4855.0, 4843.0, 4842.0, 4851.0, 4853.0, 4858.0, 4854.0, 4860.0, 4855.0, 4856.0, 4856.0, 4858.0, 4856.0, 4857.0, 4857.0, 4853.0, 4845.0, 4845.0, 4845.0, 4844.0, 4842.0, 4845.0, 4833.0, 4833.0, 4842.0, 4844.0, 4845.0, 4845.0, 4847.0, 4848.0, 4845.0, 4844.0, 4846.0, 4844.0, 4847.0, 4845.0, 4844.0, 4843.0, 4843.0, 4833.0, 4832.0, 4841.0, 4846.0, 4833.0, 4844.0, 4844.0, 4845.0, 4855.0, 4847.0, 4845.0, 4843.0, 4835.0, 4837.0, 4843.0, 4835.0, 4846.0, 4846.0, 4832.0, 4834.0, 4832.0, 4834.0, 4842.0, 4832.0, 4835.0, 4846.0, 4836.0, 4843.0, 4844.0, 4836.0, 4846.0, 4845.0, 4845.0, 4833.0, 4833.0, 4837.0, 4835.0, 4837.0, 4838.0, 4837.0, 4833.0, 4833.0, 4834.0, 4832.0, 4822.0, 4836.0, 4833.0, 4832.0, 4832.0, 4836.0, 4821.0, 4837.0, 4848.0, 4837.0, 4822.0, 4835.0, 4835.0, 4835.0, 4836.0, 4832.0, 4834.0, 4833.0, 4821.0, 4819.0, 4823.0, 4834.0, 4832.0, 4834.0, 4833.0, 4844.0, 4842.0, 4833.0, 4826.0, 4833.0, 4824.0, 4821.0, 4822.0, 4831.0, 4836.0, 4846.0, 4834.0, 4824.0, 4821.0, 4831.0, 4833.0, 4834.0, 4835.0, 4846.0, 4837.0, 4834.0, 4832.0, 4833.0, 4835.0, 4844.0, 4835.0, 4842.0],
