{
  "AcquisitionMatrixPE": 106,
  "AcquisitionNumber": 1,
  "AcquisitionTime": "19:12:14.895000",
  "BandwidthPerPixelPhaseEncode": 13.477,
  "BaseResolution": 106,
  "BodyPartExamined": "BRAIN",
  "CoilCombinationMethod": "Sum of Squares",
  "ConsistencyInfo": "N4_VE11C_LATEST_20160120",
  "ConversionSoftware": "dcm2niix",
  "ConversionSoftwareVersion": "v1.0.20220720",
  "DerivedVendorReportedEchoSpacing": 0.000700005,
  "DeviceSerialNumber": "166108",
  "DwellTime": 2.6e-06,
  "EchoTime": 0.03,
  "EchoTrainLength": 80,
  "EffectiveEchoSpacing": 0.000700005,
  "FlipAngle": 62,
  "HeudiconvVersion": "1.3.0",
  "ImageComments": "Unaliased MB4/PE3/LB",
  "ImageOrientationPatientDICOM": [1, 0, 0, 0, 0.994881, -0.101056],
  "ImageOrientationText": "Tra>Cor(-5.8)",
  "ImageType": [
    "ORIGINAL",
    "PRIMARY",
    "M",
    "MB",
    "ND",
    "MOSAIC"
],
  "ImagingFrequency": 123.244,
  "InPlanePhaseEncodingDirectionDICOM": "COL",
  "InstitutionAddress": "Bedford Way 26,London,London,GB,WC1H 0AP",
  "InstitutionName": "University College",
  "InstitutionalDepartmentName": "Department",
  "MRAcquisitionType": "2D",
  "MagneticFieldStrength": 3,
  "Manufacturer": "Siemens",
  "ManufacturersModelName": "Prisma",
  "MatrixCoilMode": "SENSE",
  "Modality": "MR",
  "MultibandAccelerationFactor": 4,
  "NonlinearGradientCorrection": false,
  "PartialFourier": 0.75,
  "PatientPosition": "HFS",
  "PercentPhaseFOV": 100,
  "PercentSampling": 100,
  "PhaseEncodingDirection": "j-",
  "PhaseEncodingSteps": 80,
  "PhaseResolution": 1,
  "PixelBandwidth": 1815,
  "ProcedureStepDescription": "Tessa^LHON",
  "ProtocolName": "func-bold_task-motor_run-01",
  "PulseSequenceDetails": "%CustomerSeq%\\cmrr_mbep2d_bold",
  "ReceiveCoilActiveElements": "HEA;HEP",
  "ReceiveCoilName": "Head_32",
  "ReconMatrixPE": 106,
  "RepetitionTime": 1,
  "SAR": 0.0436606,
  "ScanOptions": "PFP\\FS\\EXT",
  "ScanningSequence": "EP",
  "SequenceName": "epfid2d1_106",
  "SequenceVariant": "SK\\SS",
  "SeriesDescription": "func-bold_task-motor_run-01",
  "SeriesNumber": 6,
  "ShimSetting": [-1509, 559, 7365, 101, 12, -68, 124, -45],
  "SliceThickness": 2,
  "SliceTiming": [0, 0.535, 0.09, 0.6225, 0.1775, 0.7125, 0.2675, 0.8025, 0.355, 0.89, 0.445, 0, 0.535, 0.09, 0.6225, 0.1775, 0.7125, 0.2675, 0.8025, 0.355, 0.89, 0.445, 0, 0.535, 0.09, 0.6225, 0.1775, 0.7125, 0.2675, 0.8025, 0.355, 0.89, 0.445, 0, 0.535, 0.09, 0.6225, 0.1775, 0.7125, 0.2675, 0.8025, 0.355, 0.89, 0.445],
  "SoftwareVersions": "syngo MR E11",
  "SpacingBetweenSlices": 2,
  "StationName": "AWP166108",
  "TaskName": "somatotopy",
  "TotalReadoutTime": 0.0735005,
  "TxRefAmp": 217.472,
  "WipMemBlock": "8c9826b4-585f-4353-979b-464274527616||Sequence: R016 ve11c/master r/e634e98; Dec 19 2017 11:00:25 by eja",
  "dcmmeta_affine": [
    [-2.0, 0.0, 0.0, 106.0],
    [0.0, 1.989761471748352, -0.2021125853061676, -89.35852813720703],
    [0.0, 0.2021125853061676, 1.9897613525390625, -11.781874656677246],
    [0.0, 0.0, 0.0, 1.0]
],
  "dcmmeta_reorient_transform": [
    [0.0, -1.0, 0.0, 105.0],
    [1.0, 0.0, 0.0, 0.0],
    [0.0, 0.0, 1.0, 0.0],
    [0.0, 0.0, 0.0, 1.0]
],
  "dcmmeta_shape": [106, 106, 44, 467],
  "dcmmeta_slice_dim": 2,
  "dcmmeta_version": 0.6,
  "global": {
    "const": {
      "AcquisitionMatrix": [106, 0, 0, 106],
      "AngioFlag": "N",
      "BitsAllocated": 16,
      "BitsStored": 16,
      "BodyPartExamined": "BRAIN",
      "CardiacNumberOfImages": 1,
      "Columns": 742,
      "EchoNumbers": 1,
      "EchoTime": 30.0,
      "EchoTrainLength": 80,
      "FlipAngle": 62.0,
      "HighBit": 15,
      "ImageOrientationPatient": [1.0, 0.0, 0.0, 0.0, 0.99488070921592, -0.1010562933717],
      "ImagePositionPatient": [-742.0, -752.31055224773, 73.711749461023],
      "ImageType": [
        "ORIGINAL",
        "PRIMARY",
        "M",
        "MB",
        "ND",
        "MOSAIC"
],
      "ImagedNucleus": "1H",
      "ImagingFrequency": 123.243641,
      "InPlanePhaseEncodingDirection": "COL",
      "MRAcquisitionType": "2D",
      "MagneticFieldStrength": 3.0,
      "Manufacturer": "SIEMENS",
      "ManufacturerModelName": "Prisma",
      "Modality": "MR",
      "NominalInterval": 0,
      "NumberOfAverages": 1.0,
      "NumberOfPhaseEncodingSteps": 80,
      "PercentPhaseFieldOfView": 100.0,
      "PercentSampling": 100.0,
      "PerformedProcedureStepStartTime": "183732.004000",
      "PhotometricInterpretation": "MONOCHROME2",
      "PixelBandwidth": 1815.0,
      "PixelRepresentation": 0,
      "PixelSpacing": [2.0, 2.0],
      "ProtocolName": "func-bold_task-motor_run-01",
      "RepetitionTime": 1000.0,
      "Rows": 742,
      "SAR": 0.04366057760225,
      "SamplesPerPixel": 1,
      "ScanOptions": [
        "PFP",
        "FS",
        "EXT"
],
      "ScanningSequence": "EP",
      "SequenceName": "epfid2d1_106",
      "SequenceVariant": [
        "SK",
        "SS"
],
      "SeriesDescription": "func-bold_task-motor_run-01",
      "SeriesNumber": 6,
      "SeriesTime": "191237.101000",
      "SliceLocation": -2.6913182932217,
      "SliceThickness": 2.0,
      "SmallestImagePixelValue": 0,
      "SoftwareVersions": "syngo MR E11",
      "SpacingBetweenSlices": 1.9999999757411,
      "SpecificCharacterSet": "ISO_IR 100",
      "StudyID": "1",
      "StudyTime": "183731.950000",
      "TransmitCoilName": "Body",
      "VariableFlipAngleFlag": "N",
      "WindowCenterWidthExplanation": "Algo1",
      "dBdt": 0.0},
    "slices": {}
  },
  "time": {
    "samples": {
      "AcquisitionNumber": [1, 2, 3, 4, 5, 6, 7, 8, 9, 10, 11, 12, 13, 14, 15, 16, 17, 18, 19, 20, 21, 22, 23, 24, 25, 26, 27, 28, 29, 30, 31, 32, 33, 34, 35, 36, 37, 38, 39, 40, 41, 42, 43, 44, 45, 46, 47, 48, 49, 50, 51, 52, 53, 54, 55, 56, 57, 58, 59, 60, 61, 62, 63, 64, 65, 66, 67, 68, 69, 70, 71, 72, 73, 74, 75, 76, 77, 78, 79, 80, 81, 82, 83, 84, 85, 86, 87, 88, 89, 90, 91, 92, 93, 94, 95, 96, 97, 98, 99, 100, 101, 102, 103, 104, 105, 106, 107, 108, 109, 110, 111, 112, 113, 114, 115, 116, 117, 118, 119, 120, 121, 122, 123, 124, 125, 126, 127, 128, 129, 130, 131, 132, 133, 134, 135, 136, 137, 138, 139, 140, 141, 142, 143, 144, 145, 146, 147, 148, 149, 150, 151, 152, 153, 154, 155, 156, 157, 158, 159, 160, 161, 162, 163, 164, 165, 166, 167, 168, 169, 170, 171, 172, 173, 174, 175, 176, 177, 178, 179, 180, 181, 182, 183, 184, 185, 186, 187, 188, 189, 190, 191, 192, 193, 194, 195, 196, 197, 198, 199, 200, 201, 202, 203, 204, 205, 206, 207, 208, 209, 210, 211, 212, 213, 214, 215, 216, 217, 218, 219, 220, 221, 222, 223, 224, 225, 226, 227, 228, 229, 230, 231, 232, 233, 234, 235, 236, 237, 238, 239, 240, 241, 242, 243, 244, 245, 246, 247, 248, 249, 250, 251, 252, 253, 254, 255, 256, 257, 258, 259, 260, 261, 262, 263, 264, 265, 266, 267, 268, 269, 270, 271, 272, 273, 274, 275, 276, 277, 278, 279, 280, 281, 282, 283, 284, 285, 286, 287, 288, 289, 290, 291, 292, 293, 294, 295, 296, 297, 298, 299, 300, 301, 302, 303, 304, 305, 306, 307, 308, 309, 310, 311, 312, 313, 314, 315, 316, 317, 318, 319, 320, 321, 322, 323, 324, 325, 326, 327, 328, 329, 330, 331, 332, 333, 334, 335, 336, 337, 338, 339, 340, 341, 342, 343, 344, 345, 346, 347, 348, 349, 350, 351, 352, 353, 354, 355, 356, 357, 358, 359, 360, 361, 362, 363, 364, 365, 366, 367, 368, 369, 370, 371, 372, 373, 374, 375, 376, 377, 378, 379, 380, 381, 382, 383, 384, 385, 386, 387, 388, 389, 390, 391, 392, 393, 394, 395, 396, 397, 398, 399, 400, 401, 402, 403, 404, 405, 406, 407, 408, 409, 410, 411, 412, 413, 414, 415, 416, 417, 418, 419, 420, 421, 422, 423, 424, 425, 426, 427, 428, 429, 430, 431, 432, 433, 434, 435, 436, 437, 438, 439, 440, 441, 442, 443, 444, 445, 446, 447, 448, 449, 450, 451, 452, 453, 454, 455, 456, 457, 458, 459, 460, 461, 462, 463, 464, 465, 466, 467],
      "AcquisitionTime": ["191214.895000", "191215.895000", "191216.895000", "191217.895000", "191218.895000", "191219.895000", "191220.895000", "191221.895000", "191222.895000", "191223.895000", "191224.895000", "191225.895000", "191226.895000", "191227.895000", "191228.895000", "191229.895000", "191230.895000", "191231.895000", "191232.895000", "191233.895000", "191234.895000", "191235.895000", "191236.895000", "191237.895000", "191238.895000", "191239.895000", "191240.895000", "191241.895000", "191242.895000", "191243.895000", "191244.895000", "191245.895000", "191246.895000", "191247.895000", "191248.895000", "191249.895000", "191250.895000", "191251.895000", "191252.895000", "191253.895000", "191254.895000", "191255.895000", "191256.895000", "191257.895000", "191258.895000", "191259.895000", "191300.895000", "191301.895000", "191302.895000", "191303.895000", "191304.895000", "191305.895000", "191306.895000", "191307.895000", "191308.895000", "191309.895000", "191310.895000", "191311.895000", "191312.895000", "191313.895000", "191314.895000", "191315.895000", "191316.895000", "191317.895000", "191318.895000", "191319.895000", "191320.895000", "191321.895000", "191322.895000", "191323.895000", "191324.895000", "191325.895000", "191326.895000", "191327.895000", "191328.895000", "191329.895000", "191330.895000", "191331.895000", "191332.895000", "191333.895000", "191334.895000", "191335.895000", "191336.895000", "191337.895000", "191338.895000", "191339.895000", "191340.895000", "191341.895000", "191342.895000", "191343.895000", "191344.895000", "191345.895000", "191346.895000", "191347.895000", "191348.895000", "191349.895000", "191350.895000", "191351.895000", "191352.895000", "191353.895000", "191354.895000", "191355.895000", "191356.895000", "191357.895000", "191358.895000", "191359.895000", "191400.895000", "191401.895000", "191402.895000", "191403.895000", "191404.895000", "191405.895000", "191406.895000", "191407.895000", "191408.895000", "191409.895000", "191410.895000", "191411.895000", "191412.895000", "191413.895000", "191414.895000", "191415.895000", "191416.895000", "191417.895000", "191418.895000", "191419.895000", "191420.895000", "191421.895000", "191422.895000", "191423.895000", "191424.895000", "191425.895000", "191426.895000", "191427.895000", "191428.895000", "191429.895000", "191430.895000", "191431.895000", "191432.895000", "191433.895000", "191434.895000", "191435.895000", "191436.895000", "191437.895000", "191438.895000", "191439.895000", "191440.895000", "191441.895000", "191442.895000", "191443.895000", "191444.895000", "191445.895000", "191446.895000", "191447.895000", "191448.895000", "191449.895000", "191450.895000", "191451.895000", "191452.895000", "191453.895000", "191454.895000", "191455.895000", "191456.895000", "191457.895000", "191458.895000", "191459.895000", "191500.895000", "191501.895000", "191502.895000", "191503.895000", "191504.895000", "191505.895000", "191506.895000", "191507.895000", "191508.895000", "191509.895000", "191510.895000", "191511.895000", "191512.895000", "191513.895000", "191514.895000", "191515.895000", "191516.895000", "191517.895000", "191518.895000", "191519.895000", "191520.895000", "191521.895000", "191522.895000", "191523.895000", "191524.895000", "191525.895000", "191526.895000", "191527.895000", "191528.895000", "191529.895000", "191530.895000", "191531.895000", "191532.895000", "191533.895000", "191534.895000", "191535.895000", "191536.895000", "191537.895000", "191538.895000", "191539.895000", "191540.895000", "191541.895000", "191542.895000", "191543.895000", "191544.895000", "191545.895000", "191546.895000", "191547.895000", "191548.895000", "191549.895000", "191550.895000", "191551.895000", "191552.895000", "191553.895000", "191554.895000", "191555.895000", "191556.895000", "191557.895000", "191558.895000", "191559.895000", "191600.895000", "191601.895000", "191602.895000", "191603.895000", "191604.895000", "191605.895000", "191606.895000", "191607.895000", "191608.895000", "191609.895000", "191610.895000", "191611.895000", "191612.895000", "191613.895000", "191614.895000", "191615.895000", "191616.895000", "191617.895000", "191618.895000", "191619.895000", "191620.895000", "191621.895000", "191622.895000", "191623.895000", "191624.895000", "191625.895000", "191626.895000", "191627.895000", "191628.895000", "191629.895000", "191630.895000", "191631.895000", "191632.895000", "191633.895000", "191634.895000", "191635.895000", "191636.895000", "191637.895000", "191638.895000", "191639.895000", "191640.895000", "191641.895000", "191642.895000", "191643.895000", "191644.895000", "191645.895000", "191646.895000", "191647.895000", "191648.895000", "191649.895000", "191650.895000", "191651.895000", "191652.895000", "191653.895000", "191654.895000", "191655.895000", "191656.895000", "191657.895000", "191658.895000", "191659.895000", "191700.895000", "191701.895000", "191702.895000", "191703.895000", "191704.895000", "191705.895000", "191706.895000", "191707.895000", "191708.895000", "191709.895000", "191710.895000", "191711.895000", "191712.895000", "191713.895000", "191714.895000", "191715.895000", "191716.895000", "191717.895000", "191718.895000", "191719.895000", "191720.895000", "191721.895000", "191722.895000", "191723.895000", "191724.895000", "191725.895000", "191726.895000", "191727.895000", "191728.895000", "191729.895000", "191730.895000", "191731.895000", "191732.895000", "191733.895000", "191734.895000", "191735.895000", "191736.895000", "191737.895000", "191738.895000", "191739.895000", "191740.895000", "191741.895000", "191742.895000", "191743.895000", "191744.895000", "191745.895000", "191746.895000", "191747.895000", "191748.895000", "191749.895000", "191750.895000", "191751.895000", "191752.895000", "191753.895000", "191754.895000", "191755.895000", "191756.895000", "191757.895000", "191758.895000", "191759.895000", "191800.895000", "191801.895000", "191802.895000", "191803.895000", "191804.895000", "191805.895000", "191806.895000", "191807.895000", "191808.895000", "191809.895000", "191810.895000", "191811.895000", "191812.895000", "191813.895000", "191814.895000", "191815.895000", "191816.895000", "191817.895000", "191818.895000", "191819.895000", "191820.895000", "191821.895000", "191822.895000", "191823.895000", "191824.895000", "191825.895000", "191826.895000", "191827.895000", "191828.895000", "191829.895000", "191830.895000", "191831.895000", "191832.895000", "191833.895000", "191834.895000", "191835.895000", "191836.895000", "191837.895000", "191838.895000", "191839.895000", "191840.895000", "191841.895000", "191842.895000", "191843.895000", "191844.895000", "191845.895000", "191846.895000", "191847.895000", "191848.895000", "191849.895000", "191850.895000", "191851.895000", "191852.895000", "191853.895000", "191854.895000", "191855.895000", "191856.895000", "191857.895000", "191858.895000", "191859.895000", "191900.895000", "191901.895000", "191902.895000", "191903.895000", "191904.895000", "191905.895000", "191906.895000", "191907.895000", "191908.895000", "191909.895000", "191910.895000", "191911.895000", "191912.895000", "191913.895000", "191914.895000", "191915.895000", "191916.895000", "191917.895000", "191918.895000", "191919.895000", "191920.895000", "191921.895000", "191922.895000", "191923.895000", "191924.895000", "191925.895000", "191926.895000", "191927.895000", "191928.895000", "191929.895000", "191930.895000", "191931.895000", "191932.895000", "191933.895000", "191934.895000", "191935.895000", "191936.895000", "191937.895000", "191938.895000", "191939.895000", "191940.895000", "191941.895000", "191942.895000", "191943.895000", "191944.895000", "191945.895000", "191946.895000", "191947.895000", "191948.895000", "191949.895000", "191950.895000", "191951.895000", "191952.895000", "191953.895000", "191954.895000", "191955.895000", "191956.895000", "191957.895000", "191958.895000", "191959.895000", "192000.895000"],
      "ContentTime": ["191237.103000", "191237.106000", "191237.109000", "191237.111000", "191237.114000", "191237.116000", "191237.119000", "191237.121000", "191237.124000", "191237.126000", "191237.128000", "191237.131000", "191237.133000", "191237.136000", "191237.138000", "191237.141000", "191237.153000", "191237.156000", "191237.158000", "191237.161000", "191237.171000", "191237.173000", "191257.077000", "191257.080000", "191257.083000", "191257.085000", "191257.088000", "191257.090000", "191257.093000", "191257.095000", "191257.097000", "191257.100000", "191257.102000", "191257.105000", "191257.107000", "191257.110000", "191257.112000", "191257.115000", "191257.117000", "191257.119000", "191257.122000", "191257.124000", "191317.077000", "191317.080000", "191317.087000", "191317.090000", "191317.092000", "191317.095000", "191317.097000", "191317.100000", "191317.102000", "191317.105000", "191317.107000", "191317.109000", "191317.112000", "191317.114000", "191317.117000", "191317.123000", "191317.126000", "191317.128000", "191317.131000", "191317.133000", "191337.077000", "191337.080000", "191337.083000", "191337.085000", "191337.088000", "191337.091000", "191337.093000", "191337.096000", "191337.098000", "191337.101000", "191337.104000", "191337.106000", "191337.109000", "191337.111000", "191337.114000", "191337.116000", "191337.119000", "191337.121000", "191337.124000", "191337.126000", "191357.077000", "191357.080000", "191357.083000", "191357.085000", "191357.088000", "191357.090000", "191357.093000", "191357.095000", "191357.098000", "191357.100000", "191357.103000", "191357.105000", "191357.108000", "191357.110000", "191357.113000", "191357.115000", "191357.118000", "191357.121000", "191357.123000", "191357.125000", "191417.077000", "191417.079000", "191417.082000", "191417.084000", "191417.087000", "191417.089000", "191417.092000", "191417.094000", "191417.097000", "191417.099000", "191417.102000", "191417.104000", "191417.107000", "191417.109000", "191417.112000", "191417.114000", "191417.117000", "191417.119000", "191417.122000", "191417.124000", "191437.078000", "191437.080000", "191437.083000", "191437.085000", "191437.088000", "191437.091000", "191437.093000", "191437.095000", "191437.098000", "191437.101000", "191437.103000", "191437.106000", "191437.108000", "191437.111000", "191437.113000", "191437.116000", "191437.118000", "191437.121000", "191437.123000", "191437.125000", "191457.078000", "191457.080000", "191457.083000", "191457.085000", "191457.088000", "191457.090000", "191457.093000", "191457.095000", "191457.098000", "191457.100000", "191457.103000", "191457.105000", "191457.108000", "191457.110000", "191457.113000", "191457.115000", "191457.118000", "191457.120000", "191457.123000", "191457.125000", "191517.077000", "191517.080000", "191517.082000", "191517.085000", "191517.087000", "191517.090000", "191517.093000", "191517.095000", "191517.097000", "191517.100000", "191517.102000", "191517.105000", "191517.107000", "191517.110000", "191517.112000", "191517.115000", "191517.117000", "191517.120000", "191517.122000", "191517.125000", "191537.077000", "191537.080000", "191537.083000", "191537.085000", "191537.088000", "191537.090000", "191537.093000", "191537.095000", "191537.098000", "191537.100000", "191537.102000", "191537.105000", "191537.107000", "191537.110000", "191537.127000", "191537.129000", "191537.132000", "191537.134000", "191537.136000", "191537.139000", "191557.077000", "191557.080000", "191557.083000", "191557.085000", "191557.088000", "191557.090000", "191557.093000", "191557.095000", "191557.098000", "191557.100000", "191557.103000", "191557.106000", "191557.108000", "191557.111000", "191557.113000", "191557.116000", "191557.118000", "191557.121000", "191557.123000", "191557.126000", "191617.077000", "191617.080000", "191617.083000", "191617.085000", "191617.087000", "191617.090000", "191617.092000", "191617.095000", "191617.097000", "191617.100000", "191617.103000", "191617.105000", "191617.108000", "191617.110000", "191617.113000", "191617.115000", "191617.118000", "191617.120000", "191617.123000", "191617.125000", "191637.076000", "191637.079000", "191637.082000", "191637.084000", "191637.087000", "191637.089000", "191637.092000", "191637.094000", "191637.097000", "191637.099000", "191637.102000", "191637.104000", "191637.107000", "191637.110000", "191637.112000", "191637.114000", "191637.117000", "191637.120000", "191637.122000", "191637.124000", "191657.077000", "191657.080000", "191657.083000", "191657.085000", "191657.088000", "191657.090000", "191657.093000", "191657.095000", "191657.098000", "191657.100000", "191657.103000", "191657.105000", "191657.108000", "191657.111000", "191657.113000", "191657.115000", "191657.118000", "191657.121000", "191657.123000", "191657.126000", "191717.078000", "191717.080000", "191717.083000", "191717.085000", "191717.088000", "191717.091000", "191717.093000", "191717.096000", "191717.098000", "191717.101000", "191717.103000", "191717.106000", "191717.108000", "191717.111000", "191717.113000", "191717.116000", "191717.118000", "191717.121000", "191717.123000", "191717.126000", "191737.077000", "191737.080000", "191737.083000", "191737.085000", "191737.088000", "191737.090000", "191737.093000", "191737.096000", "191737.098000", "191737.101000", "191737.103000", "191737.106000", "191737.108000", "191737.111000", "191737.113000", "191737.116000", "191737.118000", "191737.121000", "191737.123000", "191737.126000", "191757.078000", "191757.080000", "191757.083000", "191757.085000", "191757.088000", "191757.091000", "191757.093000", "191757.096000", "191757.098000", "191757.101000", "191757.103000", "191757.106000", "191757.108000", "191757.111000", "191757.113000", "191757.116000", "191757.118000", "191757.121000", "191757.123000", "191757.126000", "191817.078000", "191817.080000", "191817.083000", "191817.085000", "191817.088000", "191817.091000", "191817.093000", "191817.096000", "191817.098000", "191817.101000", "191817.103000", "191817.106000", "191817.108000", "191817.111000", "191817.113000", "191817.116000", "191817.118000", "191817.121000", "191817.123000", "191817.126000", "191837.077000", "191837.081000", "191837.083000", "191837.085000", "191837.088000", "191837.091000", "191837.093000", "191837.096000", "191837.098000", "191837.101000", "191837.103000", "191837.106000", "191837.108000", "191837.111000", "191837.113000", "191837.116000", "191837.119000", "191837.121000", "191837.124000", "191837.126000", "191857.076000", "191857.079000", "191857.082000", "191857.084000", "191857.087000", "191857.089000", "191857.092000", "191857.094000", "191857.097000", "191857.100000", "191857.102000", "191857.105000", "191857.107000", "191857.110000", "191857.112000", "191857.115000", "191857.117000", "191857.120000", "191857.122000", "191857.125000", "191917.077000", "191917.080000", "191917.083000", "191917.085000", "191917.088000", "191917.090000", "191917.093000", "191917.095000", "191917.103000", "191917.106000", "191917.108000", "191917.110000", "191917.113000", "191917.115000", "191917.118000", "191917.120000", "191917.123000", "191917.125000", "191917.128000", "191917.131000", "191937.077000", "191937.080000", "191937.083000", "191937.086000", "191937.098000", "191937.102000", "191937.107000", "191937.110000", "191937.113000", "191937.116000", "191937.118000", "191937.121000", "191937.124000", "191937.126000", "191937.129000", "191937.135000", "191937.140000", "191937.143000", "191937.145000", "191937.148000", "191957.078000", "191957.081000", "191957.083000", "191957.086000", "191957.088000", "191957.091000", "191957.093000", "191957.096000", "191957.098000", "191957.101000", "191957.104000", "191957.106000", "191957.109000", "191957.112000", "191957.114000", "191957.117000", "191957.119000", "191957.122000", "191957.124000", "191957.127000", "192002.041000", "192002.045000", "192002.048000", "192002.051000", "192002.054000"],
