{
  "AcquisitionMatrixPE": 106,
  "AcquisitionNumber": 1,
  "AcquisitionTime": "18:44:18.627500",
  "BandwidthPerPixelPhaseEncode": 16.846,
  "BaseResolution": 106,
  "BodyPartExamined": "BRAIN",
  "CoilCombinationMethod": "Sum of Squares",
  "ConsistencyInfo": "N4_VE11C_LATEST_20160120",
  "ConversionSoftware": "dcm2niix",
  "ConversionSoftwareVersion": "v1.0.20220720",
  "DerivedVendorReportedEchoSpacing": 0.000560012,
  "DeviceSerialNumber": "166108",
  "DwellTime": 1.8e-06,
  "EchoTime": 0.0352,
  "EchoTrainLength": 106,
  "EffectiveEchoSpacing": 0.000560012,
  "FlipAngle": 60,
  "HeudiconvVersion": "1.3.0",
  "ImageComments": "Unaliased MB4/PE3/LB",
  "ImageOrientationPatientDICOM": [1, 0, 0, 0, 1, 0],
  "ImageOrientationText": "Tra",
  "ImageType": [
    "ORIGINAL",
    "PRIMARY",
    "M",
    "MB",
    "ND",
    "MOSAIC"
],
  "ImagingFrequency": 123.244,
  "InPlanePhaseEncodingDirectionDICOM": "COL",
  "InstitutionAddress": "Bedford Way 26,London,London,GB,WC1H 0AP",
  "InstitutionName": "University College",
  "InstitutionalDepartmentName": "Department",
  "MRAcquisitionType": "2D",
  "MagneticFieldStrength": 3,
  "Manufacturer": "Siemens",
  "ManufacturersModelName": "Prisma",
  "MatrixCoilMode": "SENSE",
  "Modality": "MR",
  "MultibandAccelerationFactor": 4,
  "NonlinearGradientCorrection": false,
  "PartialFourier": 1,
  "PatientPosition": "HFS",
  "PercentPhaseFOV": 100,
  "PercentSampling": 100,
  "PhaseEncodingDirection": "j-",
  "PhaseEncodingSteps": 106,
  "PhaseResolution": 1,
  "PixelBandwidth": 2620,
  "ProcedureStepDescription": "Egor^MovieProject2",
  "ProtocolName": "task-backtothefuture_run-1",
  "PulseSequenceDetails": "%CustomerSeq%\\cmrr_mbep2d_bold",
  "ReceiveCoilActiveElements": "HEA;HEP",
  "ReceiveCoilName": "Head_32",
  "ReconMatrixPE": 106,
  "RepetitionTime": 1.5,
  "SAR": 0.070372,
  "ScanOptions": "FS\\EXT",
  "ScanningSequence": "EP",
  "SequenceName": "epfid2d1_106",
  "SequenceVariant": "SK\\SS",
  "SeriesDescription": "task-backtothefuture_run-1",
  "SeriesNumber": 3,
  "ShimSetting": [-1582, 643, 7391, 243, -36, 180, 1, 3],
  "SliceThickness": 2,
  "SliceTiming": [0, 1.0675, 0.6575, 0.245, 1.315, 0.905, 0.4925, 0.0825, 1.15, 0.74, 0.3275, 1.3975, 0.985, 0.575, 0.165, 1.2325, 0.8225, 0.41, 0, 1.0675, 0.6575, 0.245, 1.315, 0.905, 0.4925, 0.0825, 1.15, 0.74, 0.3275, 1.3975, 0.985, 0.575, 0.165, 1.2325, 0.8225, 0.41, 0, 1.0675, 0.6575, 0.245, 1.315, 0.905, 0.4925, 0.0825, 1.15, 0.74, 0.3275, 1.3975, 0.985, 0.575, 0.165, 1.2325, 0.8225, 0.41, 0, 1.0675, 0.6575, 0.245, 1.315, 0.905, 0.4925, 0.0825, 1.15, 0.74, 0.3275, 1.3975, 0.985, 0.575, 0.165, 1.2325, 0.8225, 0.41],
  "SoftwareVersions": "syngo MR E11",
  "SpacingBetweenSlices": 2,
  "StationName": "AWP166108",
  "TaskName": "backtothefuture",
  "TotalReadoutTime": 0.0588013,
  "TxRefAmp": 240.531,
  "WipMemBlock": "d5c52667-ac96-4b93-851c-bbec8d72614f||Sequence: R016 ve11c/master r/e634e98; Dec 19 2017 11:00:25 by eja",
  "dcmmeta_affine": [
    [-2.0, 0.0, 0.0, 106.0],
    [0.0, 2.0, 0.0, -84.72289276123047],
    [0.0, 0.0, 2.0, -72.20481872558594],
    [0.0, 0.0, 0.0, 1.0]
],
  "dcmmeta_reorient_transform": [
    [0.0, -1.0, 0.0, 105.0],
    [1.0, 0.0, 0.0, 0.0],
    [0.0, 0.0, 1.0, 0.0],
    [0.0, 0.0, 0.0, 1.0]
],
  "dcmmeta_shape": [106, 106, 72, 1360],
  "dcmmeta_slice_dim": 2,
  "dcmmeta_version": 0.6,
  "global": {
    "const": {
      "AcquisitionMatrix": [106, 0, 0, 106],
      "AngioFlag": "N",
      "BitsAllocated": 16,
      "BitsStored": 16,
      "BodyPartExamined": "BRAIN",
      "CardiacNumberOfImages": 1,
      "Columns": 954,
      "EchoNumbers": 1,
      "EchoTime": 35.2,
      "EchoTrainLength": 106,
      "FlipAngle": 60.0,
      "HighBit": 15,
      "ImageOrientationPatient": [1.0, 0.0, 0.0, 0.0, 1.0, 0.0],
      "ImagePositionPatient": [-954.0, -973.27710914612, -72.204818725586],
      "ImageType": [
        "ORIGINAL",
        "PRIMARY",
        "M",
        "MB",
        "ND",
        "MOSAIC"
],
      "ImagedNucleus": "1H",
      "ImagingFrequency": 123.243696,
      "InPlanePhaseEncodingDirection": "COL",
      "MRAcquisitionType": "2D",
      "MagneticFieldStrength": 3.0,
      "Manufacturer": "SIEMENS",
      "ManufacturerModelName": "Prisma",
      "Modality": "MR",
      "NominalInterval": 0,
      "NumberOfAverages": 1.0,
      "NumberOfPhaseEncodingSteps": 106,
      "PercentPhaseFieldOfView": 100.0,
      "PercentSampling": 100.0,
      "PerformedProcedureStepStartTime": "180707.627000",
      "PhotometricInterpretation": "MONOCHROME2",
      "PixelBandwidth": 2620.0,
      "PixelRepresentation": 0,
      "PixelSpacing": [2.0, 2.0],
      "ProtocolName": "task-backtothefuture_run-1",
      "RepetitionTime": 1500.0,
      "Rows": 954,
      "SAR": 0.07037200793907,
      "SamplesPerPixel": 1,
      "ScanOptions": [
        "FS",
        "EXT"
],
      "ScanningSequence": "EP",
      "SequenceName": "epfid2d1_106",
      "SequenceVariant": [
        "SK",
        "SS"
],
      "SeriesDescription": "task-backtothefuture_run-1",
      "SeriesNumber": 3,
      "SeriesTime": "184500.788000",
      "SliceLocation": -72.204818725586,
      "SliceThickness": 2.0,
      "SmallestImagePixelValue": 0,
      "SoftwareVersions": "syngo MR E11",
      "SpacingBetweenSlices": 2.0,
      "SpecificCharacterSet": "ISO_IR 100",
      "StudyID": "1",
      "StudyTime": "180707.568000",
      "TransmitCoilName": "Body",
      "VariableFlipAngleFlag": "N",
      "WindowCenterWidthExplanation": "Algo1",
      "dBdt": 0.0},
    "slices": {}
  },
  "time": {
    "samples": {
      "AcquisitionNumber": [1, 2, 3, 4, 5, 6, 7, 8, 9, 10, 11, 12, 13, 14, 15, 16, 17, 18, 19, 20, 21, 22, 23, 24, 25, 26, 27, 28, 29, 30, 31, 32, 33, 34, 35, 36, 37, 38, 39, 40, 41, 42, 43, 44, 45, 46, 47, 48, 49, 50, 51, 52, 53, 54, 55, 56, 57, 58, 59, 60, 61, 62, 63, 64, 65, 66, 67, 68, 69, 70, 71, 72, 73, 74, 75, 76, 77, 78, 79, 80, 81, 82, 83, 84, 85, 86, 87, 88, 89, 90, 91, 92, 93, 94, 95, 96, 97, 98, 99, 100, 101, 102, 103, 104, 105, 106, 107, 108, 109, 110, 111, 112, 113, 114, 115, 116, 117, 118, 119, 120, 121, 122, 123, 124, 125, 126, 127, 128, 129, 130, 131, 132, 133, 134, 135, 136, 137, 138, 139, 140, 141, 142, 143, 144, 145, 146, 147, 148, 149, 150, 151, 152, 153, 154, 155, 156, 157, 158, 159, 160, 161, 162, 163, 164, 165, 166, 167, 168, 169, 170, 171, 172, 173, 174, 175, 176, 177, 178, 179, 180, 181, 182, 183, 184, 185, 186, 187, 188, 189, 190, 191, 192, 193, 194, 195, 196, 197, 198, 199, 200, 201, 202, 203, 204, 205, 206, 207, 208, 209, 210, 211, 212, 213, 214, 215, 216, 217, 218, 219, 220, 221, 222, 223, 224, 225, 226, 227, 228, 229, 230, 231, 232, 233, 234, 235, 236, 237, 238, 239, 240, 241, 242, 243, 244, 245, 246, 247, 248, 249, 250, 251, 252, 253, 254, 255, 256, 257, 258, 259, 260, 261, 262, 263, 264, 265, 266, 267, 268, 269, 270, 271, 272, 273, 274, 275, 276, 277, 278, 279, 280, 281, 282, 283, 284, 285, 286, 287, 288, 289, 290, 291, 292, 293, 294, 295, 296, 297, 298, 299, 300, 301, 302, 303, 304, 305, 306, 307, 308, 309, 310, 311, 312, 313, 314, 315, 316, 317, 318, 319, 320, 321, 322, 323, 324, 325, 326, 327, 328, 329, 330, 331, 332, 333, 334, 335, 336, 337, 338, 339, 340, 341, 342, 343, 344, 345, 346, 347, 348, 349, 350, 351, 352, 353, 354, 355, 356, 357, 358, 359, 360, 361, 362, 363, 364, 365, 366, 367, 368, 369, 370, 371, 372, 373, 374, 375, 376, 377, 378, 379, 380, 381, 382, 383, 384, 385, 386, 387, 388, 389, 390, 391, 392, 393, 394, 395, 396, 397, 398, 399, 400, 401, 402, 403, 404, 405, 406, 407, 408, 409, 410, 411, 412, 413, 414, 415, 416, 417, 418, 419, 420, 421, 422, 423, 424, 425, 426, 427, 428, 429, 430, 431, 432, 433, 434, 435, 436, 437, 438, 439, 440, 441, 442, 443, 444, 445, 446, 447, 448, 449, 450, 451, 452, 453, 454, 455, 456, 457, 458, 459, 460, 461, 462, 463, 464, 465, 466, 467, 468, 469, 470, 471, 472, 473, 474, 475, 476, 477, 478, 479, 480, 481, 482, 483, 484, 485, 486, 487, 488, 489, 490, 491, 492, 493, 494, 495, 496, 497, 498, 499, 500, 501, 502, 503, 504, 505, 506, 507, 508, 509, 510, 511, 512, 513, 514, 515, 516, 517, 518, 519, 520, 521, 522, 523, 524, 525, 526, 527, 528, 529, 530, 531, 532, 533, 534, 535, 536, 537, 538, 539, 540, 541, 542, 543, 544, 545, 546, 547, 548, 549, 550, 551, 552, 553, 554, 555, 556, 557, 558, 559, 560, 561, 562, 563, 564, 565, 566, 567, 568, 569, 570, 571, 572, 573, 574, 575, 576, 577, 578, 579, 580, 581, 582, 583, 584, 585, 586, 587, 588, 589, 590, 591, 592, 593, 594, 595, 596, 597, 598, 599, 600, 601, 602, 603, 604, 605, 606, 607, 608, 609, 610, 611, 612, 613, 614, 615, 616, 617, 618, 619, 620, 621, 622, 623, 624, 625, 626, 627, 628, 629, 630, 631, 632, 633, 634, 635, 636, 637, 638, 639, 640, 641, 642, 643, 644, 645, 646, 647, 648, 649, 650, 651, 652, 653, 654, 655, 656, 657, 658, 659, 660, 661, 662, 663, 664, 665, 666, 667, 668, 669, 670, 671, 672, 673, 674, 675, 676, 677, 678, 679, 680, 681, 682, 683, 684, 685, 686, 687, 688, 689, 690, 691, 692, 693, 694, 695, 696, 697, 698, 699, 700, 701, 702, 703, 704, 705, 706, 707, 708, 709, 710, 711, 712, 713, 714, 715, 716, 717, 718, 719, 720, 721, 722, 723, 724, 725, 726, 727, 728, 729, 730, 731, 732, 733, 734, 735, 736, 737, 738, 739, 740, 741, 742, 743, 744, 745, 746, 747, 748, 749, 750, 751, 752, 753, 754, 755, 756, 757, 758, 759, 760, 761, 762, 763, 764, 765, 766, 767, 768, 769, 770, 771, 772, 773, 774, 775, 776, 777, 778, 779, 780, 781, 782, 783, 784, 785, 786, 787, 788, 789, 790, 791, 792, 793, 794, 795, 796, 797, 798, 799, 800, 801, 802, 803, 804, 805, 806, 807, 808, 809, 810, 811, 812, 813, 814, 815, 816, 817, 818, 819, 820, 821, 822, 823, 824, 825, 826, 827, 828, 829, 830, 831, 832, 833, 834, 835, 836, 837, 838, 839, 840, 841, 842, 843, 844, 845, 846, 847, 848, 849, 850, 851, 852, 853, 854, 855, 856, 857, 858, 859, 860, 861, 862, 863, 864, 865, 866, 867, 868, 869, 870, 871, 872, 873, 874, 875, 876, 877, 878, 879, 880, 881, 882, 883, 884, 885, 886, 887, 888, 889, 890, 891, 892, 893, 894, 895, 896, 897, 898, 899, 900, 901, 902, 903, 904, 905, 906, 907, 908, 909, 910, 911, 912, 913, 914, 915, 916, 917, 918, 919, 920, 921, 922, 923, 924, 925, 926, 927, 928, 929, 930, 931, 932, 933, 934, 935, 936, 937, 938, 939, 940, 941, 942, 943, 944, 945, 946, 947, 948, 949, 950, 951, 952, 953, 954, 955, 956, 957, 958, 959, 960, 961, 962, 963, 964, 965, 966, 967, 968, 969, 970, 971, 972, 973, 974, 975, 976, 977, 978, 979, 980, 981, 982, 983, 984, 985, 986, 987, 988, 989, 990, 991, 992, 993, 994, 995, 996, 997, 998, 999, 1000, 1001, 1002, 1003, 1004, 1005, 1006, 1007, 1008, 1009, 1010, 1011, 1012, 1013, 1014, 1015, 1016, 1017, 1018, 1019, 1020, 1021, 1022, 1023, 1024, 1025, 1026, 1027, 1028, 1029, 1030, 1031, 1032, 1033, 1034, 1035, 1036, 1037, 1038, 1039, 1040, 1041, 1042, 1043, 1044, 1045, 1046, 1047, 1048, 1049, 1050, 1051, 1052, 1053, 1054, 1055, 1056, 1057, 1058, 1059, 1060, 1061, 1062, 1063, 1064, 1065, 1066, 1067, 1068, 1069, 1070, 1071, 1072, 1073, 1074, 1075, 1076, 1077, 1078, 1079, 1080, 1081, 1082, 1083, 1084, 1085, 1086, 1087, 1088, 1089, 1090, 1091, 1092, 1093, 1094, 1095, 1096, 1097, 1098, 1099, 1100, 1101, 1102, 1103, 1104, 1105, 1106, 1107, 1108, 1109, 1110, 1111, 1112, 1113, 1114, 1115, 1116, 1117, 1118, 1119, 1120, 1121, 1122, 1123, 1124, 1125, 1126, 1127, 1128, 1129, 1130, 1131, 1132, 1133, 1134, 1135, 1136, 1137, 1138, 1139, 1140, 1141, 1142, 1143, 1144, 1145, 1146, 1147, 1148, 1149, 1150, 1151, 1152, 1153, 1154, 1155, 1156, 1157, 1158, 1159, 1160, 1161, 1162, 1163, 1164, 1165, 1166, 1167, 1168, 1169, 1170, 1171, 1172, 1173, 1174, 1175, 1176, 1177, 1178, 1179, 1180, 1181, 1182, 1183, 1184, 1185, 1186, 1187, 1188, 1189, 1190, 1191, 1192, 1193, 1194, 1195, 1196, 1197, 1198, 1199, 1200, 1201, 1202, 1203, 1204, 1205, 1206, 1207, 1208, 1209, 1210, 1211, 1212, 1213, 1214, 1215, 1216, 1217, 1218, 1219, 1220, 1221, 1222, 1223, 1224, 1225, 1226, 1227, 1228, 1229, 1230, 1231, 1232, 1233, 1234, 1235, 1236, 1237, 1238, 1239, 1240, 1241, 1242, 1243, 1244, 1245, 1246, 1247, 1248, 1249, 1250, 1251, 1252, 1253, 1254, 1255, 1256, 1257, 1258, 1259, 1260, 1261, 1262, 1263, 1264, 1265, 1266, 1267, 1268, 1269, 1270, 1271, 1272, 1273, 1274, 1275, 1276, 1277, 1278, 1279, 1280, 1281, 1282, 1283, 1284, 1285, 1286, 1287, 1288, 1289, 1290, 1291, 1292, 1293, 1294, 1295, 1296, 1297, 1298, 1299, 1300, 1301, 1302, 1303, 1304, 1305, 1306, 1307, 1308, 1309, 1310, 1311, 1312, 1313, 1314, 1315, 1316, 1317, 1318, 1319, 1320, 1321, 1322, 1323, 1324, 1325, 1326, 1327, 1328, 1329, 1330, 1331, 1332, 1333, 1334, 1335, 1336, 1337, 1338, 1339, 1340, 1341, 1342, 1343, 1344, 1345, 1346, 1347, 1348, 1349, 1350, 1351, 1352, 1353, 1354, 1355, 1356, 1357, 1358, 1359, 1360],
      "AcquisitionTime": ["184418.627500", "184420.127500", "184421.627500", "184423.127500", "184424.627500", "184426.127500", "184427.627500", "184429.127500", "184430.627500", "184432.127500", "184433.627500", "184435.127500", "184436.627500", "184438.127500", "184439.627500", "184441.127500", "184442.627500", "184444.127500", "184445.627500", "184447.127500", "184448.627500", "184450.127500", "184451.627500", "184453.127500", "184454.627500", "184456.127500", "184457.627500", "184459.127500", "184500.627500", "184502.127500", "184503.627500", "184505.127500", "184506.627500", "184508.127500", "184509.627500", "184511.127500", "184512.627500", "184514.127500", "184515.627500", "184517.127500", "184518.627500", "184520.127500", "184521.627500", "184523.127500", "184524.627500", "184526.127500", "184527.627500", "184529.127500", "184530.627500", "184532.127500", "184533.627500", "184535.127500", "184536.627500", "184538.127500", "184539.627500", "184541.127500", "184542.627500", "184544.127500", "184545.627500", "184547.127500", "184548.627500", "184550.127500", "184551.627500", "184553.127500", "184554.627500", "184556.127500", "184557.627500", "184559.127500", "184600.627500", "184602.127500", "184603.627500", "184605.127500", "184606.627500", "184608.127500", "184609.627500", "184611.127500", "184612.627500", "184614.127500", "184615.627500", "184617.127500", "184618.627500", "184620.127500", "184621.627500", "184623.127500", "184624.627500", "184626.127500", "184627.627500", "184629.127500", "184630.627500", "184632.127500", "184633.627500", "184635.127500", "184636.627500", "184638.127500", "184639.627500", "184641.127500", "184642.627500", "184644.127500", "184645.627500", "184647.127500", "184648.627500", "184650.127500", "184651.627500", "184653.127500", "184654.627500", "184656.127500", "184657.627500", "184659.127500", "184700.627500", "184702.127500", "184703.627500", "184705.127500", "184706.627500", "184708.127500", "184709.627500", "184711.127500", "184712.627500", "184714.127500", "184715.627500", "184717.127500", "184718.627500", "184720.127500", "184721.627500", "184723.127500", "184724.627500", "184726.127500", "184727.627500", "184729.127500", "184730.627500", "184732.127500", "184733.627500", "184735.127500", "184736.627500", "184738.127500", "184739.627500", "184741.127500", "184742.627500", "184744.127500", "184745.627500", "184747.127500", "184748.627500", "184750.127500", "184751.627500", "184753.127500", "184754.627500", "184756.127500", "184757.627500", "184759.127500", "184800.627500", "184802.127500", "184803.627500", "184805.127500", "184806.627500", "184808.127500", "184809.627500", "184811.127500", "184812.627500", "184814.127500", "184815.627500", "184817.127500", "184818.627500", "184820.127500", "184821.627500", "184823.127500", "184824.627500", "184826.127500", "184827.627500", "184829.127500", "184830.627500", "184832.127500", "184833.627500", "184835.127500", "184836.627500", "184838.127500", "184839.627500", "184841.127500", "184842.627500", "184844.127500", "184845.627500", "184847.127500", "184848.627500", "184850.127500", "184851.627500", "184853.127500", "184854.627500", "184856.127500", "184857.627500", "184859.127500", "184900.627500", "184902.127500", "184903.627500", "184905.127500", "184906.627500", "184908.127500", "184909.627500", "184911.127500", "184912.627500", "184914.127500", "184915.627500", "184917.127500", "184918.627500", "184920.127500", "184921.627500", "184923.127500", "184924.627500", "184926.127500", "184927.627500", "184929.127500", "184930.627500", "184932.127500", "184933.627500", "184935.127500", "184936.627500", "184938.127500", "184939.627500", "184941.127500", "184942.627500", "184944.127500", "184945.627500", "184947.127500", "184948.627500", "184950.127500", "184951.627500", "184953.127500", "184954.627500", "184956.127500", "184957.627500", "184959.127500", "185000.627500", "185002.127500", "185003.627500", "185005.127500", "185006.627500", "185008.127500", "185009.627500", "185011.127500", "185012.627500", "185014.127500", "185015.627500", "185017.127500", "185018.627500", "185020.127500", "185021.627500", "185023.127500", "185024.627500", "185026.127500", "185027.627500", "185029.127500", "185030.627500", "185032.127500", "185033.627500", "185035.127500", "185036.627500", "185038.127500", "185039.627500", "185041.127500", "185042.627500", "185044.127500", "185045.627500", "185047.127500", "185048.627500", "185050.127500", "185051.627500", "185053.127500", "185054.627500", "185056.127500", "185057.627500", "185059.127500", "185100.627500", "185102.127500", "185103.627500", "185105.127500", "185106.627500", "185108.127500", "185109.627500", "185111.127500", "185112.627500", "185114.127500", "185115.627500", "185117.127500", "185118.627500", "185120.127500", "185121.627500", "185123.127500", "185124.627500", "185126.127500", "185127.627500", "185129.127500", "185130.627500", "185132.127500", "185133.627500", "185135.127500", "185136.627500", "185138.127500", "185139.627500", "185141.127500", "185142.627500", "185144.127500", "185145.627500", "185147.127500", "185148.627500", "185150.127500", "185151.627500", "185153.127500", "185154.627500", "185156.127500", "185157.627500", "185159.127500", "185200.627500", "185202.127500", "185203.627500", "185205.127500", "185206.627500", "185208.127500", "185209.627500", "185211.127500", "185212.627500", "185214.127500", "185215.627500", "185217.127500", "185218.627500", "185220.127500", "185221.627500", "185223.127500", "185224.627500", "185226.127500", "185227.627500", "185229.127500", "185230.627500", "185232.127500", "185233.627500", "185235.127500", "185236.627500", "185238.127500", "185239.627500", "185241.127500", "185242.627500", "185244.127500", "185245.627500", "185247.127500", "185248.627500", "185250.127500", "185251.627500", "185253.127500", "185254.627500", "185256.127500", "185257.627500", "185259.127500", "185300.627500", "185302.127500", "185303.627500", "185305.127500", "185306.627500", "185308.127500", "185309.627500", "185311.127500", "185312.627500", "185314.127500", "185315.627500", "185317.127500", "185318.627500", "185320.127500", "185321.627500", "185323.127500", "185324.627500", "185326.127500", "185327.627500", "185329.127500", "185330.627500", "185332.127500", "185333.627500", "185335.127500", "185336.627500", "185338.127500", "185339.627500", "185341.127500", "185342.627500", "185344.127500", "185345.627500", "185347.127500", "185348.627500", "185350.127500", "185351.627500", "185353.127500", "185354.627500", "185356.127500", "185357.627500", "185359.127500", "185400.627500", "185402.127500", "185403.627500", "185405.127500", "185406.627500", "185408.127500", "185409.627500", "185411.127500", "185412.627500", "185414.127500", "185415.627500", "185417.127500", "185418.627500", "185420.127500", "185421.627500", "185423.127500", "185424.627500", "185426.127500", "185427.627500", "185429.127500", "185430.627500", "185432.127500", "185433.627500", "185435.127500", "185436.627500", "185438.127500", "185439.627500", "185441.127500", "185442.627500", "185444.127500", "185445.627500", "185447.127500", "185448.627500", "185450.127500", "185451.627500", "185453.127500", "185454.627500", "185456.127500", "185457.627500", "185459.127500", "185500.627500", "185502.127500", "185503.627500", "185505.127500", "185506.627500", "185508.127500", "185509.627500", "185511.127500", "185512.627500", "185514.127500", "185515.627500", "185517.127500", "185518.627500", "185520.127500", "185521.627500", "185523.127500", "185524.627500", "185526.127500", "185527.627500", "185529.127500", "185530.627500", "185532.127500", "185533.627500", "185535.127500", "185536.627500", "185538.127500", "185539.627500", "185541.127500", "185542.627500", "185544.127500", "185545.627500", "185547.127500", "185548.627500", "185550.127500", "185551.627500", "185553.127500", "185554.627500", "185556.127500", "185557.627500", "185559.127500", "185600.627500", "185602.127500", "185603.627500", "185605.127500", "185606.627500", "185608.127500", "185609.627500", "185611.127500", "185612.627500", "185614.127500", "185615.627500", "185617.127500", "185618.627500", "185620.127500", "185621.627500", "185623.127500", "185624.627500", "185626.127500", "185627.627500", "185629.127500", "185630.627500", "185632.127500", "185633.627500", "185635.127500", "185636.627500", "185638.127500", "185639.627500", "185641.127500", "185642.627500", "185644.127500", "185645.627500", "185647.127500", "185648.627500", "185650.127500", "185651.627500", "185653.127500", "185654.627500", "185656.127500", "185657.627500", "185659.127500", "185700.627500", "185702.127500", "185703.627500", "185705.127500", "185706.627500", "185708.127500", "185709.627500", "185711.127500", "185712.627500", "185714.127500", "185715.627500", "185717.127500", "185718.627500", "185720.127500", "185721.627500", "185723.127500", "185724.627500", "185726.127500", "185727.627500", "185729.127500", "185730.627500", "185732.127500", "185733.627500", "185735.127500", "185736.627500", "185738.127500", "185739.627500", "185741.127500", "185742.627500", "185744.127500", "185745.627500", "185747.127500", "185748.627500", "185750.127500", "185751.627500", "185753.127500", "185754.627500", "185756.127500", "185757.627500", "185759.127500", "185800.627500", "185802.127500", "185803.627500", "185805.127500", "185806.627500", "185808.127500", "185809.627500", "185811.127500", "185812.627500", "185814.127500", "185815.627500", "185817.127500", "185818.627500", "185820.127500", "185821.627500", "185823.127500", "185824.627500", "185826.127500", "185827.627500", "185829.127500", "185830.627500", "185832.127500", "185833.627500", "185835.127500", "185836.627500", "185838.127500", "185839.627500", "185841.127500", "185842.627500", "185844.127500", "185845.627500", "185847.127500", "185848.627500", "185850.127500", "185851.627500", "185853.127500", "185854.627500", "185856.127500", "185857.627500", "185859.127500", "185900.627500", "185902.127500", "185903.627500", "185905.127500", "185906.627500", "185908.127500", "185909.627500", "185911.127500", "185912.627500", "185914.127500", "185915.627500", "185917.127500", "185918.627500", "185920.127500", "185921.627500", "185923.127500", "185924.627500", "185926.127500", "185927.627500", "185929.127500", "185930.627500", "185932.127500", "185933.627500", "185935.127500", "185936.627500", "185938.127500", "185939.627500", "185941.127500", "185942.627500", "185944.127500", "185945.627500", "185947.127500", "185948.627500", "185950.127500", "185951.627500", "185953.127500", "185954.627500", "185956.127500", "185957.627500", "185959.127500", "190000.627500", "190002.127500", "190003.627500", "190005.127500", "190006.627500", "190008.127500", "190009.627500", "190011.127500", "190012.627500", "190014.127500", "190015.627500", "190017.127500", "190018.627500", "190020.127500", "190021.627500", "190023.127500", "190024.627500", "190026.127500", "190027.627500", "190029.127500", "190030.627500", "190032.127500", "190033.627500", "190035.127500", "190036.627500", "190038.127500", "190039.627500", "190041.127500", "190042.627500", "190044.127500", "190045.627500", "190047.127500", "190048.627500", "190050.127500", "190051.627500", "190053.127500", "190054.627500", "190056.127500", "190057.627500", "190059.127500", "190100.627500", "190102.127500", "190103.627500", "190105.127500", "190106.627500", "190108.127500", "190109.627500", "190111.127500", "190112.627500", "190114.127500", "190115.627500", "190117.127500", "190118.627500", "190120.127500", "190121.627500", "190123.127500", "190124.627500", "190126.127500", "190127.627500", "190129.127500", "190130.627500", "190132.127500", "190133.627500", "190135.127500", "190136.627500", "190138.127500", "190139.627500", "190141.127500", "190142.627500", "190144.127500", "190145.627500", "190147.127500", "190148.627500", "190150.127500", "190151.627500", "190153.127500", "190154.627500", "190156.127500", "190157.627500", "190159.127500", "190200.627500", "190202.127500", "190203.627500", "190205.127500", "190206.627500", "190208.127500", "190209.627500", "190211.127500", "190212.627500", "190214.127500", "190215.627500", "190217.127500", "190218.627500", "190220.127500", "190221.627500", "190223.127500", "190224.627500", "190226.127500", "190227.627500", "190229.127500", "190230.627500", "190232.127500", "190233.627500", "190235.127500", "190236.627500", "190238.127500", "190239.627500", "190241.127500", "190242.627500", "190244.127500", "190245.627500", "190247.127500", "190248.627500", "190250.127500", "190251.627500", "190253.127500", "190254.627500", "190256.127500", "190257.627500", "190259.127500", "190300.627500", "190302.127500", "190303.627500", "190305.127500", "190306.627500", "190308.127500", "190309.627500", "190311.127500", "190312.627500", "190314.127500", "190315.627500", "190317.127500", "190318.627500", "190320.127500", "190321.627500", "190323.127500", "190324.627500", "190326.127500", "190327.627500", "190329.127500", "190330.627500", "190332.127500", "190333.627500", "190335.127500", "190336.627500", "190338.127500", "190339.627500", "190341.127500", "190342.627500", "190344.127500", "190345.627500", "190347.127500", "190348.627500", "190350.127500", "190351.627500", "190353.127500", "190354.627500", "190356.127500", "190357.627500", "190359.127500", "190400.627500", "190402.127500", "190403.627500", "190405.127500", "190406.627500", "190408.127500", "190409.627500", "190411.127500", "190412.627500", "190414.127500", "190415.627500", "190417.127500", "190418.627500", "190420.127500", "190421.627500", "190423.127500", "190424.627500", "190426.127500", "190427.627500", "190429.127500", "190430.627500", "190432.127500", "190433.627500", "190435.127500", "190436.627500", "190438.127500", "190439.627500", "190441.127500", "190442.627500", "190444.127500", "190445.627500", "190447.127500", "190448.627500", "190450.127500", "190451.627500", "190453.127500", "190454.627500", "190456.127500", "190457.627500", "190459.127500", "190500.627500", "190502.127500", "190503.627500", "190505.127500", "190506.627500", "190508.127500", "190509.627500", "190511.127500", "190512.627500", "190514.127500", "190515.627500", "190517.127500", "190518.627500", "190520.127500", "190521.627500", "190523.127500", "190524.627500", "190526.127500", "190527.627500", "190529.127500", "190530.627500", "190532.127500", "190533.627500", "190535.127500", "190536.627500", "190538.127500", "190539.627500", "190541.127500", "190542.627500", "190544.127500", "190545.627500", "190547.127500", "190548.627500", "190550.127500", "190551.627500", "190553.127500", "190554.627500", "190556.127500", "190557.627500", "190559.127500", "190600.627500", "190602.127500", "190603.627500", "190605.127500", "190606.627500", "190608.127500", "190609.627500", "190611.127500", "190612.627500", "190614.127500", "190615.627500", "190617.127500", "190618.627500", "190620.127500", "190621.627500", "190623.127500", "190624.627500", "190626.127500", "190627.627500", "190629.127500", "190630.627500", "190632.127500", "190633.627500", "190635.127500", "190636.627500", "190638.127500", "190639.627500", "190641.127500", "190642.627500", "190644.127500", "190645.627500", "190647.127500", "190648.627500", "190650.127500", "190651.627500", "190653.127500", "190654.627500", "190656.127500", "190657.627500", "190659.127500", "190700.627500", "190702.127500", "190703.627500", "190705.127500", "190706.627500", "190708.127500", "190709.627500", "190711.127500", "190712.627500", "190714.127500", "190715.627500", "190717.127500", "190718.627500", "190720.127500", "190721.627500", "190723.127500", "190724.627500", "190726.127500", "190727.627500", "190729.127500", "190730.627500", "190732.127500", "190733.627500", "190735.127500", "190736.627500", "190738.127500", "190739.627500", "190741.127500", "190742.627500", "190744.127500", "190745.627500", "190747.127500", "190748.627500", "190750.127500", "190751.627500", "190753.127500", "190754.627500", "190756.127500", "190757.627500", "190759.127500", "190800.627500", "190802.127500", "190803.627500", "190805.127500", "190806.627500", "190808.127500", "190809.627500", "190811.127500", "190812.627500", "190814.127500", "190815.627500", "190817.127500", "190818.627500", "190820.127500", "190821.627500", "190823.127500", "190824.627500", "190826.127500", "190827.627500", "190829.127500", "190830.627500", "190832.127500", "190833.627500", "190835.127500", "190836.627500", "190838.127500", "190839.627500", "190841.127500", "190842.627500", "190844.127500", "190845.627500", "190847.127500", "190848.627500", "190850.127500", "190851.627500", "190853.127500", "190854.627500", "190856.127500", "190857.627500", "190859.127500", "190900.627500", "190902.127500", "190903.627500", "190905.127500", "190906.627500", "190908.127500", "190909.627500", "190911.127500", "190912.627500", "190914.127500", "190915.627500", "190917.127500", "190918.627500", "190920.127500", "190921.627500", "190923.127500", "190924.627500", "190926.127500", "190927.627500", "190929.127500", "190930.627500", "190932.127500", "190933.627500", "190935.127500", "190936.627500", "190938.127500", "190939.627500", "190941.127500", "190942.627500", "190944.127500", "190945