{
  "AcquisitionMatrixPE": 106,
  "AcquisitionNumber": 1,
  "AcquisitionTime": "11:50:1.020000",
  "BandwidthPerPixelPhaseEncode": 16.846,
  "BaseResolution": 106,
  "BodyPartExamined": "BRAIN",
  "CoilCombinationMethod": "Sum of Squares",
  "ConsistencyInfo": "N4_VE11C_LATEST_20160120",
  "ConversionSoftware": "dcm2niix",
  "ConversionSoftwareVersion": "v1.0.20220720",
  "DerivedVendorReportedEchoSpacing": 0.000560012,
  "DeviceSerialNumber": "166108",
  "DwellTime": 1.8e-06,
  "EchoTime": 0.0352,
  "EchoTrainLength": 106,
  "EffectiveEchoSpacing": 0.000560012,
  "FlipAngle": 60,
  "HeudiconvVersion": "1.3.0",
  "ImageComments": "Unaliased MB4/PE3/LB",
  "ImageOrientationPatientDICOM": [1, 0, 0, 0, 1, 0],
  "ImageOrientationText": "Tra",
  "ImageType": [
    "ORIGINAL",
    "PRIMARY",
    "M",
    "MB",
    "ND",
    "MOSAIC"
],
  "ImagingFrequency": 123.244,
  "InPlanePhaseEncodingDirectionDICOM": "COL",
  "InstitutionAddress": "Bedford Way 26,London,London,GB,WC1H 0AP",
  "InstitutionName": "University College",
  "InstitutionalDepartmentName": "Department",
  "MRAcquisitionType": "2D",
  "MagneticFieldStrength": 3,
  "Manufacturer": "Siemens",
  "ManufacturersModelName": "Prisma",
  "MatrixCoilMode": "SENSE",
  "Modality": "MR",
  "MultibandAccelerationFactor": 4,
  "NonlinearGradientCorrection": false,
  "PartialFourier": 1,
  "PatientPosition": "HFS",
  "PercentPhaseFOV": 100,
  "PercentSampling": 100,
  "PhaseEncodingDirection": "j-",
  "PhaseEncodingSteps": 106,
  "PhaseResolution": 1,
  "PixelBandwidth": 2620,
  "ProcedureStepDescription": "Egor^MovieProject2",
  "ProtocolName": "task-backtothefuture_run-3",
  "PulseSequenceDetails": "%CustomerSeq%\\cmrr_mbep2d_bold",
  "ReceiveCoilActiveElements": "HEA;HEP",
  "ReceiveCoilName": "Head_32",
  "ReconMatrixPE": 106,
  "RepetitionTime": 1.5,
  "SAR": 0.0900226,
  "ScanOptions": "FS\\EXT",
  "ScanningSequence": "EP",
  "SequenceName": "epfid2d1_106",
  "SequenceVariant": "SK\\SS",
  "SeriesDescription": "task-backtothefuture_run-3",
  "SeriesNumber": 11,
  "ShimSetting": [-1515, 617, 7347, 15, -58, -3, 64, -71],
  "SliceThickness": 2,
  "SliceTiming": [0, 1.0675, 0.6575, 0.2475, 1.315, 0.905, 0.4925, 0.0825, 1.15, 0.74, 0.3275, 1.3975, 0.9875, 0.575, 0.165, 1.2325, 0.8225, 0.41, 0, 1.0675, 0.6575, 0.2475, 1.315, 0.905, 0.4925, 0.0825, 1.15, 0.74, 0.3275, 1.3975, 0.9875, 0.575, 0.165, 1.2325, 0.8225, 0.41, 0, 1.0675, 0.6575, 0.2475, 1.315, 0.905, 0.4925, 0.0825, 1.15, 0.74, 0.3275, 1.3975, 0.9875, 0.575, 0.165, 1.2325, 0.8225, 0.41, 0, 1.0675, 0.6575, 0.2475, 1.315, 0.905, 0.4925, 0.0825, 1.15, 0.74, 0.3275, 1.3975, 0.9875, 0.575, 0.165, 1.2325, 0.8225, 0.41],
  "SoftwareVersions": "syngo MR E11",
  "SpacingBetweenSlices": 2,
  "StationName": "AWP166108",
  "TaskName": "backtothefuture",
  "TotalReadoutTime": 0.0588013,
  "TxRefAmp": 245.129,
  "WipMemBlock": "5ed7423b-5de5-41f2-9ff6-f6353e7330ed||Sequence: R016 ve11c/master r/e634e98; Dec 19 2017 11:00:25 by eja",
  "dcmmeta_affine": [
    [-2.0, 0.0, 0.0, 106.0],
    [0.0, 2.0, 0.0, -88.93975830078125],
    [0.0, 0.0, 2.0, -56.54216766357422],
    [0.0, 0.0, 0.0, 1.0]
],
  "dcmmeta_reorient_transform": [
    [0.0, -1.0, 0.0, 105.0],
    [1.0, 0.0, 0.0, 0.0],
    [0.0, 0.0, 1.0, 0.0],
    [0.0, 0.0, 0.0, 1.0]
],
  "dcmmeta_shape": [106, 106, 72, 1608],
  "dcmmeta_slice_dim": 2,
  "dcmmeta_version": 0.6,
  "global": {
    "const": {
      "AcquisitionMatrix": [106, 0, 0, 106],
      "AngioFlag": "N",
      "BitsAllocated": 16,
      "BitsStored": 16,
      "BodyPartExamined": "BRAIN",
      "CardiacNumberOfImages": 1,
      "Columns": 954,
      "EchoNumbers": 1,
      "EchoTime": 35.2,
      "EchoTrainLength": 106,
      "FlipAngle": 60.0,
      "HighBit": 15,
      "ImageOrientationPatient": [1.0, 0.0, 0.0, 0.0, 1.0, 0.0],
      "ImagePositionPatient": [-954.0, -969.06024074554, -56.542167663574],
      "ImageType": [
        "ORIGINAL",
        "PRIMARY",
        "M",
        "MB",
        "ND",
        "MOSAIC"
],
      "ImagedNucleus": "1H",
      "ImagingFrequency": 123.243673,
      "InPlanePhaseEncodingDirection": "COL",
      "MRAcquisitionType": "2D",
      "MagneticFieldStrength": 3.0,
      "Manufacturer": "SIEMENS",
      "ManufacturerModelName": "Prisma",
      "Modality": "MR",
      "NominalInterval": 0,
      "NumberOfAverages": 1.0,
      "NumberOfPhaseEncodingSteps": 106,
      "PercentPhaseFieldOfView": 100.0,
      "PercentSampling": 100.0,
      "PerformedProcedureStepStartTime": "100503.565000",
      "PhotometricInterpretation": "MONOCHROME2",
      "PixelBandwidth": 2620.0,
      "PixelRepresentation": 0,
      "PixelSpacing": [2.0, 2.0],
      "ProtocolName": "task-backtothefuture_run-3",
      "RepetitionTime": 1500.0,
      "Rows": 954,
      "SAR": 0.09002256493647,
      "SamplesPerPixel": 1,
      "ScanOptions": [
        "FS",
        "EXT"
],
      "ScanningSequence": "EP",
      "SequenceName": "epfid2d1_106",
      "SequenceVariant": [
        "SK",
        "SS"
],
      "SeriesDescription": "task-backtothefuture_run-3",
      "SeriesNumber": 11,
      "SeriesTime": "115051.586000",
      "SliceLocation": -56.542167663574,
      "SliceThickness": 2.0,
      "SmallestImagePixelValue": 0,
      "SoftwareVersions": "syngo MR E11",
      "SpacingBetweenSlices": 2.0,
      "SpecificCharacterSet": "ISO_IR 100",
      "StudyID": "1",
      "StudyTime": "100503.512000",
      "TransmitCoilName": "Body",
      "VariableFlipAngleFlag": "N",
      "WindowCenterWidthExplanation": "Algo1",
      "dBdt": 0.0},
    "slices": {}
  },
  "time": {
    "samples": {
      "AcquisitionNumber": [1, 2, 3, 4, 5, 6, 7, 8, 9, 10, 11, 12, 13, 14, 15, 16, 17, 18, 19, 20, 21, 22, 23, 24, 25, 26, 27, 28, 29, 30, 31, 32, 33, 34, 35, 36, 37, 38, 39, 40, 41, 42, 43, 44, 45, 46, 47, 48, 49, 50, 51, 52, 53, 54, 55, 56, 57, 58, 59, 60, 61, 62, 63, 64, 65, 66, 67, 68, 69, 70, 71, 72, 73, 74, 75, 76, 77, 78, 79, 80, 81, 82, 83, 84, 85, 86, 87, 88, 89, 90, 91, 92, 93, 94, 95, 96, 97, 98, 99, 100, 101, 102, 103, 104, 105, 106, 107, 108, 109, 110, 111, 112, 113, 114, 115, 116, 117, 118, 119, 120, 121, 122, 123, 124, 125, 126, 127, 128, 129, 130, 131, 132, 133, 134, 135, 136, 137, 138, 139, 140, 141, 142, 143, 144, 145, 146, 147, 148, 149, 150, 151, 152, 153, 154, 155, 156, 157, 158, 159, 160, 161, 162, 163, 164, 165, 166, 167, 168, 169, 170, 171, 172, 173, 174, 175, 176, 177, 178, 179, 180, 181, 182, 183, 184, 185, 186, 187, 188, 189, 190, 191, 192, 193, 194, 195, 196, 197, 198, 199, 200, 201, 202, 203, 204, 205, 206, 207, 208, 209, 210, 211, 212, 213, 214, 215, 216, 217, 218, 219, 220, 221, 222, 223, 224, 225, 226, 227, 228, 229, 230, 231, 232, 233, 234, 235, 236, 237, 238, 239, 240, 241, 242, 243, 244, 245, 246, 247, 248, 249, 250, 251, 252, 253, 254, 255, 256, 257, 258, 259, 260, 261, 262, 263, 264, 265, 266, 267, 268, 269, 270, 271, 272, 273, 274, 275, 276, 277, 278, 279, 280, 281, 282, 283, 284, 285, 286, 287, 288, 289, 290, 291, 292, 293, 294, 295, 296, 297, 298, 299, 300, 301, 302, 303, 304, 305, 306, 307, 308, 309, 310, 311, 312, 313, 314, 315, 316, 317, 318, 319, 320, 321, 322, 323, 324, 325, 326, 327, 328, 329, 330, 331, 332, 333, 334, 335, 336, 337, 338, 339, 340, 341, 342, 343, 344, 345, 346, 347, 348, 349, 350, 351, 352, 353, 354, 355, 356, 357, 358, 359, 360, 361, 362, 363, 364, 365, 366, 367, 368, 369, 370, 371, 372, 373, 374, 375, 376, 377, 378, 379, 380, 381, 382, 383, 384, 385, 386, 387, 388, 389, 390, 391, 392, 393, 394, 395, 396, 397, 398, 399, 400, 401, 402, 403, 404, 405, 406, 407, 408, 409, 410, 411, 412, 413, 414, 415, 416, 417, 418, 419, 420, 421, 422, 423, 424, 425, 426, 427, 428, 429, 430, 431, 432, 433, 434, 435, 436, 437, 438, 439, 440, 441, 442, 443, 444, 445, 446, 447, 448, 449, 450, 451, 452, 453, 454, 455, 456, 457, 458, 459, 460, 461, 462, 463, 464, 465, 466, 467, 468, 469, 470, 471, 472, 473, 474, 475, 476, 477, 478, 479, 480, 481, 482, 483, 484, 485, 486, 487, 488, 489, 490, 491, 492, 493, 494, 495, 496, 497, 498, 499, 500, 501, 502, 503, 504, 505, 506, 507, 508, 509, 510, 511, 512, 513, 514, 515, 516, 517, 518, 519, 520, 521, 522, 523, 524, 525, 526, 527, 528, 529, 530, 531, 532, 533, 534, 535, 536, 537, 538, 539, 540, 541, 542, 543, 544, 545, 546, 547, 548, 549, 550, 551, 552, 553, 554, 555, 556, 557, 558, 559, 560, 561, 562, 563, 564, 565, 566, 567, 568, 569, 570, 571, 572, 573, 574, 575, 576, 577, 578, 579, 580, 581, 582, 583, 584, 585, 586, 587, 588, 589, 590, 591, 592, 593, 594, 595, 596, 597, 598, 599, 600, 601, 602, 603, 604, 605, 606, 607, 608, 609, 610, 611, 612, 613, 614, 615, 616, 617, 618, 619, 620, 621, 622, 623, 624, 625, 626, 627, 628, 629, 630, 631, 632, 633, 634, 635, 636, 637, 638, 639, 640, 641, 642, 643, 644, 645, 646, 647, 648, 649, 650, 651, 652, 653, 654, 655, 656, 657, 658, 659, 660, 661, 662, 663, 664, 665, 666, 667, 668, 669, 670, 671, 672, 673, 674, 675, 676, 677, 678, 679, 680, 681, 682, 683, 684, 685, 686, 687, 688, 689, 690, 691, 692, 693, 694, 695, 696, 697, 698, 699, 700, 701, 702, 703, 704, 705, 706, 707, 708, 709, 710, 711, 712, 713, 714, 715, 716, 717, 718, 719, 720, 721, 722, 723, 724, 725, 726, 727, 728, 729, 730, 731, 732, 733, 734, 735, 736, 737, 738, 739, 740, 741, 742, 743, 744, 745, 746, 747, 748, 749, 750, 751, 752, 753, 754, 755, 756, 757, 758, 759, 760, 761, 762, 763, 764, 765, 766, 767, 768, 769, 770, 771, 772, 773, 774, 775, 776, 777, 778, 779, 780, 781, 782, 783, 784, 785, 786, 787, 788, 789, 790, 791, 792, 793, 794, 795, 796, 797, 798, 799, 800, 801, 802, 803, 804, 805, 806, 807, 808, 809, 810, 811, 812, 813, 814, 815, 816, 817, 818, 819, 820, 821, 822, 823, 824, 825, 826, 827, 828, 829, 830, 831, 832, 833, 834, 835, 836, 837, 838, 839, 840, 841, 842, 843, 844, 845, 846, 847, 848, 849, 850, 851, 852, 853, 854, 855, 856, 857, 858, 859, 860, 861, 862, 863, 864, 865, 866, 867, 868, 869, 870, 871, 872, 873, 874, 875, 876, 877, 878, 879, 880, 881, 882, 883, 884, 885, 886, 887, 888, 889, 890, 891, 892, 893, 894, 895, 896, 897, 898, 899, 900, 901, 902, 903, 904, 905, 906, 907, 908, 909, 910, 911, 912, 913, 914, 915, 916, 917, 918, 919, 920, 921, 922, 923, 924, 925, 926, 927, 928, 929, 930, 931, 932, 933, 934, 935, 936, 937, 938, 939, 940, 941, 942, 943, 944, 945, 946, 947, 948, 949, 950, 951, 952, 953, 954, 955, 956, 957, 958, 959, 960, 961, 962, 963, 964, 965, 966, 967, 968, 969, 970, 971, 972, 973, 974, 975, 976, 977, 978, 979, 980, 981, 982, 983, 984, 985, 986, 987, 988, 989, 990, 991, 992, 993, 994, 995, 996, 997, 998, 999, 1000, 1001, 1002, 1003, 1004, 1005, 1006, 1007, 1008, 1009, 1010, 1011, 1012, 1013, 1014, 1015, 1016, 1017, 1018, 1019, 1020, 1021, 1022, 1023, 1024, 1025, 1026, 1027, 1028, 1029, 1030, 1031, 1032, 1033, 1034, 1035, 1036, 1037, 1038, 1039, 1040, 1041, 1042, 1043, 1044, 1045, 1046, 1047, 1048, 1049, 1050, 1051, 1052, 1053, 1054, 1055, 1056, 1057, 1058, 1059, 1060, 1061, 1062, 1063, 1064, 1065, 1066, 1067, 1068, 1069, 1070, 1071, 1072, 1073, 1074, 1075, 1076, 1077, 1078, 1079, 1080, 1081, 1082, 1083, 1084, 1085, 1086, 1087, 1088, 1089, 1090, 1091, 1092, 1093, 1094, 1095, 1096, 1097, 1098, 1099, 1100, 1101, 1102, 1103, 1104, 1105, 1106, 1107, 1108, 1109, 1110, 1111, 1112, 1113, 1114, 1115, 1116, 1117, 1118, 1119, 1120, 1121, 1122, 1123, 1124, 1125, 1126, 1127, 1128, 1129, 1130, 1131, 1132, 1133, 1134, 1135, 1136, 1137, 1138, 1139, 1140, 1141, 1142, 1143, 1144, 1145, 1146, 1147, 1148, 1149, 1150, 1151, 1152, 1153, 1154, 1155, 1156, 1157, 1158, 1159, 1160, 1161, 1162, 1163, 1164, 1165, 1166, 1167, 1168, 1169, 1170, 1171, 1172, 1173, 1174, 1175, 1176, 1177, 1178, 1179, 1180, 1181, 1182, 1183, 1184, 1185, 1186, 1187, 1188, 1189, 1190, 1191, 1192, 1193, 1194, 1195, 1196, 1197, 1198, 1199, 1200, 1201, 1202, 1203, 1204, 1205, 1206, 1207, 1208, 1209, 1210, 1211, 1212, 1213, 1214, 1215, 1216, 1217, 1218, 1219, 1220, 1221, 1222, 1223, 1224, 1225, 1226, 1227, 1228, 1229, 1230, 1231, 1232, 1233, 1234, 1235, 1236, 1237, 1238, 1239, 1240, 1241, 1242, 1243, 1244, 1245, 1246, 1247, 1248, 1249, 1250, 1251, 1252, 1253, 1254, 1255, 1256, 1257, 1258, 1259, 1260, 1261, 1262, 1263, 1264, 1265, 1266, 1267, 1268, 1269, 1270, 1271, 1272, 1273, 1274, 1275, 1276, 1277, 1278, 1279, 1280, 1281, 1282, 1283, 1284, 1285, 1286, 1287, 1288, 1289, 1290, 1291, 1292, 1293, 1294, 1295, 1296, 1297, 1298, 1299, 1300, 1301, 1302, 1303, 1304, 1305, 1306, 1307, 1308, 1309, 1310, 1311, 1312, 1313, 1314, 1315, 1316, 1317, 1318, 1319, 1320, 1321, 1322, 1323, 1324, 1325, 1326, 1327, 1328, 1329, 1330, 1331, 1332, 1333, 1334, 1335, 1336, 1337, 1338, 1339, 1340, 1341, 1342, 1343, 1344, 1345, 1346, 1347, 1348, 1349, 1350, 1351, 1352, 1353, 1354, 1355, 1356, 1357, 1358, 1359, 1360, 1361, 1362, 1363, 1364, 1365, 1366, 1367, 1368, 1369, 1370, 1371, 1372, 1373, 1374, 1375, 1376, 1377, 1378, 1379, 1380, 1381, 1382, 1383, 1384, 1385, 1386, 1387, 1388, 1389, 1390, 1391, 1392, 1393, 1394, 1395, 1396, 1397, 1398, 1399, 1400, 1401, 1402, 1403, 1404, 1405, 1406, 1407, 1408, 1409, 1410, 1411, 1412, 1413, 1414, 1415, 1416, 1417, 1418, 1419, 1420, 1421, 1422, 1423, 1424, 1425, 1426, 1427, 1428, 1429, 1430, 1431, 1432, 1433, 1434, 1435, 1436, 1437, 1438, 1439, 1440, 1441, 1442, 1443, 1444, 1445, 1446, 1447, 1448, 1449, 1450, 1451, 1452, 1453, 1454, 1455, 1456, 1457, 1458, 1459, 1460, 1461, 1462, 1463, 1464, 1465, 1466, 1467, 1468, 1469, 1470, 1471, 1472, 1473, 1474, 1475, 1476, 1477, 1478, 1479, 1480, 1481, 1482, 1483, 1484, 1485, 1486, 1487, 1488, 1489, 1490, 1491, 1492, 1493, 1494, 1495, 1496, 1497, 1498, 1499, 1500, 1501, 1502, 1503, 1504, 1505, 1506, 1507, 1508, 1509, 1510, 1511, 1512, 1513, 1514, 1515, 1516, 1517, 1518, 1519, 1520, 1521, 1522, 1523, 1524, 1525, 1526, 1527, 1528, 1529, 1530, 1531, 1532, 1533, 1534, 1535, 1536, 1537, 1538, 1539, 1540, 1541, 1542, 1543, 1544, 1545, 1546, 1547, 1548, 1549, 1550, 1551, 1552, 1553, 1554, 1555, 1556, 1557, 1558, 1559, 1560, 1561, 1562, 1563, 1564, 1565, 1566, 1567, 1568, 1569, 1570, 1571, 1572, 1573, 1574, 1575, 1576, 1577, 1578, 1579, 1580, 1581, 1582, 1583, 1584, 1585, 1586, 1587, 1588, 1589, 1590, 1591, 1592, 1593, 1594, 1595, 1596, 1597, 1598, 1599, 1600, 1601, 1602, 1603, 1604, 1605, 1606, 1607, 1608],
      "AcquisitionTime": ["115001.020000", "115002.520000", "115004.020000", "115005.520000", "115007.020000", "115008.520000", "115010.020000", "115011.520000", "115013.020000", "115014.520000", "115016.020000", "115017.520000", "115019.020000", "115020.520000", "115022.020000", "115023.520000", "115025.020000", "115026.520000", "115028.020000", "115029.520000", "115031.020000", "115032.520000", "115034.020000", "115035.520000", "115037.020000", "115038.520000", "115040.020000", "115041.520000", "115043.020000", "115044.520000", "115046.020000", "115047.520000", "115049.020000", "115050.520000", "115052.020000", "115053.520000", "115055.020000", "115056.520000", "115058.020000", "115059.520000", "115101.020000", "115102.520000", "115104.020000", "115105.520000", "115107.020000", "115108.520000", "115110.020000", "115111.520000", "115113.020000", "115114.520000", "115116.020000", "115117.520000", "115119.020000", "115120.520000", "115122.020000", "115123.520000", "115125.020000", "115126.520000", "115128.020000", "115129.520000", "115131.020000", "115132.520000", "115134.020000", "115135.520000", "115137.020000", "115138.520000", "115140.020000", "115141.520000", "115143.020000", "115144.520000", "115146.020000", "115147.520000", "115149.020000", "115150.520000", "115152.020000", "115153.520000", "115155.020000", "115156.520000", "115158.020000", "115159.520000", "115201.020000", "115202.520000", "115204.020000", "115205.520000", "115207.020000", "115208.520000", "115210.020000", "115211.520000", "115213.020000", "115214.520000", "115216.020000", "115217.520000", "115219.020000", "115220.520000", "115222.020000", "115223.520000", "115225.020000", "115226.520000", "115228.020000", "115229.520000", "115231.020000", "115232.520000", "115234.020000", "115235.520000", "115237.020000", "115238.520000", "115240.020000", "115241.520000", "115243.020000", "115244.520000", "115246.020000", "115247.520000", "115249.020000", "115250.520000", "115252.020000", "115253.520000", "115255.020000", "115256.520000", "115258.020000", "115259.520000", "115301.020000", "115302.520000", "115304.020000", "115305.520000", "115307.020000", "115308.520000", "115310.020000", "115311.520000", "115313.020000", "115314.520000", "115316.020000", "115317.520000", "115319.020000", "115320.520000", "115322.020000", "115323.520000", "115325.020000", "115326.520000", "115328.020000", "115329.520000", "115331.020000", "115332.520000", "115334.020000", "115335.520000", "115337.020000", "115338.520000", "115340.020000", "115341.520000", "115343.020000", "115344.520000", "115346.020000", "115347.520000", "115349.020000", "115350.520000", "115352.020000", "115353.520000", "115355.020000", "115356.520000", "115358.020000", "115359.520000", "115401.020000", "115402.520000", "115404.020000", "115405.520000", "115407.020000", "115408.520000", "115410.020000", "115411.520000", "115413.020000", "115414.520000", "115416.020000", "115417.520000", "115419.020000", "115420.520000", "115422.020000", "115423.520000", "115425.020000", "115426.520000", "115428.020000", "115429.520000", "115431.020000", "115432.520000", "115434.020000", "115435.520000", "115437.020000", "115438.520000", "115440.020000", "115441.520000", "115443.020000", "115444.520000", "115446.020000", "115447.520000", "115449.020000", "115450.520000", "115452.020000", "115453.520000", "115455.020000", "115456.520000", "115458.020000", "115459.520000", "115501.020000", "115502.520000", "115504.020000", "115505.520000", "115507.020000", "115508.520000", "115510.020000", "115511.520000", "115513.020000", "115514.520000", "115516.020000", "115517.520000", "115519.020000", "115520.520000", "115522.020000", "115523.520000", "115525.020000", "115526.520000", "115528.020000", "115529.520000", "115531.020000", "115532.520000", "115534.020000", "115535.520000", "115537.020000", "115538.520000", "115540.020000", "115541.520000", "115543.020000", "115544.520000", "115546.020000", "115547.520000", "115549.020000", "115550.520000", "115552.020000", "115553.520000", "115555.020000", "115556.520000", "115558.020000", "115559.520000", "115601.020000", "115602.520000", "115604.020000", "115605.520000", "115607.020000", "115608.520000", "115610.020000", "115611.520000", "115613.020000", "115614.520000", "115616.020000", "115617.520000", "115619.020000", "115620.520000", "115622.020000", "115623.520000", "115625.020000", "115626.520000", "115628.020000", "115629.520000", "115631.020000", "115632.520000", "115634.020000", "115635.520000", "115637.020000", "115638.520000", "115640.020000", "115641.520000", "115643.020000", "115644.520000", "115646.020000", "115647.520000", "115649.020000", "115650.520000", "115652.020000", "115653.520000", "115655.020000", "115656.520000", "115658.020000", "115659.520000", "115701.020000", "115702.520000", "115704.020000", "115705.520000", "115707.020000", "115708.520000", "115710.020000", "115711.520000", "115713.020000", "115714.520000", "115716.020000", "115717.520000", "115719.020000", "115720.520000", "115722.020000", "115723.520000", "115725.020000", "115726.520000", "115728.020000", "115729.520000", "115731.020000", "115732.520000", "115734.020000", "115735.520000", "115737.020000", "115738.520000", "115740.020000", "115741.520000", "115743.020000", "115744.520000", "115746.020000", "115747.520000", "115749.020000", "115750.520000", "115752.020000", "115753.520000", "115755.020000", "115756.520000", "115758.020000", "115759.520000", "115801.020000", "115802.520000", "115804.020000", "115805.520000", "115807.020000", "115808.520000", "115810.020000", "115811.520000", "115813.020000", "115814.520000", "115816.020000", "115817.520000", "115819.020000", "115820.520000", "115822.020000", "115823.520000", "115825.020000", "115826.520000", "115828.020000", "115829.520000", "115831.020000", "115832.520000", "115834.020000", "115835.520000", "115837.020000", "115838.520000", "115840.020000", "115841.520000", "115843.020000", "115844.520000", "115846.020000", "115847.520000", "115849.020000", "115850.520000", "115852.020000", "115853.520000", "115855.020000", "115856.520000", "115858.020000", "115859.520000", "115901.020000", "115902.520000", "115904.020000", "115905.520000", "115907.020000", "115908.520000", "115910.020000", "115911.520000", "115913.020000", "115914.520000", "115916.020000", "115917.520000", "115919.020000", "115920.520000", "115922.020000", "115923.520000", "115925.020000", "115926.520000", "115928.020000", "115929.520000", "115931.020000", "115932.520000", "115934.020000", "115935.520000", "115937.020000", "115938.520000", "115940.020000", "115941.520000", "115943.020000", "115944.520000", "115946.020000", "115947.520000", "115949.020000", "115950.520000", "115952.020000", "115953.520000", "115955.020000", "115956.520000", "115958.020000", "115959.520000", "120001.020000", "120002.520000", "120004.020000", "120005.520000", "120007.020000", "120008.520000", "120010.020000", "120011.520000", "120013.020000", "120014.520000", "120016.020000", "120017.520000", "120019.020000", "120020.520000", "120022.020000", "120023.520000", "120025.020000", "120026.520000", "120028.020000", "120029.520000", "120031.020000", "120032.520000", "120034.020000", "120035.520000", "120037.020000", "120038.520000", "120040.020000", "120041.520000", "120043.020000", "120044.520000", "120046.020000", "120047.520000", "120049.020000", "120050.520000", "120052.020000", "120053.520000", "120055.020000", "120056.520000", "120058.020000", "120059.520000", "120101.020000", "120102.520000", "120104.020000", "120105.520000", "120107.020000", "120108.520000", "120110.020000", "120111.520000", "120113.020000", "120114.520000", "120116.020000", "120117.520000", "120119.020000", "120120.520000", "120122.020000", "120123.520000", "120125.020000", "120126.520000", "120128.020000", "120129.520000", "120131.020000", "120132.520000", "120134.020000", "120135.520000", "120137.020000", "120138.520000", "120140.020000", "120141.520000", "120143.020000", "120144.520000", "120146.020000", "120147.520000", "120149.020000", "120150.520000", "120152.020000", "120153.520000", "120155.020000", "120156.520000", "120158.020000", "120159.520000", "120201.020000", "120202.520000", "120204.020000", "120205.520000", "120207.020000", "120208.520000", "120210.020000", "120211.520000", "120213.020000", "120214.520000", "120216.020000", "120217.520000", "120219.020000", "120220.520000", "120222.020000", "120223.520000", "120225.020000", "120226.520000", "120228.020000", "120229.520000", "120231.020000", "120232.520000", "120234.020000", "120235.520000", "120237.020000", "120238.520000", "120240.020000", "120241.520000", "120243.020000", "120244.520000", "120246.020000", "120247.520000", "120249.020000", "120250.520000", "120252.020000", "120253.520000", "120255.020000", "120256.520000", "120258.020000", "120259.520000", "120301.020000", "120302.520000", "120304.020000", "120305.520000", "120307.020000", "120308.520000", "120310.020000", "120311.520000", "120313.020000", "120314.520000", "120316.020000", "120317.520000", "120319.020000", "120320.520000", "120322.020000", "120323.520000", "120325.020000", "120326.520000", "120328.020000", "120329.520000", "120331.020000", "120332.520000", "120334.020000", "120335.520000", "120337.020000", "120338.520000", "120340.020000", "120341.520000", "120343.020000", "120344.520000", "120346.020000", "120347.520000", "120349.020000", "120350.520000", "120352.020000", "120353.520000", "120355.020000", "120356.520000", "120358.020000", "120359.520000", "120401.020000", "120402.520000", "120404.020000", "120405.520000", "120407.020000", "120408.520000", "120410.020000", "120411.520000", "120413.020000", "120414.520000", "120416.020000", "120417.520000", "120419.020000", "120420.520000", "120422.020000", "120423.520000", "120425.020000", "120426.520000", "120428.020000", "120429.520000", "120431.020000", "120432.520000", "120434.020000", "120435.520000", "120437.020000", "120438.520000", "120440.020000", "120441.520000", "120443.020000", "120444.520000", "120446.020000", "120447.520000", "120449.020000", "120450.520000", "120452.020000", "120453.520000", "120455.020000", "120456.520000", "120458.020000", "120459.520000", "120501.020000", "120502.520000", "120504.020000", "120505.520000", "120507.020000", "120508.520000", "120510.020000", "120511.520000", "120513.020000", "120514.520000", "120516.020000", "120517.520000", "120519.020000", "120520.520000", "120522.020000", "120523.520000", "120525.020000", "120526.520000", "120528.020000", "120529.520000", "120531.020000", "120532.520000", "120534.020000", "120535.520000", "120537.020000", "120538.520000", "120540.020000", "120541.520000", "120543.020000", "120544.520000", "120546.020000", "120547.520000", "120549.020000", "120550.520000", "120552.020000", "120553.520000", "120555.020000", "120556.520000", "120558.020000", "120559.520000", "120601.020000", "120602.520000", "120604.020000", "120605.520000", "120607.020000", "120608.520000", "120610.020000", "120611.520000", "120613.020000", "120614.520000", "120616.020000", "120617.520000", "120619.020000", "120620.520000", "120622.020000", "120623.520000", "120625.020000", "120626.520000", "120628.020000", "120629.520000", "120631.020000", "120632.520000", "120634.020000", "120635.520000", "120637.020000", "120638.520000", "120640.020000", "120641.520000", "120643.020000", "120644.520000", "120646.020000", "120647.520000", "120649.020000", "120650.520000", "120652.020000", "120653.520000", "120655.020000", "120656.520000", "120658.020000", "120659.520000", "120701.020000", "120702.520000", "120704.020000", "120705.520000", "120707.020000", "120708.520000", "120710.020000", "120711.520000", "120713.020000", "120714.520000", "120716.020000", "120717.520000", "120719.020000", "120720.520000", "120722.020000", "120723.520000", "120725.020000", "120726.520000", "120728.020000", "120729.520000", "120731.020000", "120732.520000", "120734.020000", "120735.520000", "120737.020000", "120738.520000", "120740.020000", "120741.520000", "120743.020000", "120744.520000", "120746.020000", "120747.520000", "120749.020000", "120750.520000", "120752.020000", "120753.520000", "120755.020000", "120756.520000", "120758.020000", "120759.520000", "120801.020000", "120802.520000", "120804.020000", "120805.520000", "120807.020000", "120808.520000", "120810.020000", "120811.520000", "120813.020000", "120814.520000", "120816.020000", "120817.520000", "120819.020000", "120820.520000", "120822.020000", "120823.520000", "120825.020000", "120826.520000", "120828.020000", "120829.520000", "120831.020000", "120832.520000", "120834.020000", "120835.520000", "120837.020000", "120838.520000", "120840.020000", "120841.520000", "120843.020000", "120844.520000", "120846.020000", "120847.520000", "120849.020000", "120850.520000", "120852.020000", "120853.520000", "120855.020000", "120856.520000", "120858.020000", "120859.520000", "120901.020000", "120902.520000", "120904.020000", "120905.520000", "120907.020000", "120908.520000", "120910.020000", "120911.520000", "120913.020000", "120914.520000", "120916.020000", "120917.520000", "120919.020000", "120920.520000", "120922.020000", "120923.520000", "120925.020000", "120926.520000", "120928.020000", "120929.520000", "120931.020000", "120932.520000", "120934.020000", "120935.520000", "120937.020000", "120938.520000", "120940.020000", "120941.520000", "120943.020000", "120944.520000", "120946.020000", "120947.520000", "120949.020000", "120950.520000", "120952.020000", "120953.520000", "120955.020000", "120956.520000", "120958.020000", "120959.520000", "121001.020000", "121002.520000", "121004.020000", "121005.520000", "121007.020000", "121008.520000", "121010.020000", "121011.520000", "121013.020000", "121014.520000", "121016.020000", "121017.520000", "121019.020000", "121020.520000", "121022.020000", "121023.520000", "121025.020000", "121026.520000", "121028.020000", "121029.520000", "121031.020000", "121032.520000", "121034.020000", "121035.520000", "121037.020000", "121038.520000", "121040.020000", "121041.520000", "121043.020000", "121044.520000", "121046.020000", "121047.520000", "121049.020000", "121050.520000", "121052.020000", "121053.520000", "121055.020000", "121056.520000", "121058.020000", "121059.520000", "121101.020000", "121102.520000", "121104.020000", "121105.520000", "121107.020000", "121108.520000", "121110.020000", "121111.520000", "121113.020000", "121114.520000", "121116.020000", "121117.520000", "121119.020000", "121120.520000", "121122.020000", "121123.520000", "121125.020000", "121126.520000", "121128.020000", "121129.520000", "121131.020000", "121132.520000", "121134.020000", "121135.520000", "121137.020000", "121138.520000", "121140.020000", "121141.520000", "121143.020000", "121144.520000", "121146.020000", "121147.520000", "121149.020000", "121150.520000", "121152.020000", "121153.520000", "121155.020000", "121156.520000", "121158.020000", "121159.520000", "121201.020000", "121202.520000", "121204.020000", "121205.520000", "121207.020000", "121208.520000", "121210.020000", "121211.520000", "121213.020000", "121214.520000", "121216.020000", "121217.520000", "121219.020000", "121220.520000", "121222.020000", "121223.520000", "121225.020000", "121226.520000", "121228.020000", "121229.520000", "121231.020000", "121232.520000", "121234.020000", "121235.520000", "121237.020000", "121238.520000", "121240.020000", "121241.520000", "121243.020000", "121244.520000", "121246.020000", "121247.520000", "121249.020000", "121250.520000", "121252.020000", "121253.520000", "121255.020000", "121256.520000", "121258.020000", "121259.520000", "121301.020000", "121302.520000", "121304.020000", "121305.520000", "121307.020000", "121308.520000", "121310.020000", "121311.520000", "121313.020000", "121314.520000", "121