{
  "AcquisitionMatrixPE": 106,
  "AcquisitionNumber": 1,
  "AcquisitionTime": "18:02:47.185000",
  "BandwidthPerPixelPhaseEncode": 13.477,
  "BaseResolution": 106,
  "BodyPartExamined": "BRAIN",
  "CoilCombinationMethod": "Sum of Squares",
  "ConsistencyInfo": "N4_VE11C_LATEST_20160120",
  "ConversionSoftware": "dcm2niix",
  "ConversionSoftwareVersion": "v1.0.20220720",
  "DerivedVendorReportedEchoSpacing": 0.000700005,
  "DeviceSerialNumber": "166108",
  "DwellTime": 2.6e-06,
  "EchoTime": 0.03,
  "EchoTrainLength": 80,
  "EffectiveEchoSpacing": 0.000700005,
  "FlipAngle": 62,
  "HeudiconvVersion": "1.3.0",
  "ImageComments": "Unaliased MB4/PE3/LB",
  "ImageOrientationPatientDICOM": [1, 0, 0, 0, 0.991671, -0.128796],
  "ImageOrientationText": "Tra>Cor(-7.4)",
  "ImageType": [
    "ORIGINAL",
    "PRIMARY",
    "M",
    "MB",
    "ND",
    "MOSAIC"
],
  "ImagingFrequency": 123.244,
  "InPlanePhaseEncodingDirectionDICOM": "COL",
  "InstitutionAddress": "Bedford Way 26,London,London,GB,WC1H 0AP",
  "InstitutionName": "University College",
  "InstitutionalDepartmentName": "Department",
  "MRAcquisitionType": "2D",
  "MagneticFieldStrength": 3,
  "Manufacturer": "Siemens",
  "ManufacturersModelName": "Prisma",
  "MatrixCoilMode": "SENSE",
  "Modality": "MR",
  "MultibandAccelerationFactor": 4,
  "NonlinearGradientCorrection": false,
  "PartialFourier": 0.75,
  "PatientPosition": "HFS",
  "PercentPhaseFOV": 100,
  "PercentSampling": 100,
  "PhaseEncodingDirection": "j-",
  "PhaseEncodingSteps": 80,
  "PhaseResolution": 1,
  "PixelBandwidth": 1815,
  "ProcedureStepDescription": "Egor^MovieProject2",
  "ProtocolName": "func-bold_task-motor_run-01",
  "PulseSequenceDetails": "%CustomerSeq%\\cmrr_mbep2d_bold",
  "ReceiveCoilActiveElements": "HEA;HEP",
  "ReceiveCoilName": "Head_32",
  "ReconMatrixPE": 106,
  "RepetitionTime": 1,
  "SAR": 0.0386311,
  "ScanOptions": "PFP\\FS\\EXT",
  "ScanningSequence": "EP",
  "SequenceName": "epfid2d1_106",
  "SequenceVariant": "SK\\SS",
  "SeriesDescription": "func-bold_task-motor_run-01",
  "SeriesNumber": 6,
  "ShimSetting": [-1529, 660, 7396, 360, -33, 270, 204, -100],
  "SliceThickness": 2,
  "SliceTiming": [0, 0.535, 0.0875, 0.6225, 0.1775, 0.7125, 0.2675, 0.8, 0.355, 0.89, 0.445, 0, 0.535, 0.0875, 0.6225, 0.1775, 0.7125, 0.2675, 0.8, 0.355, 0.89, 0.445, 0, 0.535, 0.0875, 0.6225, 0.1775, 0.7125, 0.2675, 0.8, 0.355, 0.89, 0.445, 0, 0.535, 0.0875, 0.6225, 0.1775, 0.7125, 0.2675, 0.8, 0.355, 0.89, 0.445],
  "SoftwareVersions": "syngo MR E11",
  "SpacingBetweenSlices": 2,
  "StationName": "AWP166108",
  "TaskName": "somatotopy",
  "TotalReadoutTime": 0.0735005,
  "TxRefAmp": 228.174,
  "WipMemBlock": "a1858516-b8c4-43be-9704-3b28dd0367e1||Sequence: R016 ve11c/master r/e634e98; Dec 19 2017 11:00:25 by eja",
  "dcmmeta_affine": [
    [-2.0, 0.0, 0.0, 106.0],
    [0.0, 1.9833422899246216, -0.257591187953949, -88.40544128417969],
    [0.0, 0.257591187953949, 1.9833422899246216, -10.678149223327637],
    [0.0, 0.0, 0.0, 1.0]
],
  "dcmmeta_reorient_transform": [
    [0.0, -1.0, 0.0, 105.0],
    [1.0, 0.0, 0.0, 0.0],
    [0.0, 0.0, 1.0, 0.0],
    [0.0, 0.0, 0.0, 1.0]
],
  "dcmmeta_shape": [106, 106, 44, 467],
  "dcmmeta_slice_dim": 2,
  "dcmmeta_version": 0.6,
  "global": {
    "const": {
      "AcquisitionMatrix": [106, 0, 0, 106],
      "AngioFlag": "N",
      "BitsAllocated": 16,
      "BitsStored": 16,
      "BodyPartExamined": "BRAIN",
      "CardiacNumberOfImages": 1,
      "Columns": 742,
      "EchoNumbers": 1,
      "EchoTime": 30.0,
      "EchoTrainLength": 80,
      "FlipAngle": 62.0,
      "HighBit": 15,
      "ImageOrientationPatient": [1.0, 0.0, 0.0, 0.0, 0.99167116265211, -0.1287955945062],
      "ImagePositionPatient": [-742.0, -750.5483647713, 98.282923912312],
      "ImageType": [
        "ORIGINAL",
        "PRIMARY",
        "M",
        "MB",
        "ND",
        "MOSAIC"
],
      "ImagedNucleus": "1H",
      "ImagingFrequency": 123.243625,
      "InPlanePhaseEncodingDirection": "COL",
      "MRAcquisitionType": "2D",
      "MagneticFieldStrength": 3.0,
      "Manufacturer": "SIEMENS",
      "ManufacturerModelName": "Prisma",
      "Modality": "MR",
      "NominalInterval": 0,
      "NumberOfAverages": 1.0,
      "NumberOfPhaseEncodingSteps": 80,
      "PercentPhaseFieldOfView": 100.0,
      "PercentSampling": 100.0,
      "PerformedProcedureStepStartTime": "172739.912000",
      "PhotometricInterpretation": "MONOCHROME2",
      "PixelBandwidth": 1815.0,
      "PixelRepresentation": 0,
      "PixelSpacing": [2.0, 2.0],
      "ProtocolName": "func-bold_task-motor_run-01",
      "RepetitionTime": 1000.0,
      "Rows": 742,
      "SAR": 0.03863108240511,
      "SamplesPerPixel": 1,
      "ScanOptions": [
        "PFP",
        "FS",
        "EXT"
],
      "ScanningSequence": "EP",
      "SequenceName": "epfid2d1_106",
      "SequenceVariant": [
        "SK",
        "SS"
],
      "SeriesDescription": "func-bold_task-motor_run-01",
      "SeriesNumber": 6,
      "SeriesTime": "180325.609000",
      "SliceLocation": 0.79701857857986,
      "SliceThickness": 2.0,
      "SmallestImagePixelValue": 0,
      "SoftwareVersions": "syngo MR E11",
      "SpacingBetweenSlices": 2.0000000010542,
      "SpecificCharacterSet": "ISO_IR 100",
      "StudyID": "1",
      "StudyTime": "172739.802000",
      "TransmitCoilName": "Body",
      "VariableFlipAngleFlag": "N",
      "WindowCenterWidthExplanation": "Algo1",
      "dBdt": 0.0},
    "slices": {}
  },
  "time": {
    "samples": {
      "AcquisitionNumber": [1, 2, 3, 4, 5, 6, 7, 8, 9, 10, 11, 12, 13, 14, 15, 16, 17, 18, 19, 20, 21, 22, 23, 24, 25, 26, 27, 28, 29, 30, 31, 32, 33, 34, 35, 36, 37, 38, 39, 40, 41, 42, 43, 44, 45, 46, 47, 48, 49, 50, 51, 52, 53, 54, 55, 56, 57, 58, 59, 60, 61, 62, 63, 64, 65, 66, 67, 68, 69, 70, 71, 72, 73, 74, 75, 76, 77, 78, 79, 80, 81, 82, 83, 84, 85, 86, 87, 88, 89, 90, 91, 92, 93, 94, 95, 96, 97, 98, 99, 100, 101, 102, 103, 104, 105, 106, 107, 108, 109, 110, 111, 112, 113, 114, 115, 116, 117, 118, 119, 120, 121, 122, 123, 124, 125, 126, 127, 128, 129, 130, 131, 132, 133, 134, 135, 136, 137, 138, 139, 140, 141, 142, 143, 144, 145, 146, 147, 148, 149, 150, 151, 152, 153, 154, 155, 156, 157, 158, 159, 160, 161, 162, 163, 164, 165, 166, 167, 168, 169, 170, 171, 172, 173, 174, 175, 176, 177, 178, 179, 180, 181, 182, 183, 184, 185, 186, 187, 188, 189, 190, 191, 192, 193, 194, 195, 196, 197, 198, 199, 200, 201, 202, 203, 204, 205, 206, 207, 208, 209, 210, 211, 212, 213, 214, 215, 216, 217, 218, 219, 220, 221, 222, 223, 224, 225, 226, 227, 228, 229, 230, 231, 232, 233, 234, 235, 236, 237, 238, 239, 240, 241, 242, 243, 244, 245, 246, 247, 248, 249, 250, 251, 252, 253, 254, 255, 256, 257, 258, 259, 260, 261, 262, 263, 264, 265, 266, 267, 268, 269, 270, 271, 272, 273, 274, 275, 276, 277, 278, 279, 280, 281, 282, 283, 284, 285, 286, 287, 288, 289, 290, 291, 292, 293, 294, 295, 296, 297, 298, 299, 300, 301, 302, 303, 304, 305, 306, 307, 308, 309, 310, 311, 312, 313, 314, 315, 316, 317, 318, 319, 320, 321, 322, 323, 324, 325, 326, 327, 328, 329, 330, 331, 332, 333, 334, 335, 336, 337, 338, 339, 340, 341, 342, 343, 344, 345, 346, 347, 348, 349, 350, 351, 352, 353, 354, 355, 356, 357, 358, 359, 360, 361, 362, 363, 364, 365, 366, 367, 368, 369, 370, 371, 372, 373, 374, 375, 376, 377, 378, 379, 380, 381, 382, 383, 384, 385, 386, 387, 388, 389, 390, 391, 392, 393, 394, 395, 396, 397, 398, 399, 400, 401, 402, 403, 404, 405, 406, 407, 408, 409, 410, 411, 412, 413, 414, 415, 416, 417, 418, 419, 420, 421, 422, 423, 424, 425, 426, 427, 428, 429, 430, 431, 432, 433, 434, 435, 436, 437, 438, 439, 440, 441, 442, 443, 444, 445, 446, 447, 448, 449, 450, 451, 452, 453, 454, 455, 456, 457, 458, 459, 460, 461, 462, 463, 464, 465, 466, 467],
      "AcquisitionTime": ["180247.185000", "180248.185000", "180249.185000", "180250.185000", "180251.185000", "180252.185000", "180253.185000", "180254.185000", "180255.185000", "180256.185000", "180257.185000", "180258.185000", "180259.185000", "180300.185000", "180301.185000", "180302.185000", "180303.185000", "180304.185000", "180305.185000", "180306.185000", "180307.185000", "180308.185000", "180309.185000", "180310.185000", "180311.185000", "180312.185000", "180313.185000", "180314.185000", "180315.185000", "180316.185000", "180317.185000", "180318.185000", "180319.185000", "180320.185000", "180321.185000", "180322.185000", "180323.185000", "180324.185000", "180325.185000", "180326.185000", "180327.185000", "180328.185000", "180329.185000", "180330.185000", "180331.185000", "180332.185000", "180333.185000", "180334.185000", "180335.185000", "180336.185000", "180337.185000", "180338.185000", "180339.185000", "180340.185000", "180341.185000", "180342.185000", "180343.185000", "180344.185000", "180345.185000", "180346.185000", "180347.185000", "180348.185000", "180349.185000", "180350.185000", "180351.185000", "180352.185000", "180353.185000", "180354.185000", "180355.185000", "180356.185000", "180357.185000", "180358.185000", "180359.185000", "180400.185000", "180401.185000", "180402.185000", "180403.185000", "180404.185000", "180405.185000", "180406.185000", "180407.185000", "180408.185000", "180409.185000", "180410.185000", "180411.185000", "180412.185000", "180413.185000", "180414.185000", "180415.185000", "180416.185000", "180417.185000", "180418.185000", "180419.185000", "180420.185000", "180421.185000", "180422.185000", "180423.185000", "180424.185000", "180425.185000", "180426.185000", "180427.185000", "180428.185000", "180429.185000", "180430.185000", "180431.185000", "180432.185000", "180433.185000", "180434.185000", "180435.185000", "180436.185000", "180437.185000", "180438.185000", "180439.185000", "180440.185000", "180441.185000", "180442.185000", "180443.185000", "180444.185000", "180445.185000", "180446.185000", "180447.185000", "180448.185000", "180449.185000", "180450.185000", "180451.185000", "180452.185000", "180453.185000", "180454.185000", "180455.185000", "180456.185000", "180457.185000", "180458.185000", "180459.185000", "180500.185000", "180501.185000", "180502.185000", "180503.185000", "180504.185000", "180505.185000", "180506.185000", "180507.185000", "180508.185000", "180509.185000", "180510.185000", "180511.185000", "180512.185000", "180513.185000", "180514.185000", "180515.185000", "180516.185000", "180517.185000", "180518.185000", "180519.185000", "180520.185000", "180521.185000", "180522.185000", "180523.185000", "180524.185000", "180525.185000", "180526.185000", "180527.185000", "180528.185000", "180529.185000", "180530.185000", "180531.185000", "180532.185000", "180533.185000", "180534.185000", "180535.185000", "180536.185000", "180537.185000", "180538.185000", "180539.185000", "180540.185000", "180541.185000", "180542.185000", "180543.185000", "180544.185000", "180545.185000", "180546.185000", "180547.185000", "180548.185000", "180549.185000", "180550.185000", "180551.185000", "180552.185000", "180553.185000", "180554.185000", "180555.185000", "180556.185000", "180557.185000", "180558.185000", "180559.185000", "180600.185000", "180601.185000", "180602.185000", "180603.185000", "180604.185000", "180605.185000", "180606.185000", "180607.185000", "180608.185000", "180609.185000", "180610.185000", "180611.185000", "180612.185000", "180613.185000", "180614.185000", "180615.185000", "180616.185000", "180617.185000", "180618.185000", "180619.185000", "180620.185000", "180621.185000", "180622.185000", "180623.185000", "180624.185000", "180625.185000", "180626.185000", "180627.185000", "180628.185000", "180629.185000", "180630.185000", "180631.185000", "180632.185000", "180633.185000", "180634.185000", "180635.185000", "180636.185000", "180637.185000", "180638.185000", "180639.185000", "180640.185000", "180641.185000", "180642.185000", "180643.185000", "180644.185000", "180645.185000", "180646.185000", "180647.185000", "180648.185000", "180649.185000", "180650.185000", "180651.185000", "180652.185000", "180653.185000", "180654.185000", "180655.185000", "180656.185000", "180657.185000", "180658.185000", "180659.185000", "180700.185000", "180701.185000", "180702.185000", "180703.185000", "180704.185000", "180705.185000", "180706.185000", "180707.185000", "180708.185000", "180709.185000", "180710.185000", "180711.185000", "180712.185000", "180713.185000", "180714.185000", "180715.185000", "180716.185000", "180717.185000", "180718.185000", "180719.185000", "180720.185000", "180721.185000", "180722.185000", "180723.185000", "180724.185000", "180725.185000", "180726.185000", "180727.185000", "180728.185000", "180729.185000", "180730.185000", "180731.185000", "180732.185000", "180733.185000", "180734.185000", "180735.185000", "180736.185000", "180737.185000", "180738.185000", "180739.185000", "180740.185000", "180741.185000", "180742.185000", "180743.185000", "180744.185000", "180745.185000", "180746.185000", "180747.185000", "180748.185000", "180749.185000", "180750.185000", "180751.185000", "180752.185000", "180753.185000", "180754.185000", "180755.185000", "180756.185000", "180757.185000", "180758.185000", "180759.185000", "180800.185000", "180801.185000", "180802.185000", "180803.185000", "180804.185000", "180805.185000", "180806.185000", "180807.185000", "180808.185000", "180809.185000", "180810.185000", "180811.185000", "180812.185000", "180813.185000", "180814.185000", "180815.185000", "180816.185000", "180817.185000", "180818.185000", "180819.185000", "180820.185000", "180821.185000", "180822.185000", "180823.185000", "180824.185000", "180825.185000", "180826.185000", "180827.185000", "180828.185000", "180829.185000", "180830.185000", "180831.185000", "180832.185000", "180833.185000", "180834.185000", "180835.185000", "180836.185000", "180837.185000", "180838.185000", "180839.185000", "180840.185000", "180841.185000", "180842.185000", "180843.185000", "180844.185000", "180845.185000", "180846.185000", "180847.185000", "180848.185000", "180849.185000", "180850.185000", "180851.185000", "180852.185000", "180853.185000", "180854.185000", "180855.185000", "180856.185000", "180857.185000", "180858.185000", "180859.185000", "180900.185000", "180901.185000", "180902.185000", "180903.185000", "180904.185000", "180905.185000", "180906.185000", "180907.185000", "180908.185000", "180909.185000", "180910.185000", "180911.185000", "180912.185000", "180913.185000", "180914.185000", "180915.185000", "180916.185000", "180917.185000", "180918.185000", "180919.185000", "180920.185000", "180921.185000", "180922.185000", "180923.185000", "180924.185000", "180925.185000", "180926.185000", "180927.185000", "180928.185000", "180929.185000", "180930.185000", "180931.185000", "180932.185000", "180933.185000", "180934.185000", "180935.185000", "180936.185000", "180937.185000", "180938.185000", "180939.185000", "180940.185000", "180941.185000", "180942.185000", "180943.185000", "180944.185000", "180945.185000", "180946.185000", "180947.185000", "180948.185000", "180949.185000", "180950.185000", "180951.185000", "180952.185000", "180953.185000", "180954.185000", "180955.185000", "180956.185000", "180957.185000", "180958.185000", "180959.185000", "181000.185000", "181001.185000", "181002.185000", "181003.185000", "181004.185000", "181005.185000", "181006.185000", "181007.185000", "181008.185000", "181009.185000", "181010.185000", "181011.185000", "181012.185000", "181013.185000", "181014.185000", "181015.185000", "181016.185000", "181017.185000", "181018.185000", "181019.185000", "181020.185000", "181021.185000", "181022.185000", "181023.185000", "181024.185000", "181025.185000", "181026.185000", "181027.185000", "181028.185000", "181029.185000", "181030.185000", "181031.185000", "181032.185000", "181033.185000"],
      "ContentTime": ["180325.612000", "180325.615000", "180325.618000", "180325.621000", "180325.623000", "180325.626000", "180325.628000", "180325.636000", "180325.638000", "180325.641000", "180325.644000", "180325.646000", "180325.649000", "180325.652000", "180325.654000", "180325.676000", "180325.678000", "180325.681000", "180325.683000", "180325.686000", "180325.688000", "180325.690000", "180325.693000", "180325.695000", "180325.698000", "180325.706000", "180325.708000", "180325.711000", "180325.713000", "180325.716000", "180325.718000", "180325.721000", "180325.723000", "180325.725000", "180325.728000", "180325.730000", "180325.733000", "180345.584000", "180345.587000", "180345.590000", "180345.592000", "180345.595000", "180345.597000", "180345.600000", "180345.603000", "180345.605000", "180345.608000", "180345.612000", "180345.614000", "180345.617000", "180345.619000", "180345.622000", "180345.624000", "180345.635000", "180345.638000", "180345.640000", "180345.642000", "180405.584000", "180405.587000", "180405.590000", "180405.592000", "180405.595000", "180405.598000", "180405.600000", "180405.603000", "180405.606000", "180405.608000", "180405.611000", "180405.614000", "180405.616000", "180405.619000", "180405.621000", "180405.624000", "180405.626000", "180405.629000", "180405.631000", "180405.633000", "180425.584000", "180425.587000", "180425.590000", "180425.592000", "180425.594000", "180425.597000", "180425.599000", "180425.606000", "180425.608000", "180425.610000", "180425.613000", "180425.615000", "180425.618000", "180425.620000", "180425.623000", "180425.625000", "180425.627000", "180425.630000", "180425.632000", "180425.635000", "180445.584000", "180445.587000", "180445.589000", "180445.592000", "180445.594000", "180445.597000", "180445.599000", "180445.601000", "180445.604000", "180445.606000", "180445.609000", "180445.611000", "180445.614000", "180445.621000", "180445.623000", "180445.626000", "180445.628000", "180445.631000", "180445.633000", "180445.636000", "180505.583000", "180505.586000", "180505.589000", "180505.592000", "180505.594000", "180505.597000", "180505.599000", "180505.602000", "180505.605000", "180505.607000", "180505.610000", "180505.612000", "180505.615000", "180505.618000", "180505.620000", "180505.623000", "180505.626000", "180505.628000", "180505.631000", "180505.634000", "180525.583000", "180525.586000", "180525.589000", "180525.592000", "180525.594000", "180525.597000", "180525.599000", "180525.602000", "180525.604000", "180525.607000", "180525.609000", "180525.612000", "180525.615000", "180525.617000", "180525.620000", "180525.622000", "180525.625000", "180525.628000", "180525.630000", "180525.633000", "180545.584000", "180545.587000", "180545.589000", "180545.592000", "180545.594000", "180545.597000", "180545.599000", "180545.601000", "180545.604000", "180545.606000", "180545.609000", "180545.611000", "180545.614000", "180545.616000", "180545.619000", "180545.621000", "180545.624000", "180545.626000", "180545.628000", "180545.631000", "180605.585000", "180605.587000", "180605.590000", "180605.592000", "180605.595000", "180605.597000", "180605.600000", "180605.602000", "180605.604000", "180605.607000", "180605.609000", "180605.612000", "180605.614000", "180605.617000", "180605.619000", "180605.622000", "180605.624000", "180605.626000", "180605.629000", "180605.631000", "180625.584000", "180625.587000", "180625.590000", "180625.593000", "180625.595000", "180625.598000", "180625.600000", "180625.603000", "180625.605000", "180625.607000", "180625.610000", "180625.612000", "180625.615000", "180625.617000", "180625.620000", "180625.622000", "180625.625000", "180625.627000", "180625.630000", "180625.632000", "180645.584000", "180645.587000", "180645.590000", "180645.593000", "180645.595000", "180645.598000", "180645.601000", "180645.603000", "180645.606000", "180645.609000", "180645.611000", "180645.613000", "180645.616000", "180645.619000", "180645.621000", "180645.624000", "180645.627000", "180645.629000", "180645.632000", "180645.634000", "180705.584000", "180705.587000", "180705.590000", "180705.593000", "180705.595000", "180705.598000", "180705.600000", "180705.603000", "180705.605000", "180705.607000", "180705.610000", "180705.612000", "180705.615000", "180705.617000", "180705.620000", "180705.622000", "180705.625000", "180705.627000", "180705.630000", "180705.632000", "180725.583000", "180725.586000", "180725.588000", "180725.591000", "180725.593000", "180725.596000", "180725.598000", "180725.600000", "180725.603000", "180725.616000", "180725.618000", "180725.620000", "180725.623000", "180725.625000", "180725.628000", "180725.630000", "180725.633000", "180725.635000", "180725.637000", "180725.640000", "180745.583000", "180745.586000", "180745.589000", "180745.591000", "180745.593000", "180745.596000", "180745.598000", "180745.601000", "180745.603000", "180745.606000", "180745.608000", "180745.611000", "180745.613000", "180745.615000", "180745.618000", "180745.620000", "180745.623000", "180745.625000", "180745.628000", "180745.630000", "180805.584000", "180805.587000", "180805.590000", "180805.593000", "180805.595000", "180805.598000", "180805.601000", "180805.603000", "180805.606000", "180805.608000", "180805.611000", "180805.614000", "180805.616000", "180805.619000", "180805.622000", "180805.624000", "180805.627000", "180805.629000", "180805.632000", "180805.635000", "180825.584000", "180825.587000", "180825.590000", "180825.592000", "180825.594000", "180825.597000", "180825.599000", "180825.602000", "180825.605000", "180825.607000", "180825.610000", "180825.612000", "180825.615000", "180825.618000", "180825.620000", "180825.623000", "180825.626000", "180825.628000", "180825.631000", "180825.634000", "180845.585000", "180845.587000", "180845.590000", "180845.592000", "180845.595000", "180845.597000", "180845.599000", "180845.602000", "180845.604000", "180845.607000", "180845.609000", "180845.612000", "180845.614000", "180845.617000", "180845.619000", "180845.622000", "180845.624000", "180845.627000", "180845.629000", "180845.631000", "180905.584000", "180905.587000", "180905.589000", "180905.592000", "180905.594000", "180905.597000", "180905.599000", "180905.601000", "180905.604000", "180905.606000", "180905.609000", "180905.611000", "180905.614000", "180905.616000", "180905.619000", "180905.621000", "180905.623000", "180905.626000", "180905.628000", "180905.631000", "180925.584000", "180925.587000", "180925.589000", "180925.592000", "180925.594000", "180925.597000", "180925.599000", "180925.602000", "180925.604000", "180925.606000", "180925.609000", "180925.611000", "180925.614000", "180925.616000", "180925.619000", "180925.621000", "180925.624000", "180925.626000", "180925.628000", "180925.631000", "180945.583000", "180945.586000", "180945.589000", "180945.592000", "180945.594000", "180945.597000", "180945.599000", "180945.602000", "180945.604000", "180945.607000", "180945.609000", "180945.612000", "180945.615000", "180945.618000", "180945.620000", "180945.623000", "180945.625000", "180945.628000", "180945.631000", "180945.633000", "181005.584000", "181005.586000", "181005.589000", "181005.592000", "181005.594000", "181005.597000", "181005.599000", "181005.602000", "181005.604000", "181005.607000", "181005.609000", "181005.611000", "181005.614000", "181005.617000", "181005.619000", "181005.622000", "181005.624000", "181005.627000", "181005.629000", "181005.632000", "181025.584000", "181025.587000", "181025.589000", "181025.592000", "181025.594000", "181025.597000", "181025.599000", "181025.601000", "181025.604000", "181025.606000", "181025.609000", "181025.611000", "181025.613000", "181025.616000", "181025.619000", "181025.621000", "181025.630000", "181025.632000", "181025.635000", "181025.637000", "181035.804000", "181035.807000", "181035.811000", "181035.814000", "181035.816000", "181035.819000", "181035.821000", "181035.824000", "181035.826000", "181035.829000"],
