{
  "AcquisitionMatrixPE": 106,
  "AcquisitionNumber": 1,
  "AcquisitionTime": "17:53:39.740000",
  "BandwidthPerPixelPhaseEncode": 13.477,
  "BaseResolution": 106,
  "BodyPartExamined": "BRAIN",
  "CoilCombinationMethod": "Sum of Squares",
  "ConsistencyInfo": "N4_VE11C_LATEST_20160120",
  "ConversionSoftware": "dcm2niix",
  "ConversionSoftwareVersion": "v1.0.20220720",
  "DerivedVendorReportedEchoSpacing": 0.000700005,
  "DeviceSerialNumber": "166108",
  "DwellTime": 2.6e-06,
  "EchoTime": 0.03,
  "EchoTrainLength": 80,
  "EffectiveEchoSpacing": 0.000700005,
  "FlipAngle": 62,
  "HeudiconvVersion": "1.3.0",
  "ImageComments": "Unaliased MB4/PE3/LB",
  "ImageOrientationPatientDICOM": [1, 0, 0, 0, 0.991671, -0.128796],
  "ImageOrientationText": "Tra>Cor(-7.4)",
  "ImageType": [
    "ORIGINAL",
    "PRIMARY",
    "M",
    "MB",
    "ND",
    "MOSAIC"
],
  "ImagingFrequency": 123.244,
  "InPlanePhaseEncodingDirectionDICOM": "COL",
  "InstitutionAddress": "Bedford Way 26,London,London,GB,WC1H 0AP",
  "InstitutionName": "University College",
  "InstitutionalDepartmentName": "Department",
  "MRAcquisitionType": "2D",
  "MagneticFieldStrength": 3,
  "Manufacturer": "Siemens",
  "ManufacturersModelName": "Prisma",
  "MatrixCoilMode": "SENSE",
  "Modality": "MR",
  "MultibandAccelerationFactor": 4,
  "NonlinearGradientCorrection": false,
  "PartialFourier": 0.75,
  "PatientPosition": "HFS",
  "PercentPhaseFOV": 100,
  "PercentSampling": 100,
  "PhaseEncodingDirection": "j-",
  "PhaseEncodingSteps": 80,
  "PhaseResolution": 1,
  "PixelBandwidth": 1815,
  "ProcedureStepDescription": "Egor^MovieProject2",
  "ProtocolName": "func-bold_task-motor_run-02",
  "PulseSequenceDetails": "%CustomerSeq%\\cmrr_mbep2d_bold",
  "ReceiveCoilActiveElements": "HEA;HEP",
  "ReceiveCoilName": "Head_32",
  "ReconMatrixPE": 106,
  "RepetitionTime": 1,
  "SAR": 0.0386318,
  "ScanOptions": "PFP\\FS\\EXT",
  "ScanningSequence": "EP",
  "SequenceName": "epfid2d1_106",
  "SequenceVariant": "SK\\SS",
  "SeriesDescription": "func-bold_task-motor_run-02",
  "SeriesNumber": 4,
  "ShimSetting": [-1529, 660, 7396, 360, -33, 270, 204, -100],
  "SliceThickness": 2,
  "SliceTiming": [0, 0.535, 0.09, 0.6225, 0.1775, 0.7125, 0.2675, 0.8025, 0.3575, 0.89, 0.445, 0, 0.535, 0.09, 0.6225, 0.1775, 0.7125, 0.2675, 0.8025, 0.3575, 0.89, 0.445, 0, 0.535, 0.09, 0.6225, 0.1775, 0.7125, 0.2675, 0.8025, 0.3575, 0.89, 0.445, 0, 0.535, 0.09, 0.6225, 0.1775, 0.7125, 0.2675, 0.8025, 0.3575, 0.89, 0.445],
  "SoftwareVersions": "syngo MR E11",
  "SpacingBetweenSlices": 2,
  "StationName": "AWP166108",
  "TaskName": "somatotopy",
  "TotalReadoutTime": 0.0735005,
  "TxRefAmp": 228.174,
  "WipMemBlock": "15a6991e-e282-43e2-b56d-2a0bf77d0001||Sequence: R016 ve11c/master r/e634e98; Dec 19 2017 11:00:25 by eja",
  "dcmmeta_affine": [
    [-2.0, 0.0, 0.0, 106.0],
    [0.0, 1.9833422899246216, -0.257591187953949, -88.40544128417969],
    [0.0, 0.257591187953949, 1.9833422899246216, -10.678149223327637],
    [0.0, 0.0, 0.0, 1.0]
],
  "dcmmeta_reorient_transform": [
    [0.0, -1.0, 0.0, 105.0],
    [1.0, 0.0, 0.0, 0.0],
    [0.0, 0.0, 1.0, 0.0],
    [0.0, 0.0, 0.0, 1.0]
],
  "dcmmeta_shape": [106, 106, 44, 469],
  "dcmmeta_slice_dim": 2,
  "dcmmeta_version": 0.6,
  "global": {
    "const": {
      "AcquisitionMatrix": [106, 0, 0, 106],
      "AngioFlag": "N",
      "BitsAllocated": 16,
      "BitsStored": 16,
      "BodyPartExamined": "BRAIN",
      "CardiacNumberOfImages": 1,
      "Columns": 742,
      "EchoNumbers": 1,
      "EchoTime": 30.0,
      "EchoTrainLength": 80,
      "FlipAngle": 62.0,
      "HighBit": 15,
      "ImageOrientationPatient": [1.0, 0.0, 0.0, 0.0, 0.99167116265211, -0.1287955945062],
      "ImagePositionPatient": [-742.0, -750.5483647713, 98.282923912312],
      "ImageType": [
        "ORIGINAL",
        "PRIMARY",
        "M",
        "MB",
        "ND",
        "MOSAIC"
],
      "ImagedNucleus": "1H",
      "ImagingFrequency": 123.243624,
      "InPlanePhaseEncodingDirection": "COL",
      "MRAcquisitionType": "2D",
      "MagneticFieldStrength": 3.0,
      "Manufacturer": "SIEMENS",
      "ManufacturerModelName": "Prisma",
      "Modality": "MR",
      "NominalInterval": 0,
      "NumberOfAverages": 1.0,
      "NumberOfPhaseEncodingSteps": 80,
      "PercentPhaseFieldOfView": 100.0,
      "PercentSampling": 100.0,
      "PerformedProcedureStepStartTime": "172739.912000",
      "PhotometricInterpretation": "MONOCHROME2",
      "PixelBandwidth": 1815.0,
      "PixelRepresentation": 0,
      "PixelSpacing": [2.0, 2.0],
      "ProtocolName": "func-bold_task-motor_run-02",
      "RepetitionTime": 1000.0,
      "Rows": 742,
      "SAR": 0.03863180659315,
      "SamplesPerPixel": 1,
      "ScanOptions": [
        "PFP",
        "FS",
        "EXT"
],
      "ScanningSequence": "EP",
      "SequenceName": "epfid2d1_106",
      "SequenceVariant": [
        "SK",
        "SS"
],
      "SeriesDescription": "func-bold_task-motor_run-02",
      "SeriesNumber": 4,
      "SeriesTime": "175412.298000",
      "SliceLocation": 0.79701857857986,
      "SliceThickness": 2.0,
      "SmallestImagePixelValue": 0,
      "SoftwareVersions": "syngo MR E11",
      "SpacingBetweenSlices": 2.0000000010542,
      "SpecificCharacterSet": "ISO_IR 100",
      "StudyID": "1",
      "StudyTime": "172739.802000",
      "TransmitCoilName": "Body",
      "VariableFlipAngleFlag": "N",
      "WindowCenterWidthExplanation": "Algo1",
      "dBdt": 0.0},
    "slices": {}
  },
  "time": {
    "samples": {
      "AcquisitionNumber": [1, 2, 3, 4, 5, 6, 7, 8, 9, 10, 11, 12, 13, 14, 15, 16, 17, 18, 19, 20, 21, 22, 23, 24, 25, 26, 27, 28, 29, 30, 31, 32, 33, 34, 35, 36, 37, 38, 39, 40, 41, 42, 43, 44, 45, 46, 47, 48, 49, 50, 51, 52, 53, 54, 55, 56, 57, 58, 59, 60, 61, 62, 63, 64, 65, 66, 67, 68, 69, 70, 71, 72, 73, 74, 75, 76, 77, 78, 79, 80, 81, 82, 83, 84, 85, 86, 87, 88, 89, 90, 91, 92, 93, 94, 95, 96, 97, 98, 99, 100, 101, 102, 103, 104, 105, 106, 107, 108, 109, 110, 111, 112, 113, 114, 115, 116, 117, 118, 119, 120, 121, 122, 123, 124, 125, 126, 127, 128, 129, 130, 131, 132, 133, 134, 135, 136, 137, 138, 139, 140, 141, 142, 143, 144, 145, 146, 147, 148, 149, 150, 151, 152, 153, 154, 155, 156, 157, 158, 159, 160, 161, 162, 163, 164, 165, 166, 167, 168, 169, 170, 171, 172, 173, 174, 175, 176, 177, 178, 179, 180, 181, 182, 183, 184, 185, 186, 187, 188, 189, 190, 191, 192, 193, 194, 195, 196, 197, 198, 199, 200, 201, 202, 203, 204, 205, 206, 207, 208, 209, 210, 211, 212, 213, 214, 215, 216, 217, 218, 219, 220, 221, 222, 223, 224, 225, 226, 227, 228, 229, 230, 231, 232, 233, 234, 235, 236, 237, 238, 239, 240, 241, 242, 243, 244, 245, 246, 247, 248, 249, 250, 251, 252, 253, 254, 255, 256, 257, 258, 259, 260, 261, 262, 263, 264, 265, 266, 267, 268, 269, 270, 271, 272, 273, 274, 275, 276, 277, 278, 279, 280, 281, 282, 283, 284, 285, 286, 287, 288, 289, 290, 291, 292, 293, 294, 295, 296, 297, 298, 299, 300, 301, 302, 303, 304, 305, 306, 307, 308, 309, 310, 311, 312, 313, 314, 315, 316, 317, 318, 319, 320, 321, 322, 323, 324, 325, 326, 327, 328, 329, 330, 331, 332, 333, 334, 335, 336, 337, 338, 339, 340, 341, 342, 343, 344, 345, 346, 347, 348, 349, 350, 351, 352, 353, 354, 355, 356, 357, 358, 359, 360, 361, 362, 363, 364, 365, 366, 367, 368, 369, 370, 371, 372, 373, 374, 375, 376, 377, 378, 379, 380, 381, 382, 383, 384, 385, 386, 387, 388, 389, 390, 391, 392, 393, 394, 395, 396, 397, 398, 399, 400, 401, 402, 403, 404, 405, 406, 407, 408, 409, 410, 411, 412, 413, 414, 415, 416, 417, 418, 419, 420, 421, 422, 423, 424, 425, 426, 427, 428, 429, 430, 431, 432, 433, 434, 435, 436, 437, 438, 439, 440, 441, 442, 443, 444, 445, 446, 447, 448, 449, 450, 451, 452, 453, 454, 455, 456, 457, 458, 459, 460, 461, 462, 463, 464, 465, 466, 467, 468, 469],
      "AcquisitionTime": ["175339.740000", "175340.740000", "175341.740000", "175342.740000", "175343.740000", "175344.740000", "175345.740000", "175346.740000", "175347.740000", "175348.740000", "175349.740000", "175350.740000", "175351.740000", "175352.740000", "175353.740000", "175354.740000", "175355.740000", "175356.740000", "175357.740000", "175358.740000", "175359.740000", "175400.740000", "175401.740000", "175402.740000", "175403.740000", "175404.740000", "175405.740000", "175406.740000", "175407.740000", "175408.740000", "175409.740000", "175410.740000", "175411.740000", "175412.740000", "175413.740000", "175414.740000", "175415.740000", "175416.740000", "175417.740000", "175418.740000", "175419.740000", "175420.740000", "175421.740000", "175422.740000", "175423.740000", "175424.740000", "175425.740000", "175426.740000", "175427.740000", "175428.740000", "175429.740000", "175430.740000", "175431.740000", "175432.740000", "175433.740000", "175434.740000", "175435.740000", "175436.740000", "175437.740000", "175438.740000", "175439.740000", "175440.740000", "175441.740000", "175442.740000", "175443.740000", "175444.740000", "175445.740000", "175446.740000", "175447.740000", "175448.740000", "175449.740000", "175450.740000", "175451.740000", "175452.740000", "175453.740000", "175454.740000", "175455.740000", "175456.740000", "175457.740000", "175458.740000", "175459.740000", "175500.740000", "175501.740000", "175502.740000", "175503.740000", "175504.740000", "175505.740000", "175506.740000", "175507.740000", "175508.740000", "175509.740000", "175510.740000", "175511.740000", "175512.740000", "175513.740000", "175514.740000", "175515.740000", "175516.740000", "175517.740000", "175518.740000", "175519.740000", "175520.740000", "175521.740000", "175522.740000", "175523.740000", "175524.740000", "175525.740000", "175526.740000", "175527.740000", "175528.740000", "175529.740000", "175530.740000", "175531.740000", "175532.740000", "175533.740000", "175534.740000", "175535.740000", "175536.740000", "175537.740000", "175538.740000", "175539.740000", "175540.740000", "175541.740000", "175542.740000", "175543.740000", "175544.740000", "175545.740000", "175546.740000", "175547.740000", "175548.740000", "175549.740000", "175550.740000", "175551.740000", "175552.740000", "175553.740000", "175554.740000", "175555.740000", "175556.740000", "175557.740000", "175558.740000", "175559.740000", "175600.740000", "175601.740000", "175602.740000", "175603.740000", "175604.740000", "175605.740000", "175606.740000", "175607.740000", "175608.740000", "175609.740000", "175610.740000", "175611.740000", "175612.740000", "175613.740000", "175614.740000", "175615.740000", "175616.740000", "175617.740000", "175618.740000", "175619.740000", "175620.740000", "175621.740000", "175622.740000", "175623.740000", "175624.740000", "175625.740000", "175626.740000", "175627.740000", "175628.740000", "175629.740000", "175630.740000", "175631.740000", "175632.740000", "175633.740000", "175634.740000", "175635.740000", "175636.740000", "175637.740000", "175638.740000", "175639.740000", "175640.740000", "175641.740000", "175642.740000", "175643.740000", "175644.740000", "175645.740000", "175646.740000", "175647.740000", "175648.740000", "175649.740000", "175650.740000", "175651.740000", "175652.740000", "175653.740000", "175654.740000", "175655.740000", "175656.740000", "175657.740000", "175658.740000", "175659.740000", "175700.740000", "175701.740000", "175702.740000", "175703.740000", "175704.740000", "175705.740000", "175706.740000", "175707.740000", "175708.740000", "175709.740000", "175710.740000", "175711.740000", "175712.740000", "175713.740000", "175714.740000", "175715.740000", "175716.740000", "175717.740000", "175718.740000", "175719.740000", "175720.740000", "175721.740000", "175722.740000", "175723.740000", "175724.740000", "175725.740000", "175726.740000", "175727.740000", "175728.740000", "175729.740000", "175730.740000", "175731.740000", "175732.740000", "175733.740000", "175734.740000", "175735.740000", "175736.740000", "175737.740000", "175738.740000", "175739.740000", "175740.740000", "175741.740000", "175742.740000", "175743.740000", "175744.740000", "175745.740000", "175746.740000", "175747.740000", "175748.740000", "175749.740000", "175750.740000", "175751.740000", "175752.740000", "175753.740000", "175754.740000", "175755.740000", "175756.740000", "175757.740000", "175758.740000", "175759.740000", "175800.740000", "175801.740000", "175802.740000", "175803.740000", "175804.740000", "175805.740000", "175806.740000", "175807.740000", "175808.740000", "175809.740000", "175810.740000", "175811.740000", "175812.740000", "175813.740000", "175814.740000", "175815.740000", "175816.740000", "175817.740000", "175818.740000", "175819.740000", "175820.740000", "175821.740000", "175822.740000", "175823.740000", "175824.740000", "175825.740000", "175826.740000", "175827.740000", "175828.740000", "175829.740000", "175830.740000", "175831.740000", "175832.740000", "175833.740000", "175834.740000", "175835.740000", "175836.740000", "175837.740000", "175838.740000", "175839.740000", "175840.740000", "175841.740000", "175842.740000", "175843.740000", "175844.740000", "175845.740000", "175846.740000", "175847.740000", "175848.740000", "175849.740000", "175850.740000", "175851.740000", "175852.740000", "175853.740000", "175854.740000", "175855.740000", "175856.740000", "175857.740000", "175858.740000", "175859.740000", "175900.740000", "175901.740000", "175902.740000", "175903.740000", "175904.740000", "175905.740000", "175906.740000", "175907.740000", "175908.740000", "175909.740000", "175910.740000", "175911.740000", "175912.740000", "175913.740000", "175914.740000", "175915.740000", "175916.740000", "175917.740000", "175918.740000", "175919.740000", "175920.740000", "175921.740000", "175922.740000", "175923.740000", "175924.740000", "175925.740000", "175926.740000", "175927.740000", "175928.740000", "175929.740000", "175930.740000", "175931.740000", "175932.740000", "175933.740000", "175934.740000", "175935.740000", "175936.740000", "175937.740000", "175938.740000", "175939.740000", "175940.740000", "175941.740000", "175942.740000", "175943.740000", "175944.740000", "175945.740000", "175946.740000", "175947.740000", "175948.740000", "175949.740000", "175950.740000", "175951.740000", "175952.740000", "175953.740000", "175954.740000", "175955.740000", "175956.740000", "175957.740000", "175958.740000", "175959.740000", "180000.740000", "180001.740000", "180002.740000", "180003.740000", "180004.740000", "180005.740000", "180006.740000", "180007.740000", "180008.740000", "180009.740000", "180010.740000", "180011.740000", "180012.740000", "180013.740000", "180014.740000", "180015.740000", "180016.740000", "180017.740000", "180018.740000", "180019.740000", "180020.740000", "180021.740000", "180022.740000", "180023.740000", "180024.740000", "180025.740000", "180026.740000", "180027.740000", "180028.740000", "180029.740000", "180030.740000", "180031.740000", "180032.740000", "180033.740000", "180034.740000", "180035.740000", "180036.740000", "180037.740000", "180038.740000", "180039.740000", "180040.740000", "180041.740000", "180042.740000", "180043.740000", "180044.740000", "180045.740000", "180046.740000", "180047.740000", "180048.740000", "180049.740000", "180050.740000", "180051.740000", "180052.740000", "180053.740000", "180054.740000", "180055.740000", "180056.740000", "180057.740000", "180058.740000", "180059.740000", "180100.740000", "180101.740000", "180102.740000", "180103.740000", "180104.740000", "180105.740000", "180106.740000", "180107.740000", "180108.740000", "180109.740000", "180110.740000", "180111.740000", "180112.740000", "180113.740000", "180114.740000", "180115.740000", "180116.740000", "180117.740000", "180118.740000", "180119.740000", "180120.740000", "180121.740000", "180122.740000", "180123.740000", "180124.740000", "180125.740000", "180126.740000", "180127.740000"],
      "ContentTime": ["175412.300000", "175412.303000", "175412.306000", "175412.308000", "175412.311000", "175412.322000", "175412.325000", "175412.328000", "175412.330000", "175412.333000", "175412.336000", "175412.339000", "175412.342000", "175412.368000", "175412.371000", "175412.373000", "175412.376000", "175412.378000", "175412.381000", "175412.383000", "175412.386000", "175412.388000", "175412.390000", "175412.393000", "175412.395000", "175412.398000", "175412.400000", "175412.403000", "175412.405000", "175412.407000", "175412.410000", "175432.265000", "175432.267000", "175432.270000", "175432.282000", "175432.285000", "175432.287000", "175432.290000", "175432.292000", "175432.295000", "175432.297000", "175432.300000", "175432.302000", "175432.305000", "175432.307000", "175432.310000", "175432.312000", "175432.315000", "175432.317000", "175432.319000", "175432.322000", "175452.264000", "175452.267000", "175452.269000", "175452.272000", "175452.274000", "175452.277000", "175452.279000", "175452.281000", "175452.285000", "175452.287000", "175452.290000", "175452.292000", "175452.295000", "175452.297000", "175452.300000", "175452.302000", "175452.304000", "175452.307000", "175452.309000", "175452.312000", "175512.265000", "175512.267000", "175512.270000", "175512.272000", "175512.275000", "175512.277000", "175512.280000", "175512.282000", "175512.285000", "175512.288000", "175512.290000", "175512.307000", "175512.309000", "175512.311000", "175512.314000", "175512.316000", "175512.319000", "175512.321000", "175512.324000", "175512.326000", "175532.264000", "175532.267000", "175532.270000", "175532.272000", "175532.274000", "175532.277000", "175532.279000", "175532.282000", "175532.285000", "175532.288000", "175532.290000", "175532.293000", "175532.295000", "175532.298000", "175532.300000", "175532.303000", "175532.305000", "175532.313000", "175532.315000", "175532.317000", "175552.265000", "175552.268000", "175552.270000", "175552.273000", "175552.275000", "175552.278000", "175552.280000", "175552.283000", "175552.286000", "175552.289000", "175552.291000", "175552.294000", "175552.296000", "175552.298000", "175552.301000", "175552.303000", "175552.306000", "175552.308000", "175552.311000", "175552.313000", "175612.265000", "175612.268000", "175612.271000", "175612.273000", "175612.276000", "175612.278000", "175612.280000", "175612.283000", "175612.286000", "175612.288000", "175612.291000", "175612.293000", "175612.295000", "175612.298000", "175612.300000", "175612.303000", "175612.305000", "175612.308000", "175612.310000", "175612.312000", "175632.265000", "175632.268000", "175632.270000", "175632.273000", "175632.275000", "175632.278000", "175632.280000", "175632.283000", "175632.286000", "175632.288000", "175632.291000", "175632.293000", "175632.296000", "175632.298000", "175632.301000", "175632.303000", "175632.306000", "175632.308000", "175632.310000", "175632.313000", "175652.264000", "175652.267000", "175652.270000", "175652.272000", "175652.275000", "175652.277000", "175652.279000", "175652.282000", "175652.285000", "175652.288000", "175652.290000", "175652.293000", "175652.295000", "175652.298000", "175652.300000", "175652.303000", "175652.305000", "175652.307000", "175652.310000", "175652.312000", "175712.264000", "175712.267000", "175712.270000", "175712.272000", "175712.275000", "175712.277000", "175712.279000", "175712.282000", "175712.285000", "175712.288000", "175712.290000", "175712.293000", "175712.295000", "175712.298000", "175712.300000", "175712.302000", "175712.305000", "175712.307000", "175712.310000", "175712.312000", "175732.264000", "175732.267000", "175732.269000", "175732.272000", "175732.274000", "175732.277000", "175732.279000", "175732.282000", "175732.285000", "175732.287000", "175732.290000", "175732.292000", "175732.295000", "175732.297000", "175732.299000", "175732.302000", "175732.304000", "175732.307000", "175732.309000", "175732.312000", "175752.264000", "175752.267000", "175752.270000", "175752.273000", "175752.275000", "175752.278000", "175752.280000", "175752.283000", "175752.286000", "175752.289000", "175752.291000", "175752.294000", "175752.296000", "175752.299000", "175752.301000", "175752.303000", "175752.306000", "175752.308000", "175752.311000", "175752.314000", "175812.265000", "175812.268000", "175812.270000", "175812.273000", "175812.275000", "175812.278000", "175812.280000", "175812.284000", "175812.286000", "175812.289000", "175812.291000", "175812.294000", "175812.296000", "175812.298000", "175812.301000", "175812.303000", "175812.306000", "175812.308000", "175812.311000", "175812.313000", "175832.265000", "175832.268000", "175832.270000", "175832.273000", "175832.275000", "175832.278000", "175832.280000", "175832.283000", "175832.286000", "175832.288000", "175832.291000", "175832.293000", "175832.296000", "175832.298000", "175832.301000", "175832.303000", "175832.305000", "175832.308000", "175832.310000", "175832.313000", "175852.265000", "175852.268000", "175852.271000", "175852.273000", "175852.275000", "175852.278000", "175852.280000", "175852.283000", "175852.286000", "175852.288000", "175852.291000", "175852.293000", "175852.296000", "175852.298000", "175852.301000", "175852.303000", "175852.306000", "175852.308000", "175852.311000", "175852.313000", "175912.264000", "175912.267000", "175912.270000", "175912.272000", "175912.275000", "175912.288000", "175912.291000", "175912.293000", "175912.296000", "175912.298000", "175912.300000", "175912.303000", "175912.305000", "175912.308000", "175912.310000", "175912.313000", "175912.315000", "175912.317000", "175912.320000", "175912.322000", "175932.264000", "175932.267000", "175932.270000", "175932.272000", "175932.275000", "175932.277000", "175932.279000", "175932.283000", "175932.285000", "175932.288000", "175932.290000", "175932.293000", "175932.295000", "175932.298000", "175932.300000", "175932.302000", "175932.305000", "175932.307000", "175932.310000", "175932.312000", "175952.264000", "175952.267000", "175952.269000", "175952.272000", "175952.274000", "175952.277000", "175952.279000", "175952.283000", "175952.285000", "175952.288000", "175952.290000", "175952.293000", "175952.295000", "175952.298000", "175952.300000", "175952.303000", "175952.306000", "175952.309000", "175952.311000", "175952.314000", "180012.265000", "180012.268000", "180012.270000", "180012.273000", "180012.275000", "180012.278000", "180012.280000", "180012.283000", "180012.286000", "180012.288000", "180012.291000", "180012.293000", "180012.296000", "180012.298000", "180012.300000", "180012.303000", "180012.305000", "180012.308000", "180012.310000", "180012.312000", "180032.265000", "180032.268000", "180032.271000", "180032.273000", "180032.276000", "180032.278000", "180032.281000", "180032.284000", "180032.286000", "180032.289000", "180032.291000", "180032.294000", "180032.296000", "180032.299000", "180032.301000", "180032.304000", "180032.306000", "180032.309000", "180032.311000", "180032.313000", "180052.265000", "180052.268000", "180052.271000", "180052.273000", "180052.275000", "180052.278000", "180052.280000", "180052.283000", "180052.286000", "180052.289000", "180052.291000", "180052.293000", "180052.296000", "180052.298000", "180052.301000", "180052.303000", "180052.306000", "180052.308000", "180052.310000", "180052.313000", "180112.265000", "180112.268000", "180112.271000", "180112.273000", "180112.276000", "180112.278000", "180112.281000", "180112.284000", "180112.286000", "180112.289000", "180112.291000", "180112.294000", "180112.296000", "180112.299000", "180112.301000", "180112.304000", "180112.306000", "180112.309000", "180112.311000", "180112.314000", "180129.413000", "180129.415000", "180129.418000", "180129.421000", "180129.423000", "180129.425000", "180129.428000", "180129.430000", "180129.433000", "180129.435000", "180129.438000", "180129.440000", "180129.442000", "180129.445000", "180129.447000", "180129.450000", "180129.452000", "180129.455000"],
