{
  "AcquisitionMatrixPE": 106,
  "AcquisitionNumber": 1,
  "AcquisitionTime": "18:26:12.422500",
  "BandwidthPerPixelPhaseEncode": 16.846,
  "BaseResolution": 106,
  "BodyPartExamined": "BRAIN",
  "CoilCombinationMethod": "Sum of Squares",
  "ConsistencyInfo": "N4_VE11C_LATEST_20160120",
  "ConversionSoftware": "dcm2niix",
  "ConversionSoftwareVersion": "v1.0.20220720",
  "DerivedVendorReportedEchoSpacing": 0.000560012,
  "DeviceSerialNumber": "166108",
  "DwellTime": 1.8e-06,
  "EchoTime": 0.0352,
  "EchoTrainLength": 106,
  "EffectiveEchoSpacing": 0.000560012,
  "FlipAngle": 60,
  "HeudiconvVersion": "1.3.0",
  "ImageComments": "Unaliased MB4/PE3/LB",
  "ImageOrientationPatientDICOM": [1, 0, 0, 0, 0.940881, -0.338738],
  "ImageOrientationText": "Tra>Cor(-19.8)",
  "ImageType": [
    "ORIGINAL",
    "PRIMARY",
    "M",
    "MB",
    "ND",
    "MOSAIC"
],
  "ImagingFrequency": 123.244,
  "InPlanePhaseEncodingDirectionDICOM": "COL",
  "InstitutionAddress": "Bedford Way 26,London,London,GB,WC1H 0AP",
  "InstitutionName": "University College",
  "InstitutionalDepartmentName": "Department",
  "MRAcquisitionType": "2D",
  "MagneticFieldStrength": 3,
  "Manufacturer": "Siemens",
  "ManufacturersModelName": "Prisma",
  "MatrixCoilMode": "SENSE",
  "Modality": "MR",
  "MultibandAccelerationFactor": 4,
  "NonlinearGradientCorrection": false,
  "PartialFourier": 1,
  "PatientPosition": "HFS",
  "PercentPhaseFOV": 100,
  "PercentSampling": 100,
  "PhaseEncodingDirection": "j-",
  "PhaseEncodingSteps": 106,
  "PhaseResolution": 1,
  "PixelBandwidth": 2620,
  "ProcedureStepDescription": "Egor^MovieProject2",
  "ProtocolName": "func-bold_task-pRF_run-02",
  "PulseSequenceDetails": "%CustomerSeq%\\cmrr_mbep2d_bold",
  "ReceiveCoilActiveElements": "HEA;HEP",
  "ReceiveCoilName": "Head_32",
  "ReconMatrixPE": 106,
  "RepetitionTime": 1,
  "SAR": 0.0691996,
  "ScanOptions": "FS\\EXT",
  "ScanningSequence": "EP",
  "SequenceName": "epfid2d1_106",
  "SequenceVariant": "SK\\SS",
  "SeriesDescription": "func-bold_task-pRF_run-02",
  "SeriesNumber": 12,
  "ShimSetting": [-1537, 666, 7428, 508, -49, 214, 201, -87],
  "SliceThickness": 2,
  "SliceTiming": [0, 0.4075, 0.815, 0.245, 0.6525, 0.08, 0.49, 0.8975, 0.325, 0.735, 0.1625, 0.57, 0, 0.4075, 0.815, 0.245, 0.6525, 0.08, 0.49, 0.8975, 0.325, 0.735, 0.1625, 0.57, 0, 0.4075, 0.815, 0.245, 0.6525, 0.08, 0.49, 0.8975, 0.325, 0.735, 0.1625, 0.57, 0, 0.4075, 0.815, 0.245, 0.6525, 0.08, 0.49, 0.8975, 0.325, 0.735, 0.1625, 0.57],
  "SoftwareVersions": "syngo MR E11",
  "SpacingBetweenSlices": 2,
  "StationName": "AWP166108",
  "TaskName": "retinotopy",
  "TotalReadoutTime": 0.0588013,
  "TxRefAmp": 228.174,
  "WipMemBlock": "acf110b7-982c-4153-ba11-6d6437a7527c||Sequence: R016 ve11c/master r/e634e98; Dec 19 2017 11:00:25 by eja",
  "dcmmeta_affine": [
    [-2.0, 0.0, 0.0, 106.0],
    [0.0, 1.8817615509033203, -0.6774758696556091, -74.52851104736328],
    [0.0, 0.6774758696556091, 1.8817615509033203, -44.2886962890625],
    [0.0, 0.0, 0.0, 1.0]
],
  "dcmmeta_reorient_transform": [
    [0.0, -1.0, 0.0, 105.0],
    [1.0, 0.0, 0.0, 0.0],
    [0.0, 0.0, 1.0, 0.0],
    [0.0, 0.0, 0.0, 1.0]
],
  "dcmmeta_shape": [106, 106, 48, 356],
  "dcmmeta_slice_dim": 2,
  "dcmmeta_version": 0.6,
  "global": {
    "const": {
      "AcquisitionMatrix": [106, 0, 0, 106],
      "AngioFlag": "N",
      "BitsAllocated": 16,
      "BitsStored": 16,
      "BodyPartExamined": "BRAIN",
      "CardiacNumberOfImages": 1,
      "Columns": 742,
      "EchoNumbers": 1,
      "EchoTime": 35.2,
      "EchoTrainLength": 106,
      "FlipAngle": 60.0,
      "HighBit": 15,
      "ImageOrientationPatient": [1.0, 0.0, 0.0, 0.0, 0.94088076873196, -0.3387379208627],
      "ImagePositionPatient": [-742.0, -721.45662190607, 242.28358645155],
      "ImageType": [
        "ORIGINAL",
        "PRIMARY",
        "M",
        "MB",
        "ND",
        "MOSAIC"
],
      "ImagedNucleus": "1H",
      "ImagingFrequency": 123.24362,
      "InPlanePhaseEncodingDirection": "COL",
      "MRAcquisitionType": "2D",
      "MagneticFieldStrength": 3.0,
      "Manufacturer": "SIEMENS",
      "ManufacturerModelName": "Prisma",
      "Modality": "MR",
      "NominalInterval": 0,
      "NumberOfAverages": 1.0,
      "NumberOfPhaseEncodingSteps": 106,
      "PercentPhaseFieldOfView": 100.0,
      "PercentSampling": 100.0,
      "PerformedProcedureStepStartTime": "172739.912000",
      "PhotometricInterpretation": "MONOCHROME2",
      "PixelBandwidth": 2620.0,
      "PixelRepresentation": 0,
      "PixelSpacing": [2.0, 2.0],
      "ProtocolName": "func-bold_task-pRF_run-02",
      "RepetitionTime": 1000.0,
      "Rows": 742,
      "SAR": 0.06919963498169,
      "SamplesPerPixel": 1,
      "ScanOptions": [
        "FS",
        "EXT"
],
      "ScanningSequence": "EP",
      "SequenceName": "epfid2d1_106",
      "SequenceVariant": [
        "SK",
        "SS"
],
      "SeriesDescription": "func-bold_task-pRF_run-02",
      "SeriesNumber": 12,
      "SeriesTime": "182645.624000",
      "SliceLocation": -16.424749025399,
      "SliceThickness": 2.0,
      "SmallestImagePixelValue": 0,
      "SoftwareVersions": "syngo MR E11",
      "SpacingBetweenSlices": 2.0000000270211,
      "SpecificCharacterSet": "ISO_IR 100",
      "StudyID": "1",
      "StudyTime": "172739.802000",
      "TransmitCoilName": "Body",
      "VariableFlipAngleFlag": "N",
      "WindowCenterWidthExplanation": "Algo1",
      "dBdt": 0.0},
    "slices": {}
  },
  "time": {
    "samples": {
      "AcquisitionNumber": [1, 2, 3, 4, 5, 6, 7, 8, 9, 10, 11, 12, 13, 14, 15, 16, 17, 18, 19, 20, 21, 22, 23, 24, 25, 26, 27, 28, 29, 30, 31, 32, 33, 34, 35, 36, 37, 38, 39, 40, 41, 42, 43, 44, 45, 46, 47, 48, 49, 50, 51, 52, 53, 54, 55, 56, 57, 58, 59, 60, 61, 62, 63, 64, 65, 66, 67, 68, 69, 70, 71, 72, 73, 74, 75, 76, 77, 78, 79, 80, 81, 82, 83, 84, 85, 86, 87, 88, 89, 90, 91, 92, 93, 94, 95, 96, 97, 98, 99, 100, 101, 102, 103, 104, 105, 106, 107, 108, 109, 110, 111, 112, 113, 114, 115, 116, 117, 118, 119, 120, 121, 122, 123, 124, 125, 126, 127, 128, 129, 130, 131, 132, 133, 134, 135, 136, 137, 138, 139, 140, 141, 142, 143, 144, 145, 146, 147, 148, 149, 150, 151, 152, 153, 154, 155, 156, 157, 158, 159, 160, 161, 162, 163, 164, 165, 166, 167, 168, 169, 170, 171, 172, 173, 174, 175, 176, 177, 178, 179, 180, 181, 182, 183, 184, 185, 186, 187, 188, 189, 190, 191, 192, 193, 194, 195, 196, 197, 198, 199, 200, 201, 202, 203, 204, 205, 206, 207, 208, 209, 210, 211, 212, 213, 214, 215, 216, 217, 218, 219, 220, 221, 222, 223, 224, 225, 226, 227, 228, 229, 230, 231, 232, 233, 234, 235, 236, 237, 238, 239, 240, 241, 242, 243, 244, 245, 246, 247, 248, 249, 250, 251, 252, 253, 254, 255, 256, 257, 258, 259, 260, 261, 262, 263, 264, 265, 266, 267, 268, 269, 270, 271, 272, 273, 274, 275, 276, 277, 278, 279, 280, 281, 282, 283, 284, 285, 286, 287, 288, 289, 290, 291, 292, 293, 294, 295, 296, 297, 298, 299, 300, 301, 302, 303, 304, 305, 306, 307, 308, 309, 310, 311, 312, 313, 314, 315, 316, 317, 318, 319, 320, 321, 322, 323, 324, 325, 326, 327, 328, 329, 330, 331, 332, 333, 334, 335, 336, 337, 338, 339, 340, 341, 342, 343, 344, 345, 346, 347, 348, 349, 350, 351, 352, 353, 354, 355, 356],
      "AcquisitionTime": ["182612.422500", "182613.422500", "182614.422500", "182615.422500", "182616.422500", "182617.422500", "182618.422500", "182619.422500", "182620.422500", "182621.422500", "182622.422500", "182623.422500", "182624.422500", "182625.422500", "182626.422500", "182627.422500", "182628.422500", "182629.422500", "182630.422500", "182631.422500", "182632.422500", "182633.422500", "182634.422500", "182635.422500", "182636.422500", "182637.422500", "182638.422500", "182639.422500", "182640.422500", "182641.422500", "182642.422500", "182643.422500", "182644.422500", "182645.422500", "182646.422500", "182647.422500", "182648.422500", "182649.422500", "182650.422500", "182651.422500", "182652.422500", "182653.422500", "182654.422500", "182655.422500", "182656.422500", "182657.422500", "182658.422500", "182659.422500", "182700.422500", "182701.422500", "182702.422500", "182703.422500", "182704.422500", "182705.422500", "182706.422500", "182707.422500", "182708.422500", "182709.422500", "182710.422500", "182711.422500", "182712.422500", "182713.422500", "182714.422500", "182715.422500", "182716.422500", "182717.422500", "182718.422500", "182719.422500", "182720.422500", "182721.422500", "182722.422500", "182723.422500", "182724.422500", "182725.422500", "182726.422500", "182727.422500", "182728.422500", "182729.422500", "182730.422500", "182731.422500", "182732.422500", "182733.422500", "182734.422500", "182735.422500", "182736.422500", "182737.422500", "182738.422500", "182739.422500", "182740.422500", "182741.422500", "182742.422500", "182743.422500", "182744.422500", "182745.422500", "182746.422500", "182747.422500", "182748.422500", "182749.422500", "182750.422500", "182751.422500", "182752.422500", "182753.422500", "182754.422500", "182755.422500", "182756.422500", "182757.422500", "182758.422500", "182759.422500", "182800.422500", "182801.422500", "182802.422500", "182803.422500", "182804.422500", "182805.422500", "182806.422500", "182807.422500", "182808.422500", "182809.422500", "182810.422500", "182811.422500", "182812.422500", "182813.422500", "182814.422500", "182815.422500", "182816.422500", "182817.422500", "182818.422500", "182819.422500", "182820.422500", "182821.422500", "182822.422500", "182823.422500", "182824.422500", "182825.422500", "182826.422500", "182827.422500", "182828.422500", "182829.422500", "182830.422500", "182831.422500", "182832.422500", "182833.422500", "182834.422500", "182835.422500", "182836.422500", "182837.422500", "182838.422500", "182839.422500", "182840.422500", "182841.422500", "182842.422500", "182843.422500", "182844.422500", "182845.422500", "182846.422500", "182847.422500", "182848.422500", "182849.422500", "182850.422500", "182851.422500", "182852.422500", "182853.422500", "182854.422500", "182855.422500", "182856.422500", "182857.422500", "182858.422500", "182859.422500", "182900.422500", "182901.422500", "182902.422500", "182903.422500", "182904.422500", "182905.422500", "182906.422500", "182907.422500", "182908.422500", "182909.422500", "182910.422500", "182911.422500", "182912.422500", "182913.422500", "182914.422500", "182915.422500", "182916.422500", "182917.422500", "182918.422500", "182919.422500", "182920.422500", "182921.422500", "182922.422500", "182923.422500", "182924.422500", "182925.422500", "182926.422500", "182927.422500", "182928.422500", "182929.422500", "182930.422500", "182931.422500", "182932.422500", "182933.422500", "182934.422500", "182935.422500", "182936.422500", "182937.422500", "182938.422500", "182939.422500", "182940.422500", "182941.422500", "182942.422500", "182943.422500", "182944.422500", "182945.422500", "182946.422500", "182947.422500", "182948.422500", "182949.422500", "182950.422500", "182951.422500", "182952.422500", "182953.422500", "182954.422500", "182955.422500", "182956.422500", "182957.422500", "182958.422500", "182959.422500", "183000.422500", "183001.422500", "183002.422500", "183003.422500", "183004.422500", "183005.422500", "183006.422500", "183007.422500", "183008.422500", "183009.422500", "183010.422500", "183011.422500", "183012.422500", "183013.422500", "183014.422500", "183015.422500", "183016.422500", "183017.422500", "183018.422500", "183019.422500", "183020.422500", "183021.422500", "183022.422500", "183023.422500", "183024.422500", "183025.422500", "183026.422500", "183027.422500", "183028.422500", "183029.422500", "183030.422500", "183031.422500", "183032.422500", "183033.422500", "183034.422500", "183035.422500", "183036.422500", "183037.422500", "183038.422500", "183039.422500", "183040.422500", "183041.422500", "183042.422500", "183043.422500", "183044.422500", "183045.422500", "183046.422500", "183047.422500", "183048.422500", "183049.422500", "183050.422500", "183051.422500", "183052.422500", "183053.422500", "183054.422500", "183055.422500", "183056.422500", "183057.422500", "183058.422500", "183059.422500", "183100.422500", "183101.422500", "183102.422500", "183103.422500", "183104.422500", "183105.422500", "183106.422500", "183107.422500", "183108.422500", "183109.422500", "183110.422500", "183111.422500", "183112.422500", "183113.422500", "183114.422500", "183115.422500", "183116.422500", "183117.422500", "183118.422500", "183119.422500", "183120.422500", "183121.422500", "183122.422500", "183123.422500", "183124.422500", "183125.422500", "183126.422500", "183127.422500", "183128.422500", "183129.422500", "183130.422500", "183131.422500", "183132.422500", "183133.422500", "183134.422500", "183135.422500", "183136.422500", "183137.422500", "183138.422500", "183139.422500", "183140.422500", "183141.422500", "183142.422500", "183143.422500", "183144.422500", "183145.422500", "183146.422500", "183147.422500", "183148.422500", "183149.422500", "183150.422500", "183151.422500", "183152.422500", "183153.422500", "183154.422500", "183155.422500", "183156.422500", "183157.422500", "183158.422500", "183159.422500", "183200.422500", "183201.422500", "183202.422500", "183203.422500", "183204.422500", "183205.422500", "183206.422500", "183207.422500"],
      "ContentTime": ["182645.626000", "182645.629000", "182645.632000", "182645.634000", "182645.637000", "182645.639000", "182645.642000", "182645.644000", "182645.647000", "182645.649000", "182645.652000", "182645.654000", "182645.657000", "182645.659000", "182645.662000", "182645.665000", "182645.667000", "182645.670000", "182645.673000", "182645.676000", "182645.678000", "182645.681000", "182645.684000", "182645.686000", "182645.689000", "182645.695000", "182645.697000", "182645.700000", "182645.702000", "182645.705000", "182645.708000", "182645.711000", "182705.584000", "182705.587000", "182705.590000", "182705.593000", "182705.595000", "182705.598000", "182705.600000", "182705.603000", "182705.605000", "182705.608000", "182705.610000", "182705.613000", "182705.615000", "182705.618000", "182705.621000", "182705.623000", "182705.626000", "182705.628000", "182705.631000", "182705.633000", "182725.585000", "182725.587000", "182725.593000", "182725.595000", "182725.598000", "182725.600000", "182725.603000", "182725.605000", "182725.608000", "182725.610000", "182725.613000", "182725.615000", "182725.618000", "182725.620000", "182725.623000", "182725.625000", "182725.628000", "182725.630000", "182725.633000", "182725.635000", "182745.584000", "182745.587000", "182745.590000", "182745.592000", "182745.595000", "182745.597000", "182745.599000", "182745.602000", "182745.604000", "182745.607000", "182745.609000", "182745.612000", "182745.614000", "182745.617000", "182745.619000", "182745.622000", "182745.624000", "182745.627000", "182745.629000", "182745.632000", "182805.584000", "182805.587000", "182805.590000", "182805.592000", "182805.595000", "182805.597000", "182805.600000", "182805.602000", "182805.605000", "182805.607000", "182805.610000", "182805.612000", "182805.615000", "182805.617000", "182805.627000", "182805.629000", "182805.632000", "182805.634000", "182805.637000", "182805.639000", "182825.583000", "182825.586000", "182825.589000", "182825.592000", "182825.594000", "182825.597000", "182825.600000", "182825.602000", "182825.605000", "182825.607000", "182825.610000", "182825.613000", "182825.616000", "182825.618000", "182825.621000", "182825.623000", "182825.626000", "182825.629000", "182825.631000", "182825.634000", "182845.584000", "182845.587000", "182845.590000", "182845.593000", "182845.595000", "182845.598000", "182845.601000", "182845.603000", "182845.606000", "182845.609000", "182845.611000", "182845.614000", "182845.616000", "182845.619000", "182845.622000", "182845.625000", "182845.627000", "182845.630000", "182845.632000", "182845.635000", "182905.585000", "182905.588000", "182905.590000", "182905.593000", "182905.595000", "182905.598000", "182905.601000", "182905.603000", "182905.606000", "182905.608000", "182905.611000", "182905.613000", "182905.616000", "182905.619000", "182905.621000", "182905.624000", "182905.626000", "182905.629000", "182905.632000", "182905.634000", "182925.584000", "182925.587000", "182925.590000", "182925.592000", "182925.595000", "182925.597000", "182925.600000", "182925.602000", "182925.605000", "182925.607000", "182925.610000", "182925.612000", "182925.615000", "182925.617000", "182925.620000", "182925.622000", "182925.625000", "182925.627000", "182925.630000", "182925.632000", "182945.584000", "182945.587000", "182945.589000", "182945.592000", "182945.594000", "182945.597000", "182945.599000", "182945.602000", "182945.604000", "182945.607000", "182945.609000", "182945.612000", "182945.614000", "182945.617000", "182945.619000", "182945.622000", "182945.624000", "182945.627000", "182945.629000", "182945.632000", "183005.584000", "183005.587000", "183005.589000", "183005.592000", "183005.594000", "183005.597000", "183005.599000", "183005.602000", "183005.604000", "183005.607000", "183005.609000", "183005.612000", "183005.614000", "183005.617000", "183005.619000", "183005.622000", "183005.624000", "183005.627000", "183005.643000", "183005.645000", "183025.584000", "183025.587000", "183025.590000", "183025.593000", "183025.596000", "183025.598000", "183025.601000", "183025.603000", "183025.606000", "183025.608000", "183025.611000", "183025.614000", "183025.616000", "183025.619000", "183025.622000", "183025.624000", "183025.627000", "183025.630000", "183025.632000", "183025.635000", "183045.583000", "183045.586000", "183045.589000", "183045.592000", "183045.594000", "183045.597000", "183045.600000", "183045.602000", "183045.605000", "183045.607000", "183045.610000", "183045.613000", "183045.615000", "183045.618000", "183045.621000", "183045.623000", "183045.625000", "183045.628000", "183045.630000", "183045.633000", "183105.585000", "183105.588000", "183105.591000", "183105.593000", "183105.596000", "183105.598000", "183105.601000", "183105.604000", "183105.606000", "183105.609000", "183105.611000", "183105.614000", "183105.617000", "183105.619000", "183105.622000", "183105.625000", "183105.627000", "183105.630000", "183105.633000", "183105.635000", "183125.584000", "183125.587000", "183125.590000", "183125.592000", "183125.595000", "183125.597000", "183125.600000", "183125.602000", "183125.605000", "183125.607000", "183125.610000", "183125.612000", "183125.615000", "183125.617000", "183125.620000", "183125.622000", "183125.625000", "183125.627000", "183125.630000", "183125.632000", "183145.584000", "183145.587000", "183145.590000", "183145.592000", "183145.594000", "183145.597000", "183145.599000", "183145.602000", "183145.604000", "183145.607000", "183145.609000", "183145.612000", "183145.615000", "183145.617000", "183145.620000", "183145.622000", "183145.625000", "183145.627000", "183145.630000", "183145.632000", "183205.584000", "183205.587000", "183205.590000", "183205.592000", "183205.595000", "183205.597000", "183205.600000", "183205.602000", "183205.605000", "183205.607000", "183205.610000", "183205.612000", "183205.615000", "183205.618000", "183205.620000", "183205.623000", "183205.625000", "183205.628000", "183205.630000", "183205.633000", "183209.316000", "183209.320000", "183209.323000", "183209.325000"],
      "InstanceCreationTime": ["182645.626000", "182645.629000", "182645.632000", "182645.634000", "182645.637000", "182645.639000", "182645.642000", "182645.644000", "182645.647000", "182645.649000", "182645.652000", "182645.654000", "182645.657000", "182645.659000", "182645.662000", "182645.665000", "182645.667000", "182645.670000", "182645.673000", "182645.676000", "182645.678000", "182645.681000", "182645.684000", "182645.686000", "182645.689000", "182645.695000", "182645.697000", "182645.700000", "182645.702000", "182645.705000", "182645.708000", "182645.711000", "182705.584000", "182705.587000", "182705.590000", "182705.593000", "182705.595000", "182705.598000", "182705.600000", "182705.603000", "182705.605000", "182705.608000", "182705.610000", "182705.613000", "182705.615000", "182705.618000", "182705.621000", "182705.623000", "182705.626000", "182705.628000", "182705.631000", "182705.633000", "182725.585000", "182725.587000", "182725.593000", "182725.595000", "182725.598000", "182725.600000", "182725.603000", "182725.605000", "182725.608000", "182725.610000", "182725.613000", "182725.615000", "182725.618000", "182725.620000", "182725.623000", "182725.625000", "182725.628000", "182725.630000", "182725.633000", "182725.635000", "182745.584000", "182745.587000", "182745.590000", "182745.592000", "182745.595000", "182745.597000", "182745.599000", "182745.602000", "182745.604000", "182745.607000", "182745.609000", "182745.612000", "182745.614000", "182745.617000", "182745.619000", "182745.622000", "182745.624000", "182745.627000", "182745.629000", "182745.632000", "182805.584000", "182805.587000", "182805.590000", "182805.592000", "182805.595000", "182805.597000", "182805.600000", "182805.602000", "182805.605000", "182805.607000", "182805.610000", "182805.612000", "182805.615000", "182805.617000", "182805.627000", "182805.629000", "182805.632000", "182805.634000", "182805.637000", "182805.639000", "182825.583000", "182825.586000", "182825.589000", "182825.592000", "182825.594000", "182825.597000", "182825.600000", "182825.602000", "182825.605000", "182825.607000", "182825.610000", "182825.613000", "182825.616000", "182825.618000", "182825.621000", "182825.623000", "182825.626000", "182825.629000", "182825.631000", "182825.634000", "182845.584000", "182845.587000", "182845.590000", "182845.593000", "182845.595000", "182845.598000", "182845.601000", "182845.603000", "182845.606000", "182845.609000", "182845.611000", "182845.614000", "182845.616000", "182845.619000", "182845.622000", "182845.625000", "182845.627000", "182845.630000", "182845.632000", "182845.635000", "182905.585000", "182905.588000", "182905.590000", "182905.593000", "182905.595000", "182905.598000", "182905.601000", "182905.603000", "182905.606000", "182905.608000", "182905.611000", "182905.613000", "182905.616000", "182905.619000", "182905.621000", "182905.624000", "182905.626000", "182905.629000", "182905.632000", "182905.634000", "182925.584000", "182925.587000", "182925.590000", "182925.592000", "182925.595000", "182925.597000", "182925.600000", "182925.602000", "182925.605000", "182925.607000", "182925.610000", "182925.612000", "182925.615000", "182925.617000", "182925.620000", "182925.622000", "182925.625000", "182925.627000", "182925.630000", "182925.632000", "182945.584000", "182945.587000", "182945.589000", "182945.592000", "182945.594000", "182945.597000", "182945.599000", "182945.602000", "182945.604000", "182945.607000", "182945.609000", "182945.612000", "182945.614000", "182945.617000", "182945.619000", "182945.622000", "182945.624000", "182945.627000", "182945.629000", "182945.632000", "183005.584000", "183005.587000", "183005.589000", "183005.592000", "183005.594000", "183005.597000", "183005.599000", "183005.602000", "183005.604000", "183005.607000", "183005.609000", "183005.612000", "183005.614000", "183005.617000", "183005.619000", "183005.622000", "183005.624000", "183005.627000", "183005.643000", "183005.645000", "183025.584000", "183025.587000", "183025.590000", "183025.593000", "183025.596000", "183025.598000", "183025.601000", "183025.603000", "183025.606000", "183025.608000", "183025.611000", "183025.614000", "183025.616000", "183025.619000", "183025.622000", "183025.624000", "183025.627000", "183025.630000", "183025.632000", "183025.635000", "183045.583000", "183045.586000", "183045.589000", "183045.592000", "183045.594000", "183045.597000", "183045.600000", "183045.602000", "183045.605000", "183045.607000", "183045.610000", "183045.613000", "183045.615000", "183045.618000", "183045.621000", "183045.623000", "183045.625000", "183045.628000", "183045.630000", "183045.633000", "183105.585000", "183105.588000", "183105.591000", "183105.593000", "183105.596000", "183105.598000", "183105.601000", "183105.604000", "183105.606000", "183105.609000", "183105.611000", "183105.614000", "183105.617000", "183105.619000", "183105.622000", "183105.625000", "183105.627000", "183105.630000", "183105.633000", "183105.635000", "183125.584000", "183125.587000", "183125.590000", "183125.592000", "183125.595000", "183125.597000", "183125.600000", "183125.602000", "183125.605000", "183125.607000", "183125.610000", "183125.612000", "183125.615000", "183125.617000", "183125.620000", "183125.622000", "183125.625000", "183125.627000", "183125.630000", "183125.632000", "183145.584000", "183145.587000", "183145.590000", "183145.592000", "183145.594000", "183145.597000", "183145.599000", "183145.602000", "183145.604000", "183145.607000", "183145.609000", "183145.612000", "183145.615000", "183145.617000", "183145.620000", "183145.622000", "183145.625000", "183145.627000", "183145.630000", "183145.632000", "183205.584000", "183205.587000", "183205.590000", "183205.592000", "183205.595000", "183205.597000", "183205.600000", "183205.602000", "183205.605000", "183205.607000", "183205.610000", "183205.612000", "183205.615000", "183205.618000", "183205.620000", "183205.623000", "183205.625000", "183205.628000", "183205.630000", "183205.633000", "183209.316000", "183209.320000", "183209.323000", "183209.325000"],
      "InstanceNumber": [1, 2, 3, 4, 5, 6, 7, 8, 9, 10, 11, 12, 13, 14, 15, 16, 17, 18, 19, 20, 21, 22, 23, 24, 25, 26, 27, 28, 29, 30, 31, 32, 33, 34, 35, 36, 37, 38, 39, 40, 41, 42, 43, 44, 45, 46, 47, 48, 49, 50, 51, 52, 53, 54, 55, 56, 57, 58, 59, 60, 61, 62, 63, 64, 65, 66, 67, 68, 69, 70, 71, 72, 73, 74, 75, 76, 77, 78, 79, 80, 81, 82, 83, 84, 85, 86, 87, 88, 89, 90, 91, 92, 93, 94, 95, 96, 97, 98, 99, 100, 101, 102, 103, 104, 105, 106, 107, 108, 109, 110, 111, 112, 113, 114, 115, 116, 117, 118, 119, 120, 121, 122, 123, 124, 125, 126, 127, 128, 129, 130, 131, 132, 133, 134, 135, 136, 137, 138, 139, 140, 141, 142, 143, 144, 145, 146, 147, 148, 149, 150, 151, 152, 153, 154, 155, 156, 157, 158, 159, 160, 161, 162, 163, 164, 165, 166, 167, 168, 169, 170, 171, 172, 173, 174, 175, 176, 177, 178, 179, 180, 181, 182, 183, 184, 185, 186, 187, 188, 189, 190, 191, 192, 193, 194, 195, 196, 197, 198, 199, 200, 201, 202, 203, 204, 205, 206, 207, 208, 209, 210, 211, 212, 213, 214, 215, 216, 217, 218, 219, 220, 221, 222, 223, 224, 225, 226, 227, 228, 229, 230, 231, 232, 233, 234, 235, 236, 237, 238, 239, 240, 241, 242, 243, 244, 245, 246, 247, 248, 249, 250, 251, 252, 253, 254, 255, 256, 257, 258, 259, 260, 261, 262, 263, 264, 265, 266, 267, 268, 269, 270, 271, 272, 273, 274, 275, 276, 277, 278, 279, 280, 281, 282, 283, 284, 285, 286, 287, 288, 289, 290, 291, 292, 293, 294, 295, 296, 297, 298, 299, 300, 301, 302, 303, 304, 305, 306, 307, 308, 309, 310, 311, 312, 313, 314, 315, 316, 317, 318, 319, 320, 321, 322, 323, 324, 325, 326, 327, 328, 329, 330, 331, 332, 333, 334, 335, 336, 337, 338, 339, 340, 341, 342, 343, 344, 345, 346, 347, 348, 349, 350, 351, 352, 353, 354, 355, 356],
      "LargestImagePixelValue": [13788, 13078, 13108, 13322, 13018, 12996, 13229, 13318, 12806, 12786, 13150, 13007, 12773, 13270, 13213, 13007, 13239, 13354, 13035, 12868, 13142, 12804, 12805, 13102, 12978, 12837, 13128, 13422, 12898, 12925, 13610, 13480, 13437, 13471, 13549, 13371, 13594, 13498, 13533, 13597, 13520, 13500, 13396, 13718, 13619, 13547, 13756, 13576, 13390, 13592, 13501, 13395, 13538, 13323, 13348, 13339, 13371, 13443, 13456, 13457, 13384, 12954, 13377, 13467, 13478, 13546, 13602, 13718, 13529, 13598, 13569, 13362, 13514, 13546, 13547, 13635, 13613, 13643, 13692, 13737, 13819, 13598, 13520, 13476, 13514, 13608, 13509, 13504, 13617, 13520, 13574, 13515, 13446, 13599, 13695, 13581, 13718, 13747, 13755, 13871, 13786, 13780, 13758, 13802, 13646, 13652, 13591, 13464, 13571, 13476, 13239, 13445, 13335, 13170, 13231, 13255, 13398, 13373, 13355, 13518, 13450, 13354, 13610, 13713, 13652, 13627, 13603, 13607, 13800, 13607, 13647, 13525, 13526, 13451, 13706, 13629, 13640, 13479, 13684, 13720, 13637, 13844, 13885, 13751, 13934, 13925, 13762, 13836, 13777, 13802, 13928, 13857, 13779, 13637, 13721, 13620, 13517, 13511, 13479, 13190, 13232, 13327, 13539, 13506, 13625, 13529, 13354, 13372, 13426, 13499, 13617, 13673, 13888, 13669, 13792, 13791, 13701, 13620, 13656, 13621, 13548, 13615, 13544, 13436, 13648, 13686, 13454, 13502, 13586, 13532, 13657, 13685, 13587, 13707, 13785, 13721, 13788, 13798, 13743, 13643, 13737, 13922, 13741, 13757, 13638, 13625, 13474, 13502, 13524, 13494, 13381, 13480, 13456, 13402, 13424, 13248, 12743, 12740, 12958, 13467, 13446, 13328, 13321, 13516, 13414, 13551, 13418, 13468, 13692, 13553, 13623, 13631, 13380, 13092, 13388, 13406, 13470, 13647, 13668, 13605, 13665, 13544, 13799, 13774, 13781, 13809, 13622, 13626, 13367, 13509, 13663, 13351, 13263, 13384, 13463, 13066, 13228, 13044, 12961, 13426, 13399, 13363, 13428, 13380, 13350, 13254, 13239, 12831, 13097, 13388, 13402, 13629, 13755, 13751, 13358, 13493, 13537, 13326, 13210, 13605, 13314, 13342, 13590, 13399, 12994, 13276, 13300, 13157, 13327, 13286, 13215, 13255, 13481, 13269, 13413, 13518, 13265, 13172, 12920, 12846, 13255, 13057, 13175, 12991, 13089, 13634, 13430, 13091, 13324, 13714, 13192, 13355, 13604, 13627, 13205, 13494, 13224, 13296, 13429, 13283, 13237, 13557, 13389, 13345, 13739, 13534, 13240, 13718, 13585, 13122, 13507, 13444, 13315, 13075, 13428, 13151, 13097, 13166, 13050, 12744, 13351, 13503, 13050, 13167, 13341, 13411, 13058, 13631, 13621, 13274, 13315, 13585, 13359, 13182, 13439, 13167],
