{
  "AcquisitionMatrixPE": 106,
  "AcquisitionNumber": 1,
  "AcquisitionTime": "18:49:57.280000",
  "BandwidthPerPixelPhaseEncode": 13.477,
  "BaseResolution": 106,
  "BodyPartExamined": "BRAIN",
  "CoilCombinationMethod": "Sum of Squares",
  "ConsistencyInfo": "N4_VE11C_LATEST_20160120",
  "ConversionSoftware": "dcm2niix",
  "ConversionSoftwareVersion": "v1.0.20220720",
  "DerivedVendorReportedEchoSpacing": 0.000700005,
  "DeviceSerialNumber": "166108",
  "DwellTime": 2.6e-06,
  "EchoTime": 0.03,
  "EchoTrainLength": 80,
  "EffectiveEchoSpacing": 0.000700005,
  "FlipAngle": 62,
  "HeudiconvVersion": "1.3.0",
  "ImageComments": "Unaliased MB4/PE3/LB",
  "ImageOrientationPatientDICOM": [1, 0, 0, 0, 0.924546, -0.38107],
  "ImageOrientationText": "Tra>Cor(-22.4)",
  "ImageType": [
    "ORIGINAL",
    "PRIMARY",
    "M",
    "MB",
    "ND",
    "MOSAIC"
],
  "ImagingFrequency": 123.244,
  "InPlanePhaseEncodingDirectionDICOM": "COL",
  "InstitutionAddress": "Bedford Way 26,London,London,GB,WC1H 0AP",
  "InstitutionName": "University College",
  "InstitutionalDepartmentName": "Department",
  "MRAcquisitionType": "2D",
  "MagneticFieldStrength": 3,
  "Manufacturer": "Siemens",
  "ManufacturersModelName": "Prisma",
  "MatrixCoilMode": "SENSE",
  "Modality": "MR",
  "MultibandAccelerationFactor": 4,
  "NonlinearGradientCorrection": false,
  "PartialFourier": 0.75,
  "PatientPosition": "HFS",
  "PercentPhaseFOV": 100,
  "PercentSampling": 100,
  "PhaseEncodingDirection": "j-",
  "PhaseEncodingSteps": 80,
  "PhaseResolution": 1,
  "PixelBandwidth": 1815,
  "ProcedureStepDescription": "Egor^MovieProject2",
  "ProtocolName": "func-bold_task-tono_run-02",
  "PulseSequenceDetails": "%CustomerSeq%\\cmrr_mbep2d_bold",
  "ReceiveCoilActiveElements": "HEA;HEP",
  "ReceiveCoilName": "Head_32",
  "ReconMatrixPE": 106,
  "RepetitionTime": 1,
  "SAR": 0.0385021,
  "ScanOptions": "PFP\\FS\\EXT",
  "ScanningSequence": "EP",
  "SequenceName": "epfid2d1_106",
  "SequenceVariant": "SK\\SS",
  "SeriesDescription": "func-bold_task-tono_run-02",
  "SeriesNumber": 20,
  "ShimSetting": [-1531, 665, 7454, 571, -48, 164, 274, -81],
  "SliceThickness": 2,
  "SliceTiming": [0, 0.535, 0.09, 0.625, 0.18, 0.7125, 0.2675, 0.8025, 0.3575, 0.8925, 0.4475, 0, 0.535, 0.09, 0.625, 0.18, 0.7125, 0.2675, 0.8025, 0.3575, 0.8925, 0.4475, 0, 0.535, 0.09, 0.625, 0.18, 0.7125, 0.2675, 0.8025, 0.3575, 0.8925, 0.4475, 0, 0.535, 0.09, 0.625, 0.18, 0.7125, 0.2675, 0.8025, 0.3575, 0.8925, 0.4475],
  "SoftwareVersions": "syngo MR E11",
  "SpacingBetweenSlices": 2,
  "StationName": "AWP166108",
  "TaskName": "tonotopy",
  "TotalReadoutTime": 0.0735005,
  "TxRefAmp": 228.174,
  "WipMemBlock": "e8035439-df8c-437e-963a-166a7f050d0f||Sequence: R016 ve11c/master r/e634e98; Dec 19 2017 11:00:25 by eja",
  "dcmmeta_affine": [
    [-2.0, 0.0, 0.0, 106.0],
    [0.0, 1.8490921258926392, -0.762140691280365, -61.32360076904297],
    [0.0, 0.762140691280365, 1.8490920066833496, -58.08617401123047],
    [0.0, 0.0, 0.0, 1.0]
],
  "dcmmeta_reorient_transform": [
    [0.0, -1.0, 0.0, 105.0],
    [1.0, 0.0, 0.0, 0.0],
    [0.0, 0.0, 1.0, 0.0],
    [0.0, 0.0, 0.0, 1.0]
],
  "dcmmeta_shape": [106, 106, 44, 264],
  "dcmmeta_slice_dim": 2,
  "dcmmeta_version": 0.6,
  "global": {
    "const": {
      "AcquisitionMatrix": [106, 0, 0, 106],
      "AngioFlag": "N",
      "BitsAllocated": 16,
      "BitsStored": 16,
      "BodyPartExamined": "BRAIN",
      "CardiacNumberOfImages": 1,
      "Columns": 742,
      "EchoNumbers": 1,
      "EchoTime": 30.0,
      "EchoTrainLength": 80,
      "FlipAngle": 62.0,
      "HighBit": 15,
      "ImageOrientationPatient": [1.0, 0.0, 0.0, 0.0, 0.92454604321905, -0.3810703530426],
      "ImagePositionPatient": [-742.0, -720.84235336907, 264.29934317769],
      "ImageType": [
        "ORIGINAL",
        "PRIMARY",
        "M",
        "MB",
        "ND",
        "MOSAIC"
],
      "ImagedNucleus": "1H",
      "ImagingFrequency": 123.243627,
      "InPlanePhaseEncodingDirection": "COL",
      "MRAcquisitionType": "2D",
      "MagneticFieldStrength": 3.0,
      "Manufacturer": "SIEMENS",
      "ManufacturerModelName": "Prisma",
      "Modality": "MR",
      "NominalInterval": 0,
      "NumberOfAverages": 1.0,
      "NumberOfPhaseEncodingSteps": 80,
      "PercentPhaseFieldOfView": 100.0,
      "PercentSampling": 100.0,
      "PerformedProcedureStepStartTime": "172739.912000",
      "PhotometricInterpretation": "MONOCHROME2",
      "PixelBandwidth": 1815.0,
      "PixelRepresentation": 0,
      "PixelSpacing": [2.0, 2.0],
      "ProtocolName": "func-bold_task-tono_run-02",
      "RepetitionTime": 1000.0,
      "Rows": 742,
      "SAR": 0.03850205206271,
      "SamplesPerPixel": 1,
      "ScanOptions": [
        "PFP",
        "FS",
        "EXT"
],
      "ScanningSequence": "EP",
      "SequenceName": "epfid2d1_106",
      "SequenceVariant": [
        "SK",
        "SS"
],
      "SeriesDescription": "func-bold_task-tono_run-02",
      "SeriesNumber": 20,
      "SeriesTime": "185031.654000",
      "SliceLocation": -30.334738126072,
      "SliceThickness": 2.0,
      "SmallestImagePixelValue": 0,
      "SoftwareVersions": "syngo MR E11",
      "SpacingBetweenSlices": 1.9999999719796,
      "SpecificCharacterSet": "ISO_IR 100",
      "StudyID": "1",
      "StudyTime": "172739.802000",
      "TransmitCoilName": "Body",
      "VariableFlipAngleFlag": "N",
      "WindowCenterWidthExplanation": "Algo1",
      "dBdt": 0.0},
    "slices": {}
  },
  "time": {
    "samples": {
      "AcquisitionNumber": [1, 2, 3, 4, 5, 6, 7, 8, 9, 10, 11, 12, 13, 14, 15, 16, 17, 18, 19, 20, 21, 22, 23, 24, 25, 26, 27, 28, 29, 30, 31, 32, 33, 34, 35, 36, 37, 38, 39, 40, 41, 42, 43, 44, 45, 46, 47, 48, 49, 50, 51, 52, 53, 54, 55, 56, 57, 58, 59, 60, 61, 62, 63, 64, 65, 66, 67, 68, 69, 70, 71, 72, 73, 74, 75, 76, 77, 78, 79, 80, 81, 82, 83, 84, 85, 86, 87, 88, 89, 90, 91, 92, 93, 94, 95, 96, 97, 98, 99, 100, 101, 102, 103, 104, 105, 106, 107, 108, 109, 110, 111, 112, 113, 114, 115, 116, 117, 118, 119, 120, 121, 122, 123, 124, 125, 126, 127, 128, 129, 130, 131, 132, 133, 134, 135, 136, 137, 138, 139, 140, 141, 142, 143, 144, 145, 146, 147, 148, 149, 150, 151, 152, 153, 154, 155, 156, 157, 158, 159, 160, 161, 162, 163, 164, 165, 166, 167, 168, 169, 170, 171, 172, 173, 174, 175, 176, 177, 178, 179, 180, 181, 182, 183, 184, 185, 186, 187, 188, 189, 190, 191, 192, 193, 194, 195, 196, 197, 198, 199, 200, 201, 202, 203, 204, 205, 206, 207, 208, 209, 210, 211, 212, 213, 214, 215, 216, 217, 218, 219, 220, 221, 222, 223, 224, 225, 226, 227, 228, 229, 230, 231, 232, 233, 234, 235, 236, 237, 238, 239, 240, 241, 242, 243, 244, 245, 246, 247, 248, 249, 250, 251, 252, 253, 254, 255, 256, 257, 258, 259, 260, 261, 262, 263, 264],
      "AcquisitionTime": ["184957.280000", "184958.280000", "184959.280000", "185000.280000", "185001.280000", "185002.280000", "185003.280000", "185004.280000", "185005.280000", "185006.280000", "185007.280000", "185008.280000", "185009.280000", "185010.280000", "185011.280000", "185012.280000", "185013.280000", "185014.280000", "185015.280000", "185016.280000", "185017.280000", "185018.280000", "185019.280000", "185020.280000", "185021.280000", "185022.280000", "185023.280000", "185024.280000", "185025.280000", "185026.280000", "185027.280000", "185028.280000", "185029.280000", "185030.280000", "185031.280000", "185032.280000", "185033.280000", "185034.280000", "185035.280000", "185036.280000", "185037.280000", "185038.280000", "185039.280000", "185040.280000", "185041.280000", "185042.280000", "185043.280000", "185044.280000", "185045.280000", "185046.280000", "185047.280000", "185048.280000", "185049.280000", "185050.280000", "185051.280000", "185052.280000", "185053.280000", "185054.280000", "185055.280000", "185056.280000", "185057.280000", "185058.280000", "185059.280000", "185100.280000", "185101.280000", "185102.280000", "185103.280000", "185104.280000", "185105.280000", "185106.280000", "185107.280000", "185108.280000", "185109.280000", "185110.280000", "185111.280000", "185112.280000", "185113.280000", "185114.280000", "185115.280000", "185116.280000", "185117.280000", "185118.280000", "185119.280000", "185120.280000", "185121.280000", "185122.280000", "185123.280000", "185124.280000", "185125.280000", "185126.280000", "185127.280000", "185128.280000", "185129.280000", "185130.280000", "185131.280000", "185132.280000", "185133.280000", "185134.280000", "185135.280000", "185136.280000", "185137.280000", "185138.280000", "185139.280000", "185140.280000", "185141.280000", "185142.280000", "185143.280000", "185144.280000", "185145.280000", "185146.280000", "185147.280000", "185148.280000", "185149.280000", "185150.280000", "185151.280000", "185152.280000", "185153.280000", "185154.280000", "185155.280000", "185156.280000", "185157.280000", "185158.280000", "185159.280000", "185200.280000", "185201.280000", "185202.280000", "185203.280000", "185204.280000", "185205.280000", "185206.280000", "185207.280000", "185208.280000", "185209.280000", "185210.280000", "185211.280000", "185212.280000", "185213.280000", "185214.280000", "185215.280000", "185216.280000", "185217.280000", "185218.280000", "185219.280000", "185220.280000", "185221.280000", "185222.280000", "185223.280000", "185224.280000", "185225.280000", "185226.280000", "185227.280000", "185228.280000", "185229.280000", "185230.280000", "185231.280000", "185232.280000", "185233.280000", "185234.280000", "185235.280000", "185236.280000", "185237.280000", "185238.280000", "185239.280000", "185240.280000", "185241.280000", "185242.280000", "185243.280000", "185244.280000", "185245.280000", "185246.280000", "185247.280000", "185248.280000", "185249.280000", "185250.280000", "185251.280000", "185252.280000", "185253.280000", "185254.280000", "185255.280000", "185256.280000", "185257.280000", "185258.280000", "185259.280000", "185300.280000", "185301.280000", "185302.280000", "185303.280000", "185304.280000", "185305.280000", "185306.280000", "185307.280000", "185308.280000", "185309.280000", "185310.280000", "185311.280000", "185312.280000", "185313.280000", "185314.280000", "185315.280000", "185316.280000", "185317.280000", "185318.280000", "185319.280000", "185320.280000", "185321.280000", "185322.280000", "185323.280000", "185324.280000", "185325.280000", "185326.280000", "185327.280000", "185328.280000", "185329.280000", "185330.280000", "185331.280000", "185332.280000", "185333.280000", "185334.280000", "185335.280000", "185336.280000", "185337.280000", "185338.280000", "185339.280000", "185340.280000", "185341.280000", "185342.280000", "185343.280000", "185344.280000", "185345.280000", "185346.280000", "185347.280000", "185348.280000", "185349.280000", "185350.280000", "185351.280000", "185352.280000", "185353.280000", "185354.280000", "185355.280000", "185356.280000", "185357.280000", "185358.280000", "185359.280000", "185400.280000", "185401.280000", "185402.280000", "185403.280000", "185404.280000", "185405.280000", "185406.280000", "185407.280000", "185408.280000", "185409.280000", "185410.280000", "185411.280000", "185412.280000", "185413.280000", "185414.280000", "185415.280000", "185416.280000", "185417.280000", "185418.280000", "185419.280000", "185420.280000"],
      "ContentTime": ["185031.657000", "185031.660000", "185031.664000", "185031.667000", "185031.669000", "185031.673000", "185031.676000", "185031.678000", "185031.681000", "185031.684000", "185031.686000", "185031.689000", "185031.691000", "185031.694000", "185031.696000", "185031.706000", "185031.709000", "185031.711000", "185031.714000", "185031.716000", "185031.719000", "185031.721000", "185031.724000", "185031.726000", "185031.729000", "185031.732000", "185031.734000", "185031.737000", "185031.739000", "185031.742000", "185031.744000", "185031.760000", "185031.762000", "185051.627000", "185051.630000", "185051.632000", "185051.635000", "185051.638000", "185051.640000", "185051.643000", "185051.645000", "185051.648000", "185051.650000", "185051.653000", "185051.655000", "185051.658000", "185051.660000", "185051.663000", "185051.666000", "185051.668000", "185051.671000", "185051.673000", "185051.675000", "185111.627000", "185111.630000", "185111.632000", "185111.635000", "185111.637000", "185111.640000", "185111.642000", "185111.644000", "185111.647000", "185111.650000", "185111.652000", "185111.655000", "185111.659000", "185111.662000", "185111.664000", "185111.667000", "185111.669000", "185111.672000", "185111.674000", "185111.677000", "185131.629000", "185131.631000", "185131.634000", "185131.636000", "185131.639000", "185131.641000", "185131.643000", "185131.646000", "185131.648000", "185131.651000", "185131.654000", "185131.657000", "185131.660000", "185131.662000", "185131.674000", "185131.677000", "185131.679000", "185131.682000", "185131.684000", "185131.687000", "185151.628000", "185151.631000", "185151.634000", "185151.636000", "185151.639000", "185151.641000", "185151.644000", "185151.646000", "185151.649000", "185151.651000", "185151.654000", "185151.657000", "185151.660000", "185151.663000", "185151.666000", "185151.669000", "185151.671000", "185151.674000", "185151.676000", "185151.679000", "185211.628000", "185211.631000", "185211.634000", "185211.636000", "185211.639000", "185211.641000", "185211.644000", "185211.646000", "185211.649000", "185211.652000", "185211.654000", "185211.657000", "185211.659000", "185211.662000", "185211.665000", "185211.669000", "185211.672000", "185211.674000", "185211.677000", "185211.680000", "185231.628000", "185231.631000", "185231.634000", "185231.637000", "185231.639000", "185231.642000", "185231.644000", "185231.647000", "185231.649000", "185231.652000", "185231.655000", "185231.657000", "185231.660000", "185231.663000", "185231.665000", "185231.668000", "185231.670000", "185231.673000", "185231.675000", "185231.677000", "185251.627000", "185251.630000", "185251.633000", "185251.635000", "185251.637000", "185251.640000", "185251.642000", "185251.645000", "185251.647000", "185251.650000", "185251.652000", "185251.655000", "185251.658000", "185251.660000", "185251.663000", "185251.666000", "185251.668000", "185251.671000", "185251.674000", "185251.676000", "185311.627000", "185311.630000", "185311.633000", "185311.635000", "185311.638000", "185311.641000", "185311.643000", "185311.646000", "185311.648000", "185311.651000", "185311.653000", "185311.656000", "185311.659000", "185311.662000", "185311.664000", "185311.667000", "185311.669000", "185311.672000", "185311.674000", "185311.677000", "185331.628000", "185331.631000", "185331.634000", "185331.636000", "185331.639000", "185331.641000", "185331.644000", "185331.646000", "185331.649000", "185331.652000", "185331.655000", "185331.657000", "185331.660000", "185331.663000", "185331.665000", "185331.668000", "185331.670000", "185331.673000", "185331.675000", "185331.678000", "185351.628000", "185351.631000", "185351.634000", "185351.636000", "185351.639000", "185351.642000", "185351.644000", "185351.647000", "185351.654000", "185351.657000", "185351.659000", "185351.662000", "185351.665000", "185351.667000", "185351.670000", "185351.672000", "185351.675000", "185351.678000", "185351.680000", "185351.683000", "185411.628000", "185411.631000", "185411.634000", "185411.636000", "185411.639000", "185411.641000", "185411.644000", "185411.646000", "185411.649000", "185411.651000", "185411.654000", "185411.656000", "185411.659000", "185411.662000", "185411.664000", "185411.667000", "185411.670000", "185411.673000", "185411.675000", "185411.678000", "185422.087000", "185422.091000", "185422.093000", "185422.097000", "185422.100000", "185422.103000", "185422.106000", "185422.109000", "185422.112000", "185422.124000", "185422.127000"],
      "InstanceCreationTime": ["185031.657000", "185031.660000", "185031.664000", "185031.667000", "185031.669000", "185031.673000", "185031.676000", "185031.678000", "185031.681000", "185031.684000", "185031.686000", "185031.689000", "185031.691000", "185031.694000", "185031.696000", "185031.706000", "185031.709000", "185031.711000", "185031.714000", "185031.716000", "185031.719000", "185031.721000", "185031.724000", "185031.726000", "185031.729000", "185031.732000", "185031.734000", "185031.737000", "185031.739000", "185031.742000", "185031.744000", "185031.760000", "185031.762000", "185051.627000", "185051.630000", "185051.632000", "185051.635000", "185051.638000", "185051.640000", "185051.643000", "185051.645000", "185051.648000", "185051.650000", "185051.653000", "185051.655000", "185051.658000", "185051.660000", "185051.663000", "185051.666000", "185051.668000", "185051.671000", "185051.673000", "185051.675000", "185111.627000", "185111.630000", "185111.632000", "185111.635000", "185111.637000", "185111.640000", "185111.642000", "185111.644000", "185111.647000", "185111.650000", "185111.652000", "185111.655000", "185111.659000", "185111.662000", "185111.664000", "185111.667000", "185111.669000", "185111.672000", "185111.674000", "185111.677000", "185131.629000", "185131.631000", "185131.634000", "185131.636000", "185131.639000", "185131.641000", "185131.643000", "185131.646000", "185131.648000", "185131.651000", "185131.654000", "185131.657000", "185131.660000", "185131.662000", "185131.674000", "185131.677000", "185131.679000", "185131.682000", "185131.684000", "185131.687000", "185151.628000", "185151.631000", "185151.634000", "185151.636000", "185151.639000", "185151.641000", "185151.644000", "185151.646000", "185151.649000", "185151.651000", "185151.654000", "185151.657000", "185151.660000", "185151.663000", "185151.666000", "185151.669000", "185151.671000", "185151.674000", "185151.676000", "185151.679000", "185211.628000", "185211.631000", "185211.634000", "185211.636000", "185211.639000", "185211.641000", "185211.644000", "185211.646000", "185211.649000", "185211.652000", "185211.654000", "185211.657000", "185211.659000", "185211.662000", "185211.665000", "185211.669000", "185211.672000", "185211.674000", "185211.677000", "185211.680000", "185231.628000", "185231.631000", "185231.634000", "185231.637000", "185231.639000", "185231.642000", "185231.644000", "185231.647000", "185231.649000", "185231.652000", "185231.655000", "185231.657000", "185231.660000", "185231.663000", "185231.665000", "185231.668000", "185231.670000", "185231.673000", "185231.675000", "185231.677000", "185251.627000", "185251.630000", "185251.633000", "185251.635000", "185251.637000", "185251.640000", "185251.642000", "185251.645000", "185251.647000", "185251.650000", "185251.652000", "185251.655000", "185251.658000", "185251.660000", "185251.663000", "185251.666000", "185251.668000", "185251.671000", "185251.674000", "185251.676000", "185311.627000", "185311.630000", "185311.633000", "185311.635000", "185311.638000", "185311.641000", "185311.643000", "185311.646000", "185311.648000", "185311.651000", "185311.653000", "185311.656000", "185311.659000", "185311.662000", "185311.664000", "185311.667000", "185311.669000", "185311.672000", "185311.674000", "185311.677000", "185331.628000", "185331.631000", "185331.634000", "185331.636000", "185331.639000", "185331.641000", "185331.644000", "185331.646000", "185331.649000", "185331.652000", "185331.655000", "185331.657000", "185331.660000", "185331.663000", "185331.665000", "185331.668000", "185331.670000", "185331.673000", "185331.675000", "185331.678000", "185351.628000", "185351.631000", "185351.634000", "185351.636000", "185351.639000", "185351.642000", "185351.644000", "185351.647000", "185351.654000", "185351.657000", "185351.659000", "185351.662000", "185351.665000", "185351.667000", "185351.670000", "185351.672000", "185351.675000", "185351.678000", "185351.680000", "185351.683000", "185411.628000", "185411.631000", "185411.634000", "185411.636000", "185411.639000", "185411.641000", "185411.644000", "185411.646000", "185411.649000", "185411.651000", "185411.654000", "185411.656000", "185411.659000", "185411.662000", "185411.664000", "185411.667000", "185411.670000", "185411.673000", "185411.675000", "185411.678000", "185422.087000", "185422.091000", "185422.093000", "185422.097000", "185422.100000", "185422.103000", "185422.106000", "185422.109000", "185422.112000", "185422.124000", "185422.127000"],
      "InstanceNumber": [1, 2, 3, 4, 5, 6, 7, 8, 9, 10, 11, 12, 13, 14, 15, 16, 17, 18, 19, 20, 21, 22, 23, 24, 25, 26, 27, 28, 29, 30, 31, 32, 33, 34, 35, 36, 37, 38, 39, 40, 41, 42, 43, 44, 45, 46, 47, 48, 49, 50, 51, 52, 53, 54, 55, 56, 57, 58, 59, 60, 61, 62, 63, 64, 65, 66, 67, 68, 69, 70, 71, 72, 73, 74, 75, 76, 77, 78, 79, 80, 81, 82, 83, 84, 85, 86, 87, 88, 89, 90, 91, 92, 93, 94, 95, 96, 97, 98, 99, 100, 101, 102, 103, 104, 105, 106, 107, 108, 109, 110, 111, 112, 113, 114, 115, 116, 117, 118, 119, 120, 121, 122, 123, 124, 125, 126, 127, 128, 129, 130, 131, 132, 133, 134, 135, 136, 137, 138, 139, 140, 141, 142, 143, 144, 145, 146, 147, 148, 149, 150, 151, 152, 153, 154, 155, 156, 157, 158, 159, 160, 161, 162, 163, 164, 165, 166, 167, 168, 169, 170, 171, 172, 173, 174, 175, 176, 177, 178, 179, 180, 181, 182, 183, 184, 185, 186, 187, 188, 189, 190, 191, 192, 193, 194, 195, 196, 197, 198, 199, 200, 201, 202, 203, 204, 205, 206, 207, 208, 209, 210, 211, 212, 213, 214, 215, 216, 217, 218, 219, 220, 221, 222, 223, 224, 225, 226, 227, 228, 229, 230, 231, 232, 233, 234, 235, 236, 237, 238, 239, 240, 241, 242, 243, 244, 245, 246, 247, 248, 249, 250, 251, 252, 253, 254, 255, 256, 257, 258, 259, 260, 261, 262, 263, 264],
      "LargestImagePixelValue": [12992, 12424, 12944, 13847, 12400, 12562, 12677, 12571, 13964, 13071, 12673, 12771, 12880, 12866, 12761, 12950, 12884, 12850, 13004, 12985, 13074, 13058, 13048, 12937, 13146, 13025, 12977, 13064, 12926, 12857, 13053, 12936, 12942, 13038, 12927, 12874, 13049, 12961, 12911, 13035, 12924, 12728, 12955, 12859, 12848, 13032, 12881, 12843, 13052, 12865, 12995, 12966, 12696, 12900, 12986, 12840, 12943, 12849, 12690, 12968, 12786, 12472, 12836, 12536, 12613, 12934, 12515, 12545, 13028, 12752, 12556, 12830, 12482, 12604, 12824, 12482, 12574, 12919, 12521, 12469, 12893, 12496, 12615, 12829, 12426, 12564, 12595, 12106, 12341, 12380, 11911, 12531, 12193, 11993, 12469, 12082, 12231, 12345, 12187, 12011, 12319, 12080, 12178, 12340, 12160, 12114, 12356, 12185, 12125, 12167, 12226, 12160, 12172, 12320, 12133, 12389, 12371, 12087, 12375, 12220, 12287, 12349, 12238, 12277, 12368, 12190, 12330, 12362, 12286, 12469, 12335, 12280, 12371, 12305, 12312, 12206, 12087, 12282, 12154, 12225, 12291, 12111, 12273, 12293, 11918, 12293, 12249, 12070, 12333, 12247, 12142, 12296, 12174, 12325, 12360, 12096, 12274, 12269, 12144, 12244, 12223, 12047, 12087, 12162, 11923, 12175, 12158, 12166, 12168, 11987, 12142, 12286, 12090, 12093, 12273, 12013, 12231, 12350, 12149, 12226, 12228, 11964, 12193, 12065, 12035, 12111, 11958, 12075, 12243, 12025, 12200, 12265, 11962, 12170, 12261, 12013, 12086, 12243, 11939, 12132, 12317, 11994, 12226, 12132, 11930, 12126, 12092, 12124, 12182, 12102, 12079, 12241, 12092, 12187, 12210, 12031, 12125, 12296, 12092, 12103, 12335, 11942, 12289, 12247, 11952, 12251, 12236, 12153, 12248, 11990, 11991, 12214, 11989, 11892, 12186, 11871, 12002, 12081, 12012, 11931, 12081, 11852, 11936, 12101, 11890, 12084, 12056, 11855, 12014, 12153, 12012, 11990, 12140, 12067, 12063, 11974, 11949, 11962, 12039, 11975, 11905, 11980, 12237, 12030],
      "TriggerTime": [8102.5, 9102.5, 10102.5, 11102.5, 12102.5, 13102.5, 14102.5, 15102.5, 16102.5, 17102.5, 18102.5, 19102.5, 20102.5, 21102.5, 22102.5, 23102.5, 24102.5, 25102.5, 26102.5, 27102.5, 28102.5, 29102.5, 30102.5, 31102.5, 32102.5, 33102.5, 34102.5, 35102.5, 36102.5, 37102.5, 38102.5, 39102.5, 40102.5, 41102.5, 42102.5, 43102.5, 44102.5, 45102.5, 46102.5, 47102.5, 48102.5, 49102.5, 50102.5, 51102.5, 52102.5, 53102.5, 54102.5, 55102.5, 56102.5, 57102.5, 58102.5, 59102.5, 60102.5, 61102.5, 62102.5, 63102.5, 64102.5, 65102.5, 66102.5, 67102.5, 68102.5, 69102.5, 70102.5, 71102.5, 72102.5, 73102.5, 74102.5, 75102.5, 76102.5, 77102.5, 78102.5, 79102.5, 80102.5, 81102.5, 82102.5, 83102.5, 84102.5, 85102.5, 86102.5, 87102.5, 88102.5, 89102.5, 90102.5, 91102.5, 92102.5, 93102.5, 94102.5, 95102.5, 96102.5, 97102.5, 98102.5, 99102.5, 100102.5, 101102.5, 102102.5, 103102.5, 104102.5, 105102.5, 106102.5, 107102.5, 108102.5, 109102.5, 110102.5, 111102.5, 112102.5, 113102.5, 114102.5, 115102.5, 116102.5, 117102.5, 118102.5, 119102.5, 120102.5, 121102.5, 122102.5, 123102.5, 124102.5, 125102.5, 126102.5, 127102.5, 128102.5, 129102.5, 130102.5, 131102.5, 132102.5, 133102.5, 134102.5, 135102.5, 136102.5, 137102.5, 138102.5, 139102.5, 140102.5, 141102.5, 142102.5, 143102.5, 144102.5, 145102.5, 146102.5, 147102.5, 148102.5, 149102.5, 150102.5, 151102.5, 152102.5, 153102.5, 154102.5, 155102.5, 156102.5, 157102.5, 158102.5, 159102.5, 160102.5, 161102.5, 162102.5, 163102.5, 164102.5, 165102.5, 166102.5, 167102.5, 168102.5, 169102.5, 170102.5, 171102.5, 172102.5, 173102.5, 174102.5, 175102.5, 176102.5, 177102.5, 178102.5, 179102.5, 180102.5, 181102.5, 182102.5, 183102.5, 184102.5, 185102.5, 186102.5, 187102.5, 188102.5, 189102.5, 190102.5, 191102.5, 192102.5, 193102.5, 194102.5, 195102.5, 196102.5, 197102.5, 198102.5, 199102.5, 200102.5, 201102.5, 202102.5, 203102.5, 204102.5, 205102.5, 206102.5, 207102.5, 208102.5, 209102.5, 210102.5, 211102.5, 212102.5, 213102.5, 214102.5, 215102.5, 216102.5, 217102.5, 218102.5, 219102.5, 220102.5, 221102.5, 222102.5, 223102.5, 224102.5, 225102.5, 226102.5, 227102.5, 228102.5, 229102.5, 230102.5, 231102.5, 232102.5, 233102.5, 234102.5, 235102.5, 236102.5, 237102.5, 238102.5, 239102.5, 240102.5, 241102.5, 242102.5, 243102.5, 244102.5, 245102.5, 246102.5, 247102.5, 248102.5, 249102.5, 250102.5, 251102.5, 252102.5, 253102.5, 254102.5, 255102.5, 256102.5, 257102.5, 258102.5, 259102.5, 260102.5, 261102.5, 262102.5, 263102.5, 264102.5, 265102.5, 266102.5, 267102.5, 268102.5, 269102.5, 270102.5, 271102.5],
      "WindowCenter": [4687.0, 4667.0, 4590.0, 4686.0, 4638.0, 4605.0, 4576.0, 4629.0, 4671.0, 4663.0, 4665.0, 4674.0, 4680.0, 4683.0, 4692.0, 4684.0, 4681.0, 4681.0, 4690.0, 4679.0, 4688.0, 4678.0, 4678.0, 4669.0, 4677.0, 4680.0, 4674.0, 4678.0, 4666.0, 4670.0, 4676.0, 4669.0, 4668.0, 4677.0, 4666.0, 4669.0, 4679.0, 4677.0, 4680.0, 4682.0, 4682.0, 4681.0, 4670.0, 4678.0, 4670.0, 4680.0, 4679.0, 4669.0, 4679.0, 4679.0, 4682.0, 4681.0, 4679.0, 4681.0, 4681.0, 4670.0, 4664.0, 4669.0, 4671.0, 4681.0, 4682.0, 4666.0, 4668.0, 4669.0, 4670.0, 4670.0, 4670.0, 4671.0, 4680.0, 4670.0, 4672.0, 4668.0, 4668.0, 4670.0, 4670.0, 4668.0, 4669.0, 4668.0, 4669.0, 4668.0, 4670.0, 4670.0, 4665.0, 4671.0, 4669.0, 4665.0, 4671.0, 4662.0, 4671.0, 4672.0, 4661.0, 4670.0, 4662.0, 4660.0, 4671.0, 4671.0, 4673.0, 4671.0, 4661.0, 4660.0, 4660.0, 4662.0, 4658.0, 4665.0, 4658.0, 4661.0, 4669.0, 4660.0, 4658.0, 4662.0, 4657.0, 4660.0, 4661.0, 4669.0, 4662.0, 4669.0, 4671.0, 4660.0, 4671.0, 4662.0, 4658.0, 4669.0, 4662.0, 4661.0, 4669.0, 4661.0, 4670.0, 4671.0, 4662.0, 4671.0, 4667.0, 4665.0, 4670.0, 4672.0, 4672.0, 4663.0, 4663.0, 4668.0, 4663.0, 4660.0, 4658.0, 4670.0, 4670.0, 4669.0, 4660.0, 4661.0, 4669.0, 4663.0, 4674.0, 4662.0, 4657.0, 4658.0, 4662.0, 4658.0, 4667.0, 4660.0, 4662.0, 4650.0, 4658.0, 4660.0, 4661.0, 4662.0, 4660.0, 4660.0, 4654.0, 4661.0, 4659.0, 4655.0, 4662.0, 4651.0, 4661.0, 4661.0, 4661.0, 4659.0, 4660.0, 4662.0, 4661.0, 4671.0, 4662.0, 4661.0, 4656.0, 4654.0, 4650.0, 4652.0, 4660.0, 4659.0, 4645.0, 4663.0, 4660.0, 4658.0, 4660.0, 4649.0, 4649.0, 4661.0, 4649.0, 4648.0, 4649.0, 4646.0, 4648.0, 4660.0, 4661.0, 4650.0, 4659.0, 4656.0, 4651.0, 4661.0, 4659.0, 4663.0, 4660.0, 4659.0, 4658.0, 4661.0, 4661.0, 4662.0, 4658.0, 4661.0, 4665.0, 4662.0, 4658.0, 4663.0, 4661.0, 4655.0, 4664.0, 4663.0, 4651.0, 4663.0, 4663.0, 4651.0, 4659.0, 4653.0, 4652.0, 4652.0, 4651.0, 4637.0, 4649.0, 4636.0, 4650.0, 4649.0, 4649.0, 4650.0, 4652.0, 4642.0, 4650.0, 4649.0, 4651.0, 4653.0, 4651.0, 4638.0, 4636.0, 4650.0, 4652.0, 4634.0, 4644.0, 4653.0, 4650.0, 4646.0, 4640.0, 4637.0, 4650.0, 4640.0, 4642.0, 4639.0, 4645.0, 4648.0],
