{
  "AcquisitionMatrixPE": 106,
  "AcquisitionNumber": 1,
  "AcquisitionTime": "18:33:0.625000",
  "BandwidthPerPixelPhaseEncode": 13.477,
  "BaseResolution": 106,
  "BodyPartExamined": "BRAIN",
  "CoilCombinationMethod": "Sum of Squares",
  "ConsistencyInfo": "N4_VE11C_LATEST_20160120",
  "ConversionSoftware": "dcm2niix",
  "ConversionSoftwareVersion": "v1.0.20220720",
  "DerivedVendorReportedEchoSpacing": 0.000700005,
  "DeviceSerialNumber": "166108",
  "DwellTime": 2.6e-06,
  "EchoTime": 0.03,
  "EchoTrainLength": 80,
  "EffectiveEchoSpacing": 0.000700005,
  "FlipAngle": 62,
  "HeudiconvVersion": "1.3.0",
  "ImageComments": "Unaliased MB4/PE3/LB",
  "ImageOrientationPatientDICOM": [1, 0, 0, 0, 0.992757, -0.120137],
  "ImageOrientationText": "Tra>Cor(-6.9)",
  "ImageType": [
    "ORIGINAL",
    "PRIMARY",
    "M",
    "MB",
    "ND",
    "MOSAIC"
],
  "ImagingFrequency": 123.244,
  "InPlanePhaseEncodingDirectionDICOM": "COL",
  "InstitutionAddress": "Bedford Way 26,London,London,GB,WC1H 0AP",
  "InstitutionName": "University College",
  "InstitutionalDepartmentName": "Department",
  "MRAcquisitionType": "2D",
  "MagneticFieldStrength": 3,
  "Manufacturer": "Siemens",
  "ManufacturersModelName": "Prisma",
  "MatrixCoilMode": "SENSE",
  "Modality": "MR",
  "MultibandAccelerationFactor": 4,
  "NonlinearGradientCorrection": false,
  "PartialFourier": 0.75,
  "PatientPosition": "HFS",
  "PercentPhaseFOV": 100,
  "PercentSampling": 100,
  "PhaseEncodingDirection": "j-",
  "PhaseEncodingSteps": 80,
  "PhaseResolution": 1,
  "PixelBandwidth": 1815,
  "ProcedureStepDescription": "Egor^MovieProject2",
  "ProtocolName": "func-bold_task-motor_run-02",
  "PulseSequenceDetails": "%CustomerSeq%\\cmrr_mbep2d_bold",
  "ReceiveCoilActiveElements": "HEA;HEP",
  "ReceiveCoilName": "Head_32",
  "ReconMatrixPE": 106,
  "RepetitionTime": 1,
  "SAR": 0.0405887,
  "ScanOptions": "PFP\\FS\\EXT",
  "ScanningSequence": "EP",
  "SequenceName": "epfid2d1_106",
  "SequenceVariant": "SK\\SS",
  "SeriesDescription": "func-bold_task-motor_run-02",
  "SeriesNumber": 4,
  "ShimSetting": [-1537, 579, 7373, 115, -94, -14, 250, -32],
  "SliceThickness": 2,
  "SliceTiming": [0, 0.535, 0.0875, 0.6225, 0.1775, 0.7125, 0.2675, 0.8, 0.355, 0.89, 0.445, 0, 0.535, 0.0875, 0.6225, 0.1775, 0.7125, 0.2675, 0.8, 0.355, 0.89, 0.445, 0, 0.535, 0.0875, 0.6225, 0.1775, 0.7125, 0.2675, 0.8, 0.355, 0.89, 0.445, 0, 0.535, 0.0875, 0.6225, 0.1775, 0.7125, 0.2675, 0.8, 0.355, 0.89, 0.445],
  "SoftwareVersions": "syngo MR E11",
  "SpacingBetweenSlices": 2,
  "StationName": "AWP166108",
  "TaskName": "somatotopy",
  "TotalReadoutTime": 0.0735005,
  "TxRefAmp": 243.192,
  "WipMemBlock": "782a0363-bf93-4cae-ab2a-c4a19a4be395||Sequence: R016 ve11c/master r/e634e98; Dec 19 2017 11:00:25 by eja",
  "dcmmeta_affine": [
    [-2.0, 0.0, 0.0, 106.0],
    [0.0, 1.9855146408081055, -0.24027368426322937, -97.52687072753906],
    [0.0, 0.24027368426322937, 1.9855146408081055, -17.226755142211914],
    [0.0, 0.0, 0.0, 1.0]
],
  "dcmmeta_reorient_transform": [
    [0.0, -1.0, 0.0, 105.0],
    [1.0, 0.0, 0.0, 0.0],
    [0.0, 0.0, 1.0, 0.0],
    [0.0, 0.0, 0.0, 1.0]
],
  "dcmmeta_shape": [106, 106, 44, 469],
  "dcmmeta_slice_dim": 2,
  "dcmmeta_version": 0.6,
  "global": {
    "const": {
      "AcquisitionMatrix": [106, 0, 0, 106],
      "AngioFlag": "N",
      "BitsAllocated": 16,
      "BitsStored": 16,
      "BodyPartExamined": "BRAIN",
      "CardiacNumberOfImages": 1,
      "Columns": 742,
      "EchoNumbers": 1,
      "EchoTime": 30.0,
      "EchoTrainLength": 80,
      "FlipAngle": 62.0,
      "HighBit": 15,
      "ImageOrientationPatient": [1.0, 0.0, 0.0, 0.0, 0.99275734119381, -0.1201368449136],
      "ImagePositionPatient": [-742.0, -742.34583823713, 84.409016438258],
      "ImageType": [
        "ORIGINAL",
        "PRIMARY",
        "M",
        "MB",
        "ND",
        "MOSAIC"
],
      "ImagedNucleus": "1H",
      "ImagingFrequency": 123.243626,
      "InPlanePhaseEncodingDirection": "COL",
      "MRAcquisitionType": "2D",
      "MagneticFieldStrength": 3.0,
      "Manufacturer": "SIEMENS",
      "ManufacturerModelName": "Prisma",
      "Modality": "MR",
      "NominalInterval": 0,
      "NumberOfAverages": 1.0,
      "NumberOfPhaseEncodingSteps": 80,
      "PercentPhaseFieldOfView": 100.0,
      "PercentSampling": 100.0,
      "PerformedProcedureStepStartTime": "180500.288000",
      "PhotometricInterpretation": "MONOCHROME2",
      "PixelBandwidth": 1815.0,
      "PixelRepresentation": 0,
      "PixelSpacing": [2.0, 2.0],
      "ProtocolName": "func-bold_task-motor_run-02",
      "RepetitionTime": 1000.0,
      "Rows": 742,
      "SAR": 0.04058870456431,
      "SamplesPerPixel": 1,
      "ScanOptions": [
        "PFP",
        "FS",
        "EXT"
],
      "ScanningSequence": "EP",
      "SequenceName": "epfid2d1_106",
      "SequenceVariant": [
        "SK",
        "SS"
],
      "SeriesDescription": "func-bold_task-motor_run-02",
      "SeriesNumber": 4,
      "SeriesTime": "183332.198000",
      "SliceLocation": -5.3854161085276,
      "SliceThickness": 2.0,
      "SmallestImagePixelValue": 0,
      "SoftwareVersions": "syngo MR E11",
      "SpacingBetweenSlices": 1.9999999693119,
      "SpecificCharacterSet": "ISO_IR 100",
      "StudyID": "1",
      "StudyTime": "180500.189000",
      "TransmitCoilName": "Body",
      "VariableFlipAngleFlag": "N",
      "WindowCenterWidthExplanation": "Algo1",
      "dBdt": 0.0},
    "slices": {}
  },
  "time": {
    "samples": {
      "AcquisitionNumber": [1, 2, 3, 4, 5, 6, 7, 8, 9, 10, 11, 12, 13, 14, 15, 16, 17, 18, 19, 20, 21, 22, 23, 24, 25, 26, 27, 28, 29, 30, 31, 32, 33, 34, 35, 36, 37, 38, 39, 40, 41, 42, 43, 44, 45, 46, 47, 48, 49, 50, 51, 52, 53, 54, 55, 56, 57, 58, 59, 60, 61, 62, 63, 64, 65, 66, 67, 68, 69, 70, 71, 72, 73, 74, 75, 76, 77, 78, 79, 80, 81, 82, 83, 84, 85, 86, 87, 88, 89, 90, 91, 92, 93, 94, 95, 96, 97, 98, 99, 100, 101, 102, 103, 104, 105, 106, 107, 108, 109, 110, 111, 112, 113, 114, 115, 116, 117, 118, 119, 120, 121, 122, 123, 124, 125, 126, 127, 128, 129, 130, 131, 132, 133, 134, 135, 136, 137, 138, 139, 140, 141, 142, 143, 144, 145, 146, 147, 148, 149, 150, 151, 152, 153, 154, 155, 156, 157, 158, 159, 160, 161, 162, 163, 164, 165, 166, 167, 168, 169, 170, 171, 172, 173, 174, 175, 176, 177, 178, 179, 180, 181, 182, 183, 184, 185, 186, 187, 188, 189, 190, 191, 192, 193, 194, 195, 196, 197, 198, 199, 200, 201, 202, 203, 204, 205, 206, 207, 208, 209, 210, 211, 212, 213, 214, 215, 216, 217, 218, 219, 220, 221, 222, 223, 224, 225, 226, 227, 228, 229, 230, 231, 232, 233, 234, 235, 236, 237, 238, 239, 240, 241, 242, 243, 244, 245, 246, 247, 248, 249, 250, 251, 252, 253, 254, 255, 256, 257, 258, 259, 260, 261, 262, 263, 264, 265, 266, 267, 268, 269, 270, 271, 272, 273, 274, 275, 276, 277, 278, 279, 280, 281, 282, 283, 284, 285, 286, 287, 288, 289, 290, 291, 292, 293, 294, 295, 296, 297, 298, 299, 300, 301, 302, 303, 304, 305, 306, 307, 308, 309, 310, 311, 312, 313, 314, 315, 316, 317, 318, 319, 320, 321, 322, 323, 324, 325, 326, 327, 328, 329, 330, 331, 332, 333, 334, 335, 336, 337, 338, 339, 340, 341, 342, 343, 344, 345, 346, 347, 348, 349, 350, 351, 352, 353, 354, 355, 356, 357, 358, 359, 360, 361, 362, 363, 364, 365, 366, 367, 368, 369, 370, 371, 372, 373, 374, 375, 376, 377, 378, 379, 380, 381, 382, 383, 384, 385, 386, 387, 388, 389, 390, 391, 392, 393, 394, 395, 396, 397, 398, 399, 400, 401, 402, 403, 404, 405, 406, 407, 408, 409, 410, 411, 412, 413, 414, 415, 416, 417, 418, 419, 420, 421, 422, 423, 424, 425, 426, 427, 428, 429, 430, 431, 432, 433, 434, 435, 436, 437, 438, 439, 440, 441, 442, 443, 444, 445, 446, 447, 448, 449, 450, 451, 452, 453, 454, 455, 456, 457, 458, 459, 460, 461, 462, 463, 464, 465, 466, 467, 468, 469],
      "AcquisitionTime": ["183300.625000", "183301.625000", "183302.625000", "183303.625000", "183304.625000", "183305.625000", "183306.625000", "183307.625000", "183308.625000", "183309.625000", "183310.625000", "183311.625000", "183312.625000", "183313.625000", "183314.625000", "183315.625000", "183316.625000", "183317.625000", "183318.625000", "183319.625000", "183320.625000", "183321.625000", "183322.625000", "183323.625000", "183324.625000", "183325.625000", "183326.625000", "183327.625000", "183328.625000", "183329.625000", "183330.625000", "183331.625000", "183332.625000", "183333.625000", "183334.625000", "183335.625000", "183336.625000", "183337.625000", "183338.625000", "183339.625000", "183340.625000", "183341.625000", "183342.625000", "183343.625000", "183344.625000", "183345.625000", "183346.625000", "183347.625000", "183348.625000", "183349.625000", "183350.625000", "183351.625000", "183352.625000", "183353.625000", "183354.625000", "183355.625000", "183356.625000", "183357.625000", "183358.625000", "183359.625000", "183400.625000", "183401.625000", "183402.625000", "183403.625000", "183404.625000", "183405.625000", "183406.625000", "183407.625000", "183408.625000", "183409.625000", "183410.625000", "183411.625000", "183412.625000", "183413.625000", "183414.625000", "183415.625000", "183416.625000", "183417.625000", "183418.625000", "183419.625000", "183420.625000", "183421.625000", "183422.625000", "183423.625000", "183424.625000", "183425.625000", "183426.625000", "183427.625000", "183428.625000", "183429.625000", "183430.625000", "183431.625000", "183432.625000", "183433.625000", "183434.625000", "183435.625000", "183436.625000", "183437.625000", "183438.625000", "183439.625000", "183440.625000", "183441.625000", "183442.625000", "183443.625000", "183444.625000", "183445.625000", "183446.625000", "183447.625000", "183448.625000", "183449.625000", "183450.625000", "183451.625000", "183452.625000", "183453.625000", "183454.625000", "183455.625000", "183456.625000", "183457.625000", "183458.625000", "183459.625000", "183500.625000", "183501.625000", "183502.625000", "183503.625000", "183504.625000", "183505.625000", "183506.625000", "183507.625000", "183508.625000", "183509.625000", "183510.625000", "183511.625000", "183512.625000", "183513.625000", "183514.625000", "183515.625000", "183516.625000", "183517.625000", "183518.625000", "183519.625000", "183520.625000", "183521.625000", "183522.625000", "183523.625000", "183524.625000", "183525.625000", "183526.625000", "183527.625000", "183528.625000", "183529.625000", "183530.625000", "183531.625000", "183532.625000", "183533.625000", "183534.625000", "183535.625000", "183536.625000", "183537.625000", "183538.625000", "183539.625000", "183540.625000", "183541.625000", "183542.625000", "183543.625000", "183544.625000", "183545.625000", "183546.625000", "183547.625000", "183548.625000", "183549.625000", "183550.625000", "183551.625000", "183552.625000", "183553.625000", "183554.625000", "183555.625000", "183556.625000", "183557.625000", "183558.625000", "183559.625000", "183600.625000", "183601.625000", "183602.625000", "183603.625000", "183604.625000", "183605.625000", "183606.625000", "183607.625000", "183608.625000", "183609.625000", "183610.625000", "183611.625000", "183612.625000", "183613.625000", "183614.625000", "183615.625000", "183616.625000", "183617.625000", "183618.625000", "183619.625000", "183620.625000", "183621.625000", "183622.625000", "183623.625000", "183624.625000", "183625.625000", "183626.625000", "183627.625000", "183628.625000", "183629.625000", "183630.625000", "183631.625000", "183632.625000", "183633.625000", "183634.625000", "183635.625000", "183636.625000", "183637.625000", "183638.625000", "183639.625000", "183640.625000", "183641.625000", "183642.625000", "183643.625000", "183644.625000", "183645.625000", "183646.625000", "183647.625000", "183648.625000", "183649.625000", "183650.625000", "183651.625000", "183652.625000", "183653.625000", "183654.625000", "183655.625000", "183656.625000", "183657.625000", "183658.625000", "183659.625000", "183700.625000", "183701.625000", "183702.625000", "183703.625000", "183704.625000", "183705.625000", "183706.625000", "183707.625000", "183708.625000", "183709.625000", "183710.625000", "183711.625000", "183712.625000", "183713.625000", "183714.625000", "183715.625000", "183716.625000", "183717.625000", "183718.625000", "183719.625000", "183720.625000", "183721.625000", "183722.625000", "183723.625000", "183724.625000", "183725.625000", "183726.625000", "183727.625000", "183728.625000", "183729.625000", "183730.625000", "183731.625000", "183732.625000", "183733.625000", "183734.625000", "183735.625000", "183736.625000", "183737.625000", "183738.625000", "183739.625000", "183740.625000", "183741.625000", "183742.625000", "183743.625000", "183744.625000", "183745.625000", "183746.625000", "183747.625000", "183748.625000", "183749.625000", "183750.625000", "183751.625000", "183752.625000", "183753.625000", "183754.625000", "183755.625000", "183756.625000", "183757.625000", "183758.625000", "183759.625000", "183800.625000", "183801.625000", "183802.625000", "183803.625000", "183804.625000", "183805.625000", "183806.625000", "183807.625000", "183808.625000", "183809.625000", "183810.625000", "183811.625000", "183812.625000", "183813.625000", "183814.625000", "183815.625000", "183816.625000", "183817.625000", "183818.625000", "183819.625000", "183820.625000", "183821.625000", "183822.625000", "183823.625000", "183824.625000", "183825.625000", "183826.625000", "183827.625000", "183828.625000", "183829.625000", "183830.625000", "183831.625000", "183832.625000", "183833.625000", "183834.625000", "183835.625000", "183836.625000", "183837.625000", "183838.625000", "183839.625000", "183840.625000", "183841.625000", "183842.625000", "183843.625000", "183844.625000", "183845.625000", "183846.625000", "183847.625000", "183848.625000", "183849.625000", "183850.625000", "183851.625000", "183852.625000", "183853.625000", "183854.625000", "183855.625000", "183856.625000", "183857.625000", "183858.625000", "183859.625000", "183900.625000", "183901.625000", "183902.625000", "183903.625000", "183904.625000", "183905.625000", "183906.625000", "183907.625000", "183908.625000", "183909.625000", "183910.625000", "183911.625000", "183912.625000", "183913.625000", "183914.625000", "183915.625000", "183916.625000", "183917.625000", "183918.625000", "183919.625000", "183920.625000", "183921.625000", "183922.625000", "183923.625000", "183924.625000", "183925.625000", "183926.625000", "183927.625000", "183928.625000", "183929.625000", "183930.625000", "183931.625000", "183932.625000", "183933.625000", "183934.625000", "183935.625000", "183936.625000", "183937.625000", "183938.625000", "183939.625000", "183940.625000", "183941.625000", "183942.625000", "183943.625000", "183944.625000", "183945.625000", "183946.625000", "183947.625000", "183948.625000", "183949.625000", "183950.625000", "183951.625000", "183952.625000", "183953.625000", "183954.625000", "183955.625000", "183956.625000", "183957.625000", "183958.625000", "183959.625000", "184000.625000", "184001.625000", "184002.625000", "184003.625000", "184004.625000", "184005.625000", "184006.625000", "184007.625000", "184008.625000", "184009.625000", "184010.625000", "184011.625000", "184012.625000", "184013.625000", "184014.625000", "184015.625000", "184016.625000", "184017.625000", "184018.625000", "184019.625000", "184020.625000", "184021.625000", "184022.625000", "184023.625000", "184024.625000", "184025.625000", "184026.625000", "184027.625000", "184028.625000", "184029.625000", "184030.625000", "184031.625000", "184032.625000", "184033.625000", "184034.625000", "184035.625000", "184036.625000", "184037.625000", "184038.625000", "184039.625000", "184040.625000", "184041.625000", "184042.625000", "184043.625000", "184044.625000", "184045.625000", "184046.625000", "184047.625000", "184048.625000"],
      "ContentTime": ["183332.201000", "183332.205000", "183332.207000", "183332.210000", "183332.212000", "183332.215000", "183332.217000", "183332.220000", "183332.222000", "183332.225000", "183332.227000", "183332.230000", "183332.232000", "183332.235000", "183332.237000", "183332.240000", "183332.242000", "183332.245000", "183332.247000", "183332.250000", "183332.252000", "183332.255000", "183332.257000", "183332.260000", "183332.262000", "183332.265000", "183332.267000", "183332.269000", "183332.272000", "183332.274000", "183332.277000", "183352.170000", "183352.173000", "183352.176000", "183352.178000", "183352.181000", "183352.184000", "183352.186000", "183352.189000", "183352.191000", "183352.194000", "183352.196000", "183352.198000", "183352.201000", "183352.203000", "183352.206000", "183352.208000", "183352.211000", "183352.213000", "183352.216000", "183352.229000", "183412.170000", "183412.173000", "183412.176000", "183412.178000", "183412.181000", "183412.183000", "183412.185000", "183412.188000", "183412.191000", "183412.193000", "183412.204000", "183412.206000", "183412.209000", "183412.211000", "183412.214000", "183412.216000", "183412.219000", "183412.221000", "183412.224000", "183412.226000", "183432.170000", "183432.173000", "183432.176000", "183432.178000", "183432.180000", "183432.183000", "183432.185000", "183432.188000", "183432.191000", "183432.193000", "183432.196000", "183432.198000", "183432.200000", "183432.203000", "183432.205000", "183432.208000", "183432.210000", "183432.213000", "183432.215000", "183432.218000", "183452.170000", "183452.173000", "183452.175000", "183452.178000", "183452.180000", "183452.183000", "183452.185000", "183452.188000", "183452.191000", "183452.193000", "183452.196000", "183452.198000", "183452.200000", "183452.203000", "183452.205000", "183452.208000", "183452.210000", "183452.213000", "183452.215000", "183452.218000", "183512.169000", "183512.172000", "183512.174000", "183512.177000", "183512.179000", "183512.182000", "183512.184000", "183512.187000", "183512.190000", "183512.192000", "183512.195000", "183512.197000", "183512.199000", "183512.202000", "183512.204000", "183512.207000", "183512.209000", "183512.212000", "183512.214000", "183512.217000", "183532.170000", "183532.173000", "183532.176000", "183532.178000", "183532.181000", "183532.183000", "183532.185000", "183532.188000", "183532.191000", "183532.193000", "183532.195000", "183532.198000", "183532.200000", "183532.203000", "183532.205000", "183532.208000", "183532.210000", "183532.213000", "183532.215000", "183532.218000", "183552.170000", "183552.173000", "183552.176000", "183552.178000", "183552.181000", "183552.183000", "183552.186000", "183552.188000", "183552.191000", "183552.193000", "183552.196000", "183552.198000", "183552.201000", "183552.203000", "183552.206000", "183552.208000", "183552.211000", "183552.213000", "183552.216000", "183552.218000", "183612.170000", "183612.173000", "183612.175000", "183612.178000", "183612.180000", "183612.183000", "183612.185000", "183612.188000", "183612.223000", "183612.225000", "183612.228000", "183612.230000", "183612.232000", "183612.235000", "183612.237000", "183612.240000", "183612.242000", "183612.245000", "183612.247000", "183612.250000", "183632.170000", "183632.173000", "183632.176000", "183632.178000", "183632.181000", "183632.183000", "183632.186000", "183632.188000", "183632.191000", "183632.193000", "183632.196000", "183632.198000", "183632.201000", "183632.203000", "183632.205000", "183632.208000", "183632.210000", "183632.213000", "183632.215000", "183632.218000", "183652.171000", "183652.173000", "183652.176000", "183652.178000", "183652.181000", "183652.183000", "183652.186000", "183652.188000", "183652.201000", "183652.204000", "183652.206000", "183652.209000", "183652.211000", "183652.213000", "183652.216000", "183652.219000", "183652.221000", "183652.224000", "183652.226000", "183652.229000", "183712.170000", "183712.173000", "183712.176000", "183712.178000", "183712.181000", "183712.183000", "183712.186000", "183712.188000", "183712.191000", "183712.193000", "183712.196000", "183712.198000", "183712.201000", "183712.203000", "183712.206000", "183712.208000", "183712.211000", "183712.213000", "183712.216000", "183712.218000", "183732.169000", "183732.172000", "183732.175000", "183732.177000", "183732.180000", "183732.182000", "183732.193000", "183732.195000", "183732.198000", "183732.200000", "183732.202000", "183732.205000", "183732.208000", "183732.210000", "183732.212000", "183732.215000", "183732.217000", "183732.220000", "183732.222000", "183732.225000", "183752.170000", "183752.173000", "183752.176000", "183752.178000", "183752.180000", "183752.183000", "183752.185000", "183752.188000", "183752.191000", "183752.193000", "183752.196000", "183752.198000", "183752.200000", "183752.237000", "183752.240000", "183752.242000", "183752.245000", "183752.247000", "183752.250000", "183752.252000", "183812.170000", "183812.173000", "183812.176000", "183812.178000", "183812.181000", "183812.183000", "183812.186000", "183812.188000", "183812.191000", "183812.193000", "183812.196000", "183812.198000", "183812.201000", "183812.203000", "183812.206000", "183812.208000", "183812.211000", "183812.213000", "183812.215000", "183812.218000", "183832.171000", "183832.173000", "183832.176000", "183832.178000", "183832.181000", "183832.183000", "183832.186000", "183832.188000", "183832.191000", "183832.193000", "183832.196000", "183832.198000", "183832.201000", "183832.203000", "183832.206000", "183832.208000", "183832.211000", "183832.231000", "183832.233000", "183832.236000", "183852.171000", "183852.173000", "183852.176000", "183852.178000", "183852.181000", "183852.183000", "183852.186000", "183852.188000", "183852.191000", "183852.193000", "183852.196000", "183852.198000", "183852.217000", "183852.220000", "183852.222000", "183852.225000", "183852.227000", "183852.230000", "183852.232000", "183852.235000", "183912.171000", "183912.173000", "183912.176000", "183912.178000", "183912.181000", "183912.183000", "183912.186000", "183912.188000", "183912.191000", "183912.193000", "183912.196000", "183912.198000", "183912.201000", "183912.203000", "183912.206000", "183912.208000", "183912.211000", "183912.213000", "183912.216000", "183912.218000", "183932.170000", "183932.173000", "183932.176000", "183932.178000", "183932.181000", "183932.183000", "183932.186000", "183932.188000", "183932.191000", "183932.193000", "183932.196000", "183932.198000", "183932.201000", "183932.203000", "183932.206000", "183932.208000", "183932.211000", "183932.213000", "183932.215000", "183932.218000", "183952.170000", "183952.172000", "183952.175000", "183952.177000", "183952.180000", "183952.182000", "183952.185000", "183952.187000", "183952.190000", "183952.192000", "183952.195000", "183952.197000", "183952.200000", "183952.202000", "183952.205000", "183952.207000", "183952.210000", "183952.212000", "183952.215000", "183952.217000", "184012.170000", "184012.173000", "184012.175000", "184012.178000", "184012.180000", "184012.183000", "184012.185000", "184012.188000", "184012.190000", "184012.193000", "184012.195000", "184012.198000", "184012.200000", "184012.203000", "184012.205000", "184012.208000", "184012.210000", "184012.213000", "184012.215000", "184012.218000", "184032.170000", "184032.173000", "184032.176000", "184032.178000", "184032.181000", "184032.183000", "184032.186000", "184032.188000", "184032.191000", "184032.193000", "184032.196000", "184032.198000", "184032.201000", "184032.203000", "184032.206000", "184032.208000", "184032.211000", "184032.213000", "184032.215000", "184032.218000", "184049.750000", "184049.753000", "184049.756000", "184049.758000", "184049.761000", "184049.764000", "184049.766000", "184049.769000", "184049.771000", "184049.774000", "184049.776000", "184049.779000", "184049.781000", "184049.784000", "184049.786000", "184049.789000", "184049.791000", "184049.794000"],
