{
  "AcquisitionMatrixPE": 106,
  "AcquisitionNumber": 1,
  "AcquisitionTime": "19:19:59.762500",
  "BandwidthPerPixelPhaseEncode": 13.477,
  "BaseResolution": 106,
  "BodyPartExamined": "BRAIN",
  "CoilCombinationMethod": "Sum of Squares",
  "ConsistencyInfo": "N4_VE11C_LATEST_20160120",
  "ConversionSoftware": "dcm2niix",
  "ConversionSoftwareVersion": "v1.0.20220720",
  "DerivedVendorReportedEchoSpacing": 0.000700005,
  "DeviceSerialNumber": "166108",
  "DwellTime": 2.6e-06,
  "EchoTime": 0.03,
  "EchoTrainLength": 80,
  "EffectiveEchoSpacing": 0.000700005,
  "FlipAngle": 62,
  "HeudiconvVersion": "1.3.0",
  "ImageComments": "Unaliased MB4/PE3/LB",
  "ImageOrientationPatientDICOM": [1, 0, 0, 0, 0.906308, -0.422618],
  "ImageOrientationText": "Tra>Cor(-25.0)",
  "ImageType": [
    "ORIGINAL",
    "PRIMARY",
    "M",
    "MB",
    "ND",
    "MOSAIC"
],
  "ImagingFrequency": 123.244,
  "InPlanePhaseEncodingDirectionDICOM": "COL",
  "InstitutionAddress": "Bedford Way 26,London,London,GB,WC1H 0AP",
  "InstitutionName": "University College",
  "InstitutionalDepartmentName": "Department",
  "MRAcquisitionType": "2D",
  "MagneticFieldStrength": 3,
  "Manufacturer": "Siemens",
  "ManufacturersModelName": "Prisma",
  "MatrixCoilMode": "SENSE",
  "Modality": "MR",
  "MultibandAccelerationFactor": 4,
  "NonlinearGradientCorrection": false,
  "PartialFourier": 0.75,
  "PatientPosition": "HFS",
  "PercentPhaseFOV": 100,
  "PercentSampling": 100,
  "PhaseEncodingDirection": "j-",
  "PhaseEncodingSteps": 80,
  "PhaseResolution": 1,
  "PixelBandwidth": 1815,
  "ProcedureStepDescription": "Egor^MovieProject2",
  "ProtocolName": "func-bold_task-tono_run-01",
  "PulseSequenceDetails": "%CustomerSeq%\\cmrr_mbep2d_bold",
  "ReceiveCoilActiveElements": "HEA;HEP",
  "ReceiveCoilName": "Head_32",
  "ReconMatrixPE": 106,
  "RepetitionTime": 1,
  "SAR": 0.0404524,
  "ScanOptions": "PFP\\FS\\EXT",
  "ScanningSequence": "EP",
  "SequenceName": "epfid2d1_106",
  "SequenceVariant": "SK\\SS",
  "SeriesDescription": "func-bold_task-tono_run-01",
  "SeriesNumber": 18,
  "ShimSetting": [-1542, 611, 7396, 340, -148, 87, 323, -38],
  "SliceThickness": 2,
  "SliceTiming": [0, 0.535, 0.0875, 0.6225, 0.1775, 0.7125, 0.2675, 0.8, 0.355, 0.89, 0.445, 0, 0.535, 0.0875, 0.6225, 0.1775, 0.7125, 0.2675, 0.8, 0.355, 0.89, 0.445, 0, 0.535, 0.0875, 0.6225, 0.1775, 0.7125, 0.2675, 0.8, 0.355, 0.89, 0.445, 0, 0.535, 0.0875, 0.6225, 0.1775, 0.7125, 0.2675, 0.8, 0.355, 0.89, 0.445],
  "SoftwareVersions": "syngo MR E11",
  "SpacingBetweenSlices": 2,
  "StationName": "AWP166108",
  "TaskName": "tonotopy",
  "TotalReadoutTime": 0.0735005,
  "TxRefAmp": 243.192,
  "WipMemBlock": "5866ff04-ad92-42ba-a3ff-3e5c4fad43ae||Sequence: R016 ve11c/master r/e634e98; Dec 19 2017 11:00:25 by eja",
  "dcmmeta_affine": [
    [-2.0, 0.0, 0.0, 106.0],
    [0.0, 1.8126155138015747, -0.8452365398406982, -68.12700653076172],
    [0.0, 0.8452365398406982, 1.8126155138015747, -67.79158782958984],
    [0.0, 0.0, 0.0, 1.0]
],
  "dcmmeta_reorient_transform": [
    [0.0, -1.0, 0.0, 105.0],
    [1.0, 0.0, 0.0, 0.0],
    [0.0, 0.0, 1.0, 0.0],
    [0.0, 0.0, 0.0, 1.0]
],
  "dcmmeta_shape": [106, 106, 44, 264],
  "dcmmeta_slice_dim": 2,
  "dcmmeta_version": 0.6,
  "global": {
    "const": {
      "AcquisitionMatrix": [106, 0, 0, 106],
      "AngioFlag": "N",
      "BitsAllocated": 16,
      "BitsStored": 16,
      "BodyPartExamined": "BRAIN",
      "CardiacNumberOfImages": 1,
      "Columns": 742,
      "EchoNumbers": 1,
      "EchoTime": 30.0,
      "EchoTrainLength": 80,
      "FlipAngle": 62.0,
      "HighBit": 15,
      "ImageOrientationPatient": [1.0, 0.0, 0.0, 0.0, 0.90630778227357, -0.4226182719552],
      "ImagePositionPatient": [-742.0, -698.60937606442, 289.74346907917],
      "ImageType": [
        "ORIGINAL",
        "PRIMARY",
        "M",
        "MB",
        "ND",
        "MOSAIC"
],
      "ImagedNucleus": "1H",
      "ImagingFrequency": 123.243631,
      "InPlanePhaseEncodingDirection": "COL",
      "MRAcquisitionType": "2D",
      "MagneticFieldStrength": 3.0,
      "Manufacturer": "SIEMENS",
      "ManufacturerModelName": "Prisma",
      "Modality": "MR",
      "NominalInterval": 0,
      "NumberOfAverages": 1.0,
      "NumberOfPhaseEncodingSteps": 80,
      "PercentPhaseFieldOfView": 100.0,
      "PercentSampling": 100.0,
      "PerformedProcedureStepStartTime": "180500.288000",
      "PhotometricInterpretation": "MONOCHROME2",
      "PixelBandwidth": 1815.0,
      "PixelRepresentation": 0,
      "PixelSpacing": [2.0, 2.0],
      "ProtocolName": "func-bold_task-tono_run-01",
      "RepetitionTime": 1000.0,
      "Rows": 742,
      "SAR": 0.04045238023343,
      "SamplesPerPixel": 1,
      "ScanOptions": [
        "PFP",
        "FS",
        "EXT"
],
      "ScanningSequence": "EP",
      "SequenceName": "epfid2d1_106",
      "SequenceVariant": [
        "SK",
        "SS"
],
      "SeriesDescription": "func-bold_task-tono_run-01",
      "SeriesNumber": 18,
      "SeriesTime": "192028.916000",
      "SliceLocation": -32.648326394615,
      "SliceThickness": 2.0,
      "SmallestImagePixelValue": 0,
      "SoftwareVersions": "syngo MR E11",
      "SpacingBetweenSlices": 1.9999999732361,
      "SpecificCharacterSet": "ISO_IR 100",
      "StudyID": "1",
      "StudyTime": "180500.189000",
      "TransmitCoilName": "Body",
      "VariableFlipAngleFlag": "N",
      "WindowCenterWidthExplanation": "Algo1",
      "dBdt": 0.0},
    "slices": {}
  },
  "time": {
    "samples": {
      "AcquisitionNumber": [1, 2, 3, 4, 5, 6, 7, 8, 9, 10, 11, 12, 13, 14, 15, 16, 17, 18, 19, 20, 21, 22, 23, 24, 25, 26, 27, 28, 29, 30, 31, 32, 33, 34, 35, 36, 37, 38, 39, 40, 41, 42, 43, 44, 45, 46, 47, 48, 49, 50, 51, 52, 53, 54, 55, 56, 57, 58, 59, 60, 61, 62, 63, 64, 65, 66, 67, 68, 69, 70, 71, 72, 73, 74, 75, 76, 77, 78, 79, 80, 81, 82, 83, 84, 85, 86, 87, 88, 89, 90, 91, 92, 93, 94, 95, 96, 97, 98, 99, 100, 101, 102, 103, 104, 105, 106, 107, 108, 109, 110, 111, 112, 113, 114, 115, 116, 117, 118, 119, 120, 121, 122, 123, 124, 125, 126, 127, 128, 129, 130, 131, 132, 133, 134, 135, 136, 137, 138, 139, 140, 141, 142, 143, 144, 145, 146, 147, 148, 149, 150, 151, 152, 153, 154, 155, 156, 157, 158, 159, 160, 161, 162, 163, 164, 165, 166, 167, 168, 169, 170, 171, 172, 173, 174, 175, 176, 177, 178, 179, 180, 181, 182, 183, 184, 185, 186, 187, 188, 189, 190, 191, 192, 193, 194, 195, 196, 197, 198, 199, 200, 201, 202, 203, 204, 205, 206, 207, 208, 209, 210, 211, 212, 213, 214, 215, 216, 217, 218, 219, 220, 221, 222, 223, 224, 225, 226, 227, 228, 229, 230, 231, 232, 233, 234, 235, 236, 237, 238, 239, 240, 241, 242, 243, 244, 245, 246, 247, 248, 249, 250, 251, 252, 253, 254, 255, 256, 257, 258, 259, 260, 261, 262, 263, 264],
      "AcquisitionTime": ["191959.762500", "192000.762500", "192001.762500", "192002.762500", "192003.762500", "192004.762500", "192005.762500", "192006.762500", "192007.762500", "192008.762500", "192009.762500", "192010.762500", "192011.762500", "192012.762500", "192013.762500", "192014.762500", "192015.762500", "192016.762500", "192017.762500", "192018.762500", "192019.762500", "192020.762500", "192021.762500", "192022.762500", "192023.762500", "192024.762500", "192025.762500", "192026.762500", "192027.762500", "192028.762500", "192029.762500", "192030.762500", "192031.762500", "192032.762500", "192033.762500", "192034.762500", "192035.762500", "192036.762500", "192037.762500", "192038.762500", "192039.762500", "192040.762500", "192041.762500", "192042.762500", "192043.762500", "192044.762500", "192045.762500", "192046.762500", "192047.762500", "192048.762500", "192049.762500", "192050.762500", "192051.762500", "192052.762500", "192053.762500", "192054.762500", "192055.762500", "192056.762500", "192057.762500", "192058.762500", "192059.762500", "192100.762500", "192101.762500", "192102.762500", "192103.762500", "192104.762500", "192105.762500", "192106.762500", "192107.762500", "192108.762500", "192109.762500", "192110.762500", "192111.762500", "192112.762500", "192113.762500", "192114.762500", "192115.762500", "192116.762500", "192117.762500", "192118.762500", "192119.762500", "192120.762500", "192121.762500", "192122.762500", "192123.762500", "192124.762500", "192125.762500", "192126.762500", "192127.762500", "192128.762500", "192129.762500", "192130.762500", "192131.762500", "192132.762500", "192133.762500", "192134.762500", "192135.762500", "192136.762500", "192137.762500", "192138.762500", "192139.762500", "192140.762500", "192141.762500", "192142.762500", "192143.762500", "192144.762500", "192145.762500", "192146.762500", "192147.762500", "192148.762500", "192149.762500", "192150.762500", "192151.762500", "192152.762500", "192153.762500", "192154.762500", "192155.762500", "192156.762500", "192157.762500", "192158.762500", "192159.762500", "192200.762500", "192201.762500", "192202.762500", "192203.762500", "192204.762500", "192205.762500", "192206.762500", "192207.762500", "192208.762500", "192209.762500", "192210.762500", "192211.762500", "192212.762500", "192213.762500", "192214.762500", "192215.762500", "192216.762500", "192217.762500", "192218.762500", "192219.762500", "192220.762500", "192221.762500", "192222.762500", "192223.762500", "192224.762500", "192225.762500", "192226.762500", "192227.762500", "192228.762500", "192229.762500", "192230.762500", "192231.762500", "192232.762500", "192233.762500", "192234.762500", "192235.762500", "192236.762500", "192237.762500", "192238.762500", "192239.762500", "192240.762500", "192241.762500", "192242.762500", "192243.762500", "192244.762500", "192245.762500", "192246.762500", "192247.762500", "192248.762500", "192249.762500", "192250.762500", "192251.762500", "192252.762500", "192253.762500", "192254.762500", "192255.762500", "192256.762500", "192257.762500", "192258.762500", "192259.762500", "192300.762500", "192301.762500", "192302.762500", "192303.762500", "192304.762500", "192305.762500", "192306.762500", "192307.762500", "192308.762500", "192309.762500", "192310.762500", "192311.762500", "192312.762500", "192313.762500", "192314.762500", "192315.762500", "192316.762500", "192317.762500", "192318.762500", "192319.762500", "192320.762500", "192321.762500", "192322.762500", "192323.762500", "192324.762500", "192325.762500", "192326.762500", "192327.762500", "192328.762500", "192329.762500", "192330.762500", "192331.762500", "192332.762500", "192333.762500", "192334.762500", "192335.762500", "192336.762500", "192337.762500", "192338.762500", "192339.762500", "192340.762500", "192341.762500", "192342.762500", "192343.762500", "192344.762500", "192345.762500", "192346.762500", "192347.762500", "192348.762500", "192349.762500", "192350.762500", "192351.762500", "192352.762500", "192353.762500", "192354.762500", "192355.762500", "192356.762500", "192357.762500", "192358.762500", "192359.762500", "192400.762500", "192401.762500", "192402.762500", "192403.762500", "192404.762500", "192405.762500", "192406.762500", "192407.762500", "192408.762500", "192409.762500", "192410.762500", "192411.762500", "192412.762500", "192413.762500", "192414.762500", "192415.762500", "192416.762500", "192417.762500", "192418.762500", "192419.762500", "192420.762500", "192421.762500", "192422.762500"],
      "ContentTime": ["192028.918000", "192028.922000", "192028.925000", "192028.927000", "192028.930000", "192028.949000", "192028.951000", "192028.954000", "192028.956000", "192028.959000", "192028.961000", "192028.964000", "192028.966000", "192028.969000", "192028.971000", "192028.974000", "192028.976000", "192028.978000", "192028.981000", "192028.983000", "192028.995000", "192028.998000", "192029.001000", "192029.004000", "192029.006000", "192029.009000", "192029.011000", "192029.014000", "192048.889000", "192048.892000", "192048.895000", "192048.897000", "192048.900000", "192048.902000", "192048.904000", "192048.907000", "192048.909000", "192048.912000", "192048.915000", "192048.918000", "192048.920000", "192048.923000", "192048.934000", "192048.936000", "192048.939000", "192048.941000", "192048.943000", "192048.946000", "192108.890000", "192108.892000", "192108.895000", "192108.897000", "192108.900000", "192108.902000", "192108.905000", "192108.907000", "192108.910000", "192108.913000", "192108.916000", "192108.918000", "192108.921000", "192108.924000", "192108.927000", "192108.929000", "192108.932000", "192108.945000", "192108.948000", "192108.950000", "192128.890000", "192128.892000", "192128.895000", "192128.897000", "192128.900000", "192128.902000", "192128.904000", "192128.907000", "192128.909000", "192128.912000", "192128.915000", "192128.918000", "192128.921000", "192128.924000", "192128.927000", "192128.930000", "192128.932000", "192128.935000", "192128.937000", "192128.939000", "192148.889000", "192148.892000", "192148.894000", "192148.897000", "192148.899000", "192148.902000", "192148.904000", "192148.907000", "192148.909000", "192148.912000", "192148.914000", "192148.917000", "192148.919000", "192148.922000", "192148.925000", "192148.927000", "192148.930000", "192148.932000", "192148.935000", "192148.937000", "192208.890000", "192208.893000", "192208.896000", "192208.898000", "192208.901000", "192208.903000", "192208.906000", "192208.908000", "192208.911000", "192208.913000", "192208.916000", "192208.918000", "192208.921000", "192208.924000", "192208.927000", "192208.930000", "192208.932000", "192208.935000", "192208.937000", "192208.940000", "192228.890000", "192228.893000", "192228.896000", "192228.898000", "192228.901000", "192228.903000", "192228.906000", "192228.908000", "192228.911000", "192228.914000", "192228.917000", "192228.920000", "192228.922000", "192228.926000", "192228.928000", "192228.931000", "192228.933000", "192228.936000", "192228.938000", "192228.941000", "192248.890000", "192248.893000", "192248.896000", "192248.898000", "192248.901000", "192248.903000", "192248.906000", "192248.908000", "192248.910000", "192248.913000", "192248.915000", "192248.918000", "192248.920000", "192248.923000", "192248.925000", "192248.928000", "192248.931000", "192248.934000", "192248.937000", "192248.939000", "192308.890000", "192308.892000", "192308.895000", "192308.897000", "192308.900000", "192308.902000", "192308.905000", "192308.907000", "192308.910000", "192308.913000", "192308.916000", "192308.918000", "192308.921000", "192308.925000", "192308.927000", "192308.930000", "192308.932000", "192308.935000", "192308.937000", "192308.940000", "192328.890000", "192328.892000", "192328.895000", "192328.897000", "192328.900000", "192328.902000", "192328.905000", "192328.907000", "192328.909000", "192328.912000", "192328.914000", "192328.917000", "192328.920000", "192328.923000", "192328.925000", "192328.928000", "192328.931000", "192328.933000", "192328.936000", "192328.938000", "192348.890000", "192348.892000", "192348.895000", "192348.897000", "192348.900000", "192348.902000", "192348.905000", "192348.907000", "192348.910000", "192348.913000", "192348.916000", "192348.918000", "192348.921000", "192348.924000", "192348.927000", "192348.929000", "192348.932000", "192348.934000", "192348.937000", "192348.939000", "192408.889000", "192408.892000", "192408.895000", "192408.897000", "192408.900000", "192408.902000", "192408.905000", "192408.907000", "192408.910000", "192408.912000", "192408.915000", "192408.917000", "192408.920000", "192408.922000", "192408.925000", "192408.928000", "192408.930000", "192408.933000", "192408.936000", "192408.939000", "192423.983000", "192423.986000", "192423.989000", "192423.991000", "192423.994000", "192423.997000", "192424.000000", "192424.003000", "192424.005000", "192424.008000", "192424.010000", "192424.013000", "192424.015000", "192424.018000", "192424.020000", "192424.023000"],
      "InstanceCreationTime": ["192028.918000", "192028.922000", "192028.925000", "192028.927000", "192028.930000", "192028.949000", "192028.951000", "192028.954000", "192028.956000", "192028.959000", "192028.961000", "192028.964000", "192028.966000", "192028.969000", "192028.971000", "192028.974000", "192028.976000", "192028.978000", "192028.981000", "192028.983000", "192028.995000", "192028.998000", "192029.001000", "192029.004000", "192029.006000", "192029.009000", "192029.011000", "192029.014000", "192048.889000", "192048.892000", "192048.895000", "192048.897000", "192048.900000", "192048.902000", "192048.904000", "192048.907000", "192048.909000", "192048.912000", "192048.915000", "192048.918000", "192048.920000", "192048.923000", "192048.934000", "192048.936000", "192048.939000", "192048.941000", "192048.943000", "192048.946000", "192108.890000", "192108.892000", "192108.895000", "192108.897000", "192108.900000", "192108.902000", "192108.905000", "192108.907000", "192108.910000", "192108.913000", "192108.916000", "192108.918000", "192108.921000", "192108.924000", "192108.927000", "192108.929000", "192108.932000", "192108.945000", "192108.948000", "192108.950000", "192128.890000", "192128.892000", "192128.895000", "192128.897000", "192128.900000", "192128.902000", "192128.904000", "192128.907000", "192128.909000", "192128.912000", "192128.915000", "192128.918000", "192128.921000", "192128.924000", "192128.927000", "192128.930000", "192128.932000", "192128.935000", "192128.937000", "192128.939000", "192148.889000", "192148.892000", "192148.894000", "192148.897000", "192148.899000", "192148.902000", "192148.904000", "192148.907000", "192148.909000", "192148.912000", "192148.914000", "192148.917000", "192148.919000", "192148.922000", "192148.925000", "192148.927000", "192148.930000", "192148.932000", "192148.935000", "192148.937000", "192208.890000", "192208.893000", "192208.896000", "192208.898000", "192208.901000", "192208.903000", "192208.906000", "192208.908000", "192208.911000", "192208.913000", "192208.916000", "192208.918000", "192208.921000", "192208.924000", "192208.927000", "192208.930000", "192208.932000", "192208.935000", "192208.937000", "192208.940000", "192228.890000", "192228.893000", "192228.896000", "192228.898000", "192228.901000", "192228.903000", "192228.906000", "192228.908000", "192228.911000", "192228.914000", "192228.917000", "192228.920000", "192228.922000", "192228.926000", "192228.928000", "192228.931000", "192228.933000", "192228.936000", "192228.938000", "192228.941000", "192248.890000", "192248.893000", "192248.896000", "192248.898000", "192248.901000", "192248.903000", "192248.906000", "192248.908000", "192248.910000", "192248.913000", "192248.915000", "192248.918000", "192248.920000", "192248.923000", "192248.925000", "192248.928000", "192248.931000", "192248.934000", "192248.937000", "192248.939000", "192308.890000", "192308.892000", "192308.895000", "192308.897000", "192308.900000", "192308.902000", "192308.905000", "192308.907000", "192308.910000", "192308.913000", "192308.916000", "192308.918000", "192308.921000", "192308.925000", "192308.927000", "192308.930000", "192308.932000", "192308.935000", "192308.937000", "192308.940000", "192328.890000", "192328.892000", "192328.895000", "192328.897000", "192328.900000", "192328.902000", "192328.905000", "192328.907000", "192328.909000", "192328.912000", "192328.914000", "192328.917000", "192328.920000", "192328.923000", "192328.925000", "192328.928000", "192328.931000", "192328.933000", "192328.936000", "192328.938000", "192348.890000", "192348.892000", "192348.895000", "192348.897000", "192348.900000", "192348.902000", "192348.905000", "192348.907000", "192348.910000", "192348.913000", "192348.916000", "192348.918000", "192348.921000", "192348.924000", "192348.927000", "192348.929000", "192348.932000", "192348.934000", "192348.937000", "192348.939000", "192408.889000", "192408.892000", "192408.895000", "192408.897000", "192408.900000", "192408.902000", "192408.905000", "192408.907000", "192408.910000", "192408.912000", "192408.915000", "192408.917000", "192408.920000", "192408.922000", "192408.925000", "192408.928000", "192408.930000", "192408.933000", "192408.936000", "192408.939000", "192423.983000", "192423.986000", "192423.989000", "192423.991000", "192423.994000", "192423.997000", "192424.000000", "192424.003000", "192424.005000", "192424.008000", "192424.010000", "192424.013000", "192424.015000", "192424.018000", "192424.020000", "192424.023000"],
      "InstanceNumber": [1, 2, 3, 4, 5, 6, 7, 8, 9, 10, 11, 12, 13, 14, 15, 16, 17, 18, 19, 20, 21, 22, 23, 24, 25, 26, 27, 28, 29, 30, 31, 32, 33, 34, 35, 36, 37, 38, 39, 40, 41, 42, 43, 44, 45, 46, 47, 48, 49, 50, 51, 52, 53, 54, 55, 56, 57, 58, 59, 60, 61, 62, 63, 64, 65, 66, 67, 68, 69, 70, 71, 72, 73, 74, 75, 76, 77, 78, 79, 80, 81, 82, 83, 84, 85, 86, 87, 88, 89, 90, 91, 92, 93, 94, 95, 96, 97, 98, 99, 100, 101, 102, 103, 104, 105, 106, 107, 108, 109, 110, 111, 112, 113, 114, 115, 116, 117, 118, 119, 120, 121, 122, 123, 124, 125, 126, 127, 128, 129, 130, 131, 132, 133, 134, 135, 136, 137, 138, 139, 140, 141, 142, 143, 144, 145, 146, 147, 148, 149, 150, 151, 152, 153, 154, 155, 156, 157, 158, 159, 160, 161, 162, 163, 164, 165, 166, 167, 168, 169, 170, 171, 172, 173, 174, 175, 176, 177, 178, 179, 180, 181, 182, 183, 184, 185, 186, 187, 188, 189, 190, 191, 192, 193, 194, 195, 196, 197, 198, 199, 200, 201, 202, 203, 204, 205, 206, 207, 208, 209, 210, 211, 212, 213, 214, 215, 216, 217, 218, 219, 220, 221, 222, 223, 224, 225, 226, 227, 228, 229, 230, 231, 232, 233, 234, 235, 236, 237, 238, 239, 240, 241, 242, 243, 244, 245, 246, 247, 248, 249, 250, 251, 252, 253, 254, 255, 256, 257, 258, 259, 260, 261, 262, 263, 264],
      "LargestImagePixelValue": [14814, 14532, 14360, 14335, 14020, 14288, 14526, 14391, 13974, 14142, 14023, 13912, 14097, 13725, 14195, 14303, 14021, 14312, 14252, 13873, 14316, 14058, 14076, 14300, 14085, 14310, 14316, 13999, 14392, 14295, 14071, 14449, 14353, 13896, 14435, 14187, 14076, 14359, 14190, 14307, 14320, 14078, 14410, 14253, 13959, 14482, 14302, 14160, 14446, 14290, 14278, 14489, 14091, 14471, 14333, 14005, 14416, 14297, 14061, 14574, 14222, 14293, 14551, 14399, 14281, 14371, 14176, 14452, 14456, 14273, 14494, 14410, 14300, 14516, 14490, 14331, 14613, 14533, 14444, 14572, 14611, 14559, 14778, 14654, 14513, 14545, 14493, 14362, 14640, 14513, 14592, 14512, 14460, 14735, 14607, 14607, 14582, 14570, 14542, 14755, 14675, 14371, 14532, 14484, 14355, 14618, 14573, 14360, 14524, 14565, 14366, 14605, 14550, 14577, 14599, 14503, 14513, 14402, 14379, 14635, 14485, 14429, 14659, 14751, 14567, 14592, 14522, 14445, 14712, 14475, 14518, 14670, 14495, 14391, 14644, 14560, 14494, 14618, 14584, 14508, 14596, 14369, 14410, 14559, 14416, 14493, 14524, 14359, 14374, 14507, 14507, 14512, 14478, 14478, 14233, 14466, 14394, 14402, 14574, 14413, 14567, 14512, 14256, 14459, 14386, 14220, 14477, 14417, 14542, 14550, 14270, 14481, 14442, 14196, 14388, 14422, 14262, 14464, 14407, 14262, 14429, 14312, 14136, 14407, 14222, 14285, 14513, 14195, 14431, 14483, 14084, 14377, 14376, 14233, 14373, 14281, 14263, 14489, 14394, 14252, 14455, 14449, 14051, 14511, 14445, 14224, 14499, 14239, 14381, 14451, 14270, 14377, 14516, 14377, 14411, 14444, 14276, 14139, 14440, 14407, 14268, 14427, 14407, 14430, 14383, 14348, 14388, 14343, 14441, 14461, 14376, 13957, 14535, 14464, 14307, 14610, 14431, 14282, 14465, 14502, 14499, 14745, 14739, 14580, 14617, 14279, 14402, 14431, 14225, 14430, 14341, 14273, 14461, 14425, 14406, 14447, 14398, 14255, 14474, 14473, 14308, 14577, 14332, 14293],
      "TriggerTime": [8100.0, 9100.0, 10100.0, 11100.0, 12100.0, 13100.0, 14100.0, 15100.0, 16100.0, 17100.0, 18100.0, 19100.0, 20100.0, 21100.0, 22100.0, 23100.0, 24100.0, 25100.0, 26100.0, 27100.0, 28100.0, 29100.0, 30100.0, 31100.0, 32100.0, 33100.0, 34100.0, 35100.0, 36100.0, 37100.0, 38100.0, 39100.0, 40100.0, 41100.0, 42100.0, 43100.0, 44100.0, 45100.0, 46100.0, 47100.0, 48100.0, 49100.0, 50100.0, 51100.0, 52100.0, 53100.0, 54100.0, 55100.0, 56100.0, 57100.0, 58100.0, 59100.0, 60100.0, 61100.0, 62100.0, 63100.0, 64100.0, 65100.0, 66100.0, 67100.0, 68100.0, 69100.0, 70100.0, 71100.0, 72100.0, 73100.0, 74100.0, 75100.0, 76100.0, 77100.0, 78100.0, 79100.0, 80100.0, 81100.0, 82100.0, 83100.0, 84100.0, 85100.0, 86100.0, 87100.0, 88100.0, 89100.0, 90100.0, 91100.0, 92100.0, 93100.0, 94100.0, 95100.0, 96100.0, 97100.0, 98100.0, 99100.0, 100100.0, 101100.0, 102100.0, 103100.0, 104100.0, 105100.0, 106100.0, 107100.0, 108100.0, 109100.0, 110100.0, 111100.0, 112100.0, 113100.0, 114100.0, 115100.0, 116100.0, 117100.0, 118100.0, 119100.0, 120100.0, 121100.0, 122100.0, 123100.0, 124100.0, 125100.0, 126100.0, 127100.0, 128100.0, 129100.0, 130100.0, 131100.0, 132100.0, 133100.0, 134100.0, 135100.0, 136100.0, 137100.0, 138100.0, 139100.0, 140100.0, 141100.0, 142100.0, 143100.0, 144100.0, 145100.0, 146100.0, 147100.0, 148100.0, 149100.0, 150100.0, 151100.0, 152100.0, 153100.0, 154100.0, 155100.0, 156100.0, 157100.0, 158100.0, 159100.0, 160100.0, 161100.0, 162100.0, 163100.0, 164100.0, 165100.0, 166100.0, 167100.0, 168100.0, 169100.0, 170100.0, 171100.0, 172100.0, 173100.0, 174100.0, 175100.0, 176100.0, 177100.0, 178100.0, 179100.0, 180100.0, 181100.0, 182100.0, 183100.0, 184100.0, 185100.0, 186100.0, 187100.0, 188100.0, 189100.0, 190100.0, 191100.0, 192100.0, 193100.0, 194100.0, 195100.0, 196100.0, 197100.0, 198100.0, 199100.0, 200100.0, 201100.0, 202100.0, 203100.0, 204100.0, 205100.0, 206100.0, 207100.0, 208100.0, 209100.0, 210100.0, 211100.0, 212100.0, 213100.0, 214100.0, 215100.0, 216100.0, 217100.0, 218100.0, 219100.0, 220100.0, 221100.0, 222100.0, 223100.0, 224100.0, 225100.0, 226100.0, 227100.0, 228100.0, 229100.0, 230100.0, 231100.0, 232100.0, 233100.0, 234100.0, 235100.0, 236100.0, 237100.0, 238100.0, 239100.0, 240100.0, 241100.0, 242100.0, 243100.0, 244100.0, 245100.0, 246100.0, 247100.0, 248100.0, 249100.0, 250100.0, 251100.0, 252100.0, 253100.0, 254100.0, 255100.0, 256100.0, 257100.0, 258100.0, 259100.0, 260100.0, 261100.0, 262100.0, 263100.0, 264100.0, 265100.0, 266100.0, 267100.0, 268100.0, 269100.0, 270100.0, 271100.0],
      "WindowCenter": [4396.0, 4370.0, 4369.0, 4365.0, 4356.0, 4356.0, 4356.0, 4365.0, 4354.0, 4352.0, 4352.0, 4344.0, 4355.0, 4367.0, 4367.0, 4368.0, 4368.0, 4380.0, 4378.0, 4369.0, 4367.0, 4370.0, 4367.0, 4380.0, 4381.0, 4381.0, 4381.0, 4382.0, 4378.0, 4378.0, 4370.0, 4367.0, 4366.0, 4356.0, 4369.0, 4369.0, 4370.0, 4369.0, 4368.0, 4365.0, 4366.0, 4367.0, 4364.0, 4365.0, 4369.0, 4381.0, 4378.0, 4371.0, 4370.0, 4378.0, 4369.0, 4365.0, 4368.0, 4367.0, 4377.0, 4367.0, 4379.0, 4380.0, 4368.0, 4380.0, 4367.0, 4369.0, 4368.0, 4379.0, 4369.0, 4366.0, 4368.0, 4365.0, 4365.0, 4368.0, 4368.0, 4368.0, 4368.0, 4366.0, 4368.0, 4378.0, 4379.0, 4377.0, 4380.0, 4378.0, 4378.0, 4380.0, 4380.0, 4390.0, 4381.0, 4381.0, 4380.0, 4368.0, 4378.0, 4381.0, 4376.0, 4365.0, 4366.0, 4376.0, 4378.0, 4389.0, 4378.0, 4376.0, 4379.0, 4378.0, 4377.0, 4380.0, 4377.0, 4370.0, 4378.0, 4377.0, 4378.0, 4379.0, 4379.0, 4381.0, 4378.0, 4379.0, 4378.0, 4380.0, 4381.0, 4379.0, 4379.0, 4368.0, 4378.0, 4379.0, 4365.0, 4368.0, 4378.0, 4376.0, 4382.0, 4379.0, 4377.0, 4380.0, 4378.0, 4379.0, 4378.0, 4380.0, 4380.0, 4381.0, 4382.0, 4391.0, 4383.0, 4394.0, 4397.0, 4393.0, 4381.0, 4380.0, 4382.0, 4378.0, 4380.0, 4369.0, 4369.0, 4380.0, 4369.0, 4368.0, 4380.0, 4380.0, 4380.0, 4378.0, 4368.0, 4368.0, 4378.0, 4370.0, 4380.0, 4381.0, 4381.0, 4370.0, 4380.0, 4368.0, 4368.0, 4367.0, 4381.0, 4379.0, 4381.0, 4381.0, 4382.0, 4379.0, 4378.0, 4368.0, 4365.0, 4367.0, 4379.0, 4368.0, 4379.0, 4379.0, 4379.0, 4378.0, 4372.0, 4370.0, 4371.0, 4368.0, 4378.0, 4370.0, 4370.0, 4367.0, 4369.0, 4369.0, 4379.0, 4369.0, 4379.0, 4377.0, 4382.0, 4367.0, 4367.0, 4370.0, 4367.0, 4366.0, 4370.0, 4369.0, 4381.0, 4369.0, 4380.0, 4381.0, 4382.0, 4379.0, 4381.0, 4371.0, 4369.0, 4380.0, 4367.0, 4380.0, 4381.0, 4369.0, 4369.0, 4370.0, 4368.0, 4367.0, 4379.0, 4379.0, 4380.0, 4382.0, 4380.0, 4380.0, 4380.0, 4382.0, 4367.0, 4371.0, 4369.0, 4367.0, 4379.0, 4380.0, 4369.0, 4369.0, 4368.0, 4366.0, 4368.0, 4380.0, 4394.0, 4392.0, 4383.0, 4382.0, 4381.0, 4380.0, 4372.0, 4380.0, 4369.0, 4379.0, 4371.0, 4370.0, 4371.0, 4368.0, 4368.0, 4379.0, 4380.0, 4383.0, 4381.0, 4380.0, 4382.0, 4381.0],
