{
  "AcquisitionMatrixPE": 106,
  "AcquisitionNumber": 1,
  "AcquisitionTime": "19:10:2.735000",
  "BandwidthPerPixelPhaseEncode": 16.846,
  "BaseResolution": 106,
  "BodyPartExamined": "BRAIN",
  "CoilCombinationMethod": "Sum of Squares",
  "ConsistencyInfo": "N4_VE11C_LATEST_20160120",
  "ConversionSoftware": "dcm2niix",
  "ConversionSoftwareVersion": "v1.0.20220720",
  "DerivedVendorReportedEchoSpacing": 0.000560012,
  "DeviceSerialNumber": "166108",
  "DwellTime": 1.8e-06,
  "EchoTime": 0.0352,
  "EchoTrainLength": 106,
  "EffectiveEchoSpacing": 0.000560012,
  "FlipAngle": 60,
  "HeudiconvVersion": "1.3.0",
  "ImageComments": "Unaliased MB4/PE3/LB",
  "ImageOrientationPatientDICOM": [1, 0, 0, 0, 0.919135, -0.393942],
  "ImageOrientationText": "Tra>Cor(-23.2)",
  "ImageType": [
    "ORIGINAL",
    "PRIMARY",
    "M",
    "MB",
    "ND",
    "MOSAIC"
],
  "ImagingFrequency": 123.244,
  "InPlanePhaseEncodingDirectionDICOM": "COL",
  "InstitutionAddress": "Bedford Way 26,London,London,GB,WC1H 0AP",
  "InstitutionName": "University College",
  "InstitutionalDepartmentName": "Department",
  "MRAcquisitionType": "2D",
  "MagneticFieldStrength": 3,
  "Manufacturer": "Siemens",
  "ManufacturersModelName": "Prisma",
  "MatrixCoilMode": "SENSE",
  "Modality": "MR",
  "MultibandAccelerationFactor": 4,
  "NonlinearGradientCorrection": false,
  "PartialFourier": 1,
  "PatientPosition": "HFS",
  "PercentPhaseFOV": 100,
  "PercentSampling": 100,
  "PhaseEncodingDirection": "j-",
  "PhaseEncodingSteps": 106,
  "PhaseResolution": 1,
  "PixelBandwidth": 2620,
  "ProcedureStepDescription": "Egor^MovieProject2",
  "ProtocolName": "func-bold_task-pRF_run-03",
  "PulseSequenceDetails": "%CustomerSeq%\\cmrr_mbep2d_bold",
  "ReceiveCoilActiveElements": "HEA;HEP",
  "ReceiveCoilName": "Head_32",
  "ReconMatrixPE": 106,
  "RepetitionTime": 1,
  "SAR": 0.0727049,
  "ScanOptions": "FS\\EXT",
  "ScanningSequence": "EP",
  "SequenceName": "epfid2d1_106",
  "SequenceVariant": "SK\\SS",
  "SeriesDescription": "func-bold_task-pRF_run-03",
  "SeriesNumber": 14,
  "ShimSetting": [-1542, 598, 7403, 187, -160, 65, 274, -28],
  "SliceThickness": 2,
  "SliceTiming": [0, 0.41, 0.8175, 0.245, 0.655, 0.0825, 0.49, 0.9, 0.3275, 0.735, 0.165, 0.5725, 0, 0.41, 0.8175, 0.245, 0.655, 0.0825, 0.49, 0.9, 0.3275, 0.735, 0.165, 0.5725, 0, 0.41, 0.8175, 0.245, 0.655, 0.0825, 0.49, 0.9, 0.3275, 0.735, 0.165, 0.5725, 0, 0.41, 0.8175, 0.245, 0.655, 0.0825, 0.49, 0.9, 0.3275, 0.735, 0.165, 0.5725],
  "SoftwareVersions": "syngo MR E11",
  "SpacingBetweenSlices": 2,
  "StationName": "AWP166108",
  "TaskName": "retinotopy",
  "TotalReadoutTime": 0.0588013,
  "TxRefAmp": 243.192,
  "WipMemBlock": "50429825-0964-48b3-a17d-2a4c043a40e9||Sequence: R016 ve11c/master r/e634e98; Dec 19 2017 11:00:25 by eja",
  "dcmmeta_affine": [
    [-2.0, 0.0, 0.0, 106.0],
    [0.0, 1.838270664215088, -0.7878837585449219, -78.30854034423828],
    [0.0, 0.7878837585449219, 1.838270664215088, -52.709075927734375],
    [0.0, 0.0, 0.0, 1.0]
],
  "dcmmeta_reorient_transform": [
    [0.0, -1.0, 0.0, 105.0],
    [1.0, 0.0, 0.0, 0.0],
    [0.0, 0.0, 1.0, 0.0],
    [0.0, 0.0, 0.0, 1.0]
],
  "dcmmeta_shape": [106, 106, 48, 356],
  "dcmmeta_slice_dim": 2,
  "dcmmeta_version": 0.6,
  "global": {
    "const": {
      "AcquisitionMatrix": [106, 0, 0, 106],
      "AngioFlag": "N",
      "BitsAllocated": 16,
      "BitsStored": 16,
      "BodyPartExamined": "BRAIN",
      "CardiacNumberOfImages": 1,
      "Columns": 742,
      "EchoNumbers": 1,
      "EchoTime": 35.2,
      "EchoTrainLength": 106,
      "FlipAngle": 60.0,
      "HighBit": 15,
      "ImageOrientationPatient": [1.0, 0.0, 0.0, 0.0, 0.9191353493768, -0.3939418859756],
      "ImagePositionPatient": [-742.0, -699.27996343253, 280.56575986416],
      "ImageType": [
        "ORIGINAL",
        "PRIMARY",
        "M",
        "MB",
        "ND",
        "MOSAIC"
],
      "ImagedNucleus": "1H",
      "ImagingFrequency": 123.243628,
      "InPlanePhaseEncodingDirection": "COL",
      "MRAcquisitionType": "2D",
      "MagneticFieldStrength": 3.0,
      "Manufacturer": "SIEMENS",
      "ManufacturerModelName": "Prisma",
      "Modality": "MR",
      "NominalInterval": 0,
      "NumberOfAverages": 1.0,
      "NumberOfPhaseEncodingSteps": 106,
      "PercentPhaseFieldOfView": 100.0,
      "PercentSampling": 100.0,
      "PerformedProcedureStepStartTime": "180500.288000",
      "PhotometricInterpretation": "MONOCHROME2",
      "PixelBandwidth": 2620.0,
      "PixelRepresentation": 0,
      "PixelSpacing": [2.0, 2.0],
      "ProtocolName": "func-bold_task-pRF_run-03",
      "RepetitionTime": 1000.0,
      "Rows": 742,
      "SAR": 0.0727049490502,
      "SamplesPerPixel": 1,
      "ScanOptions": [
        "FS",
        "EXT"
],
      "ScanningSequence": "EP",
      "SequenceName": "epfid2d1_106",
      "SequenceVariant": [
        "SK",
        "SS"
],
      "SeriesDescription": "func-bold_task-pRF_run-03",
      "SeriesNumber": 14,
      "SeriesTime": "191045.345000",
      "SliceLocation": -17.597759903638,
      "SliceThickness": 2.0,
      "SmallestImagePixelValue": 0,
      "SoftwareVersions": "syngo MR E11",
      "SpacingBetweenSlices": 1.9999999323348,
      "SpecificCharacterSet": "ISO_IR 100",
      "StudyID": "1",
      "StudyTime": "180500.189000",
      "TransmitCoilName": "Body",
      "VariableFlipAngleFlag": "N",
      "WindowCenterWidthExplanation": "Algo1",
      "dBdt": 0.0},
    "slices": {}
  },
  "time": {
    "samples": {
      "AcquisitionNumber": [1, 2, 3, 4, 5, 6, 7, 8, 9, 10, 11, 12, 13, 14, 15, 16, 17, 18, 19, 20, 21, 22, 23, 24, 25, 26, 27, 28, 29, 30, 31, 32, 33, 34, 35, 36, 37, 38, 39, 40, 41, 42, 43, 44, 45, 46, 47, 48, 49, 50, 51, 52, 53, 54, 55, 56, 57, 58, 59, 60, 61, 62, 63, 64, 65, 66, 67, 68, 69, 70, 71, 72, 73, 74, 75, 76, 77, 78, 79, 80, 81, 82, 83, 84, 85, 86, 87, 88, 89, 90, 91, 92, 93, 94, 95, 96, 97, 98, 99, 100, 101, 102, 103, 104, 105, 106, 107, 108, 109, 110, 111, 112, 113, 114, 115, 116, 117, 118, 119, 120, 121, 122, 123, 124, 125, 126, 127, 128, 129, 130, 131, 132, 133, 134, 135, 136, 137, 138, 139, 140, 141, 142, 143, 144, 145, 146, 147, 148, 149, 150, 151, 152, 153, 154, 155, 156, 157, 158, 159, 160, 161, 162, 163, 164, 165, 166, 167, 168, 169, 170, 171, 172, 173, 174, 175, 176, 177, 178, 179, 180, 181, 182, 183, 184, 185, 186, 187, 188, 189, 190, 191, 192, 193, 194, 195, 196, 197, 198, 199, 200, 201, 202, 203, 204, 205, 206, 207, 208, 209, 210, 211, 212, 213, 214, 215, 216, 217, 218, 219, 220, 221, 222, 223, 224, 225, 226, 227, 228, 229, 230, 231, 232, 233, 234, 235, 236, 237, 238, 239, 240, 241, 242, 243, 244, 245, 246, 247, 248, 249, 250, 251, 252, 253, 254, 255, 256, 257, 258, 259, 260, 261, 262, 263, 264, 265, 266, 267, 268, 269, 270, 271, 272, 273, 274, 275, 276, 277, 278, 279, 280, 281, 282, 283, 284, 285, 286, 287, 288, 289, 290, 291, 292, 293, 294, 295, 296, 297, 298, 299, 300, 301, 302, 303, 304, 305, 306, 307, 308, 309, 310, 311, 312, 313, 314, 315, 316, 317, 318, 319, 320, 321, 322, 323, 324, 325, 326, 327, 328, 329, 330, 331, 332, 333, 334, 335, 336, 337, 338, 339, 340, 341, 342, 343, 344, 345, 346, 347, 348, 349, 350, 351, 352, 353, 354, 355, 356],
      "AcquisitionTime": ["191002.735000", "191003.735000", "191004.735000", "191005.735000", "191006.735000", "191007.735000", "191008.735000", "191009.735000", "191010.735000", "191011.735000", "191012.735000", "191013.735000", "191014.735000", "191015.735000", "191016.735000", "191017.735000", "191018.735000", "191019.735000", "191020.735000", "191021.735000", "191022.735000", "191023.735000", "191024.735000", "191025.735000", "191026.735000", "191027.735000", "191028.735000", "191029.735000", "191030.735000", "191031.735000", "191032.735000", "191033.735000", "191034.735000", "191035.735000", "191036.735000", "191037.735000", "191038.735000", "191039.735000", "191040.735000", "191041.735000", "191042.735000", "191043.735000", "191044.735000", "191045.735000", "191046.735000", "191047.735000", "191048.735000", "191049.735000", "191050.735000", "191051.735000", "191052.735000", "191053.735000", "191054.735000", "191055.735000", "191056.735000", "191057.735000", "191058.735000", "191059.735000", "191100.735000", "191101.735000", "191102.735000", "191103.735000", "191104.735000", "191105.735000", "191106.735000", "191107.735000", "191108.735000", "191109.735000", "191110.735000", "191111.735000", "191112.735000", "191113.735000", "191114.735000", "191115.735000", "191116.735000", "191117.735000", "191118.735000", "191119.735000", "191120.735000", "191121.735000", "191122.735000", "191123.735000", "191124.735000", "191125.735000", "191126.735000", "191127.735000", "191128.735000", "191129.735000", "191130.735000", "191131.735000", "191132.735000", "191133.735000", "191134.735000", "191135.735000", "191136.735000", "191137.735000", "191138.735000", "191139.735000", "191140.735000", "191141.735000", "191142.735000", "191143.735000", "191144.735000", "191145.735000", "191146.735000", "191147.735000", "191148.735000", "191149.735000", "191150.735000", "191151.735000", "191152.735000", "191153.735000", "191154.735000", "191155.735000", "191156.735000", "191157.735000", "191158.735000", "191159.735000", "191200.735000", "191201.735000", "191202.735000", "191203.735000", "191204.735000", "191205.735000", "191206.735000", "191207.735000", "191208.735000", "191209.735000", "191210.735000", "191211.735000", "191212.735000", "191213.735000", "191214.735000", "191215.735000", "191216.735000", "191217.735000", "191218.735000", "191219.735000", "191220.735000", "191221.735000", "191222.735000", "191223.735000", "191224.735000", "191225.735000", "191226.735000", "191227.735000", "191228.735000", "191229.735000", "191230.735000", "191231.735000", "191232.735000", "191233.735000", "191234.735000", "191235.735000", "191236.735000", "191237.735000", "191238.735000", "191239.735000", "191240.735000", "191241.735000", "191242.735000", "191243.735000", "191244.735000", "191245.735000", "191246.735000", "191247.735000", "191248.735000", "191249.735000", "191250.735000", "191251.735000", "191252.735000", "191253.735000", "191254.735000", "191255.735000", "191256.735000", "191257.735000", "191258.735000", "191259.735000", "191300.735000", "191301.735000", "191302.735000", "191303.735000", "191304.735000", "191305.735000", "191306.735000", "191307.735000", "191308.735000", "191309.735000", "191310.735000", "191311.735000", "191312.735000", "191313.735000", "191314.735000", "191315.735000", "191316.735000", "191317.735000", "191318.735000", "191319.735000", "191320.735000", "191321.735000", "191322.735000", "191323.735000", "191324.735000", "191325.735000", "191326.735000", "191327.735000", "191328.735000", "191329.735000", "191330.735000", "191331.735000", "191332.735000", "191333.735000", "191334.735000", "191335.735000", "191336.735000", "191337.735000", "191338.735000", "191339.735000", "191340.735000", "191341.735000", "191342.735000", "191343.735000", "191344.735000", "191345.735000", "191346.735000", "191347.735000", "191348.735000", "191349.735000", "191350.735000", "191351.735000", "191352.735000", "191353.735000", "191354.735000", "191355.735000", "191356.735000", "191357.735000", "191358.735000", "191359.735000", "191400.735000", "191401.735000", "191402.735000", "191403.735000", "191404.735000", "191405.735000", "191406.735000", "191407.735000", "191408.735000", "191409.735000", "191410.735000", "191411.735000", "191412.735000", "191413.735000", "191414.735000", "191415.735000", "191416.735000", "191417.735000", "191418.735000", "191419.735000", "191420.735000", "191421.735000", "191422.735000", "191423.735000", "191424.735000", "191425.735000", "191426.735000", "191427.735000", "191428.735000", "191429.735000", "191430.735000", "191431.735000", "191432.735000", "191433.735000", "191434.735000", "191435.735000", "191436.735000", "191437.735000", "191438.735000", "191439.735000", "191440.735000", "191441.735000", "191442.735000", "191443.735000", "191444.735000", "191445.735000", "191446.735000", "191447.735000", "191448.735000", "191449.735000", "191450.735000", "191451.735000", "191452.735000", "191453.735000", "191454.735000", "191455.735000", "191456.735000", "191457.735000", "191458.735000", "191459.735000", "191500.735000", "191501.735000", "191502.735000", "191503.735000", "191504.735000", "191505.735000", "191506.735000", "191507.735000", "191508.735000", "191509.735000", "191510.735000", "191511.735000", "191512.735000", "191513.735000", "191514.735000", "191515.735000", "191516.735000", "191517.735000", "191518.735000", "191519.735000", "191520.735000", "191521.735000", "191522.735000", "191523.735000", "191524.735000", "191525.735000", "191526.735000", "191527.735000", "191528.735000", "191529.735000", "191530.735000", "191531.735000", "191532.735000", "191533.735000", "191534.735000", "191535.735000", "191536.735000", "191537.735000", "191538.735000", "191539.735000", "191540.735000", "191541.735000", "191542.735000", "191543.735000", "191544.735000", "191545.735000", "191546.735000", "191547.735000", "191548.735000", "191549.735000", "191550.735000", "191551.735000", "191552.735000", "191553.735000", "191554.735000", "191555.735000", "191556.735000", "191557.735000"],
      "ContentTime": ["191045.347000", "191045.350000", "191045.352000", "191045.355000", "191045.358000", "191045.360000", "191045.362000", "191045.365000", "191045.368000", "191045.370000", "191045.373000", "191045.375000", "191045.378000", "191045.380000", "191045.383000", "191045.385000", "191045.388000", "191045.391000", "191045.393000", "191045.396000", "191045.398000", "191045.401000", "191045.403000", "191045.406000", "191045.409000", "191045.411000", "191045.414000", "191045.416000", "191045.419000", "191045.421000", "191045.429000", "191045.432000", "191045.434000", "191045.437000", "191045.439000", "191045.442000", "191045.444000", "191045.447000", "191045.450000", "191045.452000", "191045.455000", "191045.457000", "191105.321000", "191105.324000", "191105.327000", "191105.329000", "191105.332000", "191105.334000", "191105.337000", "191105.340000", "191105.342000", "191105.345000", "191105.347000", "191105.350000", "191105.352000", "191105.355000", "191105.357000", "191105.360000", "191105.362000", "191105.365000", "191105.382000", "191105.385000", "191125.321000", "191125.324000", "191125.327000", "191125.329000", "191125.332000", "191125.334000", "191125.337000", "191125.339000", "191125.341000", "191125.344000", "191125.346000", "191125.349000", "191125.351000", "191125.354000", "191125.357000", "191125.359000", "191125.362000", "191125.364000", "191125.367000", "191125.369000", "191145.321000", "191145.324000", "191145.327000", "191145.329000", "191145.332000", "191145.334000", "191145.337000", "191145.339000", "191145.342000", "191145.344000", "191145.347000", "191145.349000", "191145.352000", "191145.354000", "191145.357000", "191145.359000", "191145.362000", "191145.364000", "191145.367000", "191145.369000", "191205.320000", "191205.323000", "191205.326000", "191205.328000", "191205.331000", "191205.333000", "191205.336000", "191205.338000", "191205.341000", "191205.343000", "191205.346000", "191205.348000", "191205.351000", "191205.353000", "191205.356000", "191205.358000", "191205.361000", "191205.364000", "191205.366000", "191205.369000", "191225.321000", "191225.323000", "191225.326000", "191225.328000", "191225.331000", "191225.333000", "191225.336000", "191225.338000", "191225.341000", "191225.343000", "191225.346000", "191225.348000", "191225.351000", "191225.353000", "191225.356000", "191225.358000", "191225.361000", "191225.364000", "191225.366000", "191225.369000", "191245.320000", "191245.323000", "191245.326000", "191245.328000", "191245.331000", "191245.333000", "191245.336000", "191245.338000", "191245.341000", "191245.343000", "191245.346000", "191245.348000", "191245.351000", "191245.354000", "191245.356000", "191245.359000", "191245.361000", "191245.364000", "191245.366000", "191245.369000", "191305.320000", "191305.323000", "191305.326000", "191305.328000", "191305.331000", "191305.333000", "191305.336000", "191305.338000", "191305.341000", "191305.343000", "191305.346000", "191305.349000", "191305.351000", "191305.354000", "191305.356000", "191305.360000", "191305.363000", "191305.365000", "191305.368000", "191305.370000", "191325.321000", "191325.324000", "191325.327000", "191325.329000", "191325.332000", "191325.335000", "191325.337000", "191325.340000", "191325.342000", "191325.345000", "191325.347000", "191325.350000", "191325.352000", "191325.354000", "191325.357000", "191325.359000", "191325.362000", "191325.364000", "191325.367000", "191325.370000", "191345.322000", "191345.325000", "191345.327000", "191345.330000", "191345.332000", "191345.335000", "191345.337000", "191345.340000", "191345.342000", "191345.345000", "191345.347000", "191345.350000", "191345.352000", "191345.355000", "191345.357000", "191345.360000", "191345.362000", "191345.365000", "191345.367000", "191345.370000", "191405.321000", "191405.324000", "191405.327000", "191405.329000", "191405.332000", "191405.334000", "191405.337000", "191405.339000", "191405.342000", "191405.344000", "191405.347000", "191405.349000", "191405.352000", "191405.354000", "191405.357000", "191405.360000", "191405.362000", "191405.365000", "191405.367000", "191405.370000", "191425.320000", "191425.323000", "191425.326000", "191425.328000", "191425.331000", "191425.333000", "191425.336000", "191425.338000", "191425.341000", "191425.343000", "191425.346000", "191425.348000", "191425.351000", "191425.353000", "191425.356000", "191425.358000", "191425.361000", "191425.363000", "191425.366000", "191425.369000", "191445.320000", "191445.323000", "191445.326000", "191445.328000", "191445.331000", "191445.333000", "191445.336000", "191445.338000", "191445.341000", "191445.343000", "191445.346000", "191445.348000", "191445.351000", "191445.353000", "191445.356000", "191445.369000", "191445.371000", "191445.374000", "191445.376000", "191445.379000", "191505.321000", "191505.323000", "191505.326000", "191505.328000", "191505.331000", "191505.333000", "191505.336000", "191505.338000", "191505.341000", "191505.343000", "191505.346000", "191505.349000", "191505.351000", "191505.354000", "191505.356000", "191505.359000", "191505.361000", "191505.364000", "191505.366000", "191505.369000", "191525.321000", "191525.323000", "191525.326000", "191525.328000", "191525.331000", "191525.333000", "191525.336000", "191525.339000", "191525.341000", "191525.344000", "191525.346000", "191525.349000", "191525.351000", "191525.354000", "191525.356000", "191525.359000", "191525.362000", "191525.364000", "191525.367000", "191525.369000", "191545.322000", "191545.324000", "191545.327000", "191545.330000", "191545.332000", "191545.335000", "191545.337000", "191545.340000", "191545.342000", "191545.345000", "191545.347000", "191545.350000", "191545.352000", "191545.355000", "191545.357000", "191545.360000", "191545.362000", "191545.365000", "191545.367000", "191545.370000", "191558.889000", "191558.892000", "191558.894000", "191558.898000", "191558.904000", "191558.906000", "191558.909000", "191558.912000", "191558.915000", "191558.918000", "191558.920000", "191558.923000", "191558.926000", "191558.928000"],
      "InstanceCreationTime": ["191045.347000", "191045.350000", "191045.352000", "191045.355000", "191045.358000", "191045.360000", "191045.362000", "191045.365000", "191045.368000", "191045.370000", "191045.373000", "191045.375000", "191045.378000", "191045.380000", "191045.383000", "191045.385000", "191045.388000", "191045.391000", "191045.393000", "191045.396000", "191045.398000", "191045.401000", "191045.403000", "191045.406000", "191045.409000", "191045.411000", "191045.414000", "191045.416000", "191045.419000", "191045.421000", "191045.429000", "191045.432000", "191045.434000", "191045.437000", "191045.439000", "191045.442000", "191045.444000", "191045.447000", "191045.450000", "191045.452000", "191045.455000", "191045.457000", "191105.321000", "191105.324000", "191105.327000", "191105.329000", "191105.332000", "191105.334000", "191105.337000", "191105.340000", "191105.342000", "191105.345000", "191105.347000", "191105.350000", "191105.352000", "191105.355000", "191105.357000", "191105.360000", "191105.362000", "191105.365000", "191105.382000", "191105.385000", "191125.321000", "191125.324000", "191125.327000", "191125.329000", "191125.332000", "191125.334000", "191125.337000", "191125.339000", "191125.341000", "191125.344000", "191125.346000", "191125.349000", "191125.351000", "191125.354000", "191125.357000", "191125.359000", "191125.362000", "191125.364000", "191125.367000", "191125.369000", "191145.321000", "191145.324000", "191145.327000", "191145.329000", "191145.332000", "191145.334000", "191145.337000", "191145.339000", "191145.342000", "191145.344000", "191145.347000", "191145.349000", "191145.352000", "191145.354000", "191145.357000", "191145.359000", "191145.362000", "191145.364000", "191145.367000", "191145.369000", "191205.320000", "191205.323000", "191205.326000", "191205.328000", "191205.331000", "191205.333000", "191205.336000", "191205.338000", "191205.341000", "191205.343000", "191205.346000", "191205.348000", "191205.351000", "191205.353000", "191205.356000", "191205.358000", "191205.361000", "191205.364000", "191205.366000", "191205.369000", "191225.321000", "191225.323000", "191225.326000", "191225.328000", "191225.331000", "191225.333000", "191225.336000", "191225.338000", "191225.341000", "191225.343000", "191225.346000", "191225.348000", "191225.351000", "191225.353000", "191225.356000", "191225.358000", "191225.361000", "191225.364000", "191225.366000", "191225.369000", "191245.320000", "191245.323000", "191245.326000", "191245.328000", "191245.331000", "191245.333000", "191245.336000", "191245.338000", "191245.341000", "191245.343000", "191245.346000", "191245.348000", "191245.351000", "191245.354000", "191245.356000", "191245.359000", "191245.361000", "191245.364000", "191245.366000", "191245.369000", "191305.320000", "191305.323000", "191305.326000", "191305.328000", "191305.331000", "191305.333000", "191305.336000", "191305.338000", "191305.341000", "191305.343000", "191305.346000", "191305.349000", "191305.351000", "191305.354000", "191305.356000", "191305.360000", "191305.363000", "191305.365000", "191305.368000", "191305.370000", "191325.321000", "191325.324000", "191325.327000", "191325.329000", "191325.332000", "191325.335000", "191325.337000", "191325.340000", "191325.342000", "191325.345000", "191325.347000", "191325.350000", "191325.352000", "191325.354000", "191325.357000", "191325.359000", "191325.362000", "191325.364000", "191325.367000", "191325.370000", "191345.322000", "191345.325000", "191345.327000", "191345.330000", "191345.332000", "191345.335000", "191345.337000", "191345.340000", "191345.342000", "191345.345000", "191345.347000", "191345.350000", "191345.352000", "191345.355000", "191345.357000", "191345.360000", "191345.362000", "191345.365000", "191345.367000", "191345.370000", "191405.321000", "191405.324000", "191405.327000", "191405.329000", "191405.332000", "191405.334000", "191405.337000", "191405.339000", "191405.342000", "191405.344000", "191405.347000", "191405.349000", "191405.352000", "191405.354000", "191405.357000", "191405.360000", "191405.362000", "191405.365000", "191405.367000", "191405.370000", "191425.320000", "191425.323000", "191425.326000", "191425.328000", "191425.331000", "191425.333000", "191425.336000", "191425.338000", "191425.341000", "191425.343000", "191425.346000", "191425.348000", "191425.351000", "191425.353000", "191425.356000", "191425.358000", "191425.361000", "191425.363000", "191425.366000", "191425.369000", "191445.320000", "191445.323000", "191445.326000", "191445.328000", "191445.331000", "191445.333000", "191445.336000", "191445.338000", "191445.341000", "191445.343000", "191445.346000", "191445.348000", "191445.351000", "191445.353000", "191445.356000", "191445.369000", "191445.371000", "191445.374000", "191445.376000", "191445.379000", "191505.321000", "191505.323000", "191505.326000", "191505.328000", "191505.331000", "191505.333000", "191505.336000", "191505.338000", "191505.341000", "191505.343000", "191505.346000", "191505.349000", "191505.351000", "191505.354000", "191505.356000", "191505.359000", "191505.361000", "191505.364000", "191505.366000", "191505.369000", "191525.321000", "191525.323000", "191525.326000", "191525.328000", "191525.331000", "191525.333000", "191525.336000", "191525.339000", "191525.341000", "191525.344000", "191525.346000", "191525.349000", "191525.351000", "191525.354000", "191525.356000", "191525.359000", "191525.362000", "191525.364000", "191525.367000", "191525.369000", "191545.322000", "191545.324000", "191545.327000", "191545.330000", "191545.332000", "191545.335000", "191545.337000", "191545.340000", "191545.342000", "191545.345000", "191545.347000", "191545.350000", "191545.352000", "191545.355000", "191545.357000", "191545.360000", "191545.362000", "191545.365000", "191545.367000", "191545.370000", "191558.889000", "191558.892000", "191558.894000", "191558.898000", "191558.904000", "191558.906000", "191558.909000", "191558.912000", "191558.915000", "191558.918000", "191558.920000", "191558.923000", "191558.926000", "191558.928000"],
      "InstanceNumber": [1, 2, 3, 4, 5, 6, 7, 8, 9, 10, 11, 12, 13, 14, 15, 16, 17, 18, 19, 20, 21, 22, 23, 24, 25, 26, 27, 28, 29, 30, 31, 32, 33, 34, 35, 36, 37, 38, 39, 40, 41, 42, 43, 44, 45, 46, 47, 48, 49, 50, 51, 52, 53, 54, 55, 56, 57, 58, 59, 60, 61, 62, 63, 64, 65, 66, 67, 68, 69, 70, 71, 72, 73, 74, 75, 76, 77, 78, 79, 80, 81, 82, 83, 84, 85, 86, 87, 88, 89, 90, 91, 92, 93, 94, 95, 96, 97, 98, 99, 100, 101, 102, 103, 104, 105, 106, 107, 108, 109, 110, 111, 112, 113, 114, 115, 116, 117, 118, 119, 120, 121, 122, 123, 124, 125, 126, 127, 128, 129, 130, 131, 132, 133, 134, 135, 136, 137, 138, 139, 140, 141, 142, 143, 144, 145, 146, 147, 148, 149, 150, 151, 152, 153, 154, 155, 156, 157, 158, 159, 160, 161, 162, 163, 164, 165, 166, 167, 168, 169, 170, 171, 172, 173, 174, 175, 176, 177, 178, 179, 180, 181, 182, 183, 184, 185, 186, 187, 188, 189, 190, 191, 192, 193, 194, 195, 196, 197, 198, 199, 200, 201, 202, 203, 204, 205, 206, 207, 208, 209, 210, 211, 212, 213, 214, 215, 216, 217, 218, 219, 220, 221, 222, 223, 224, 225, 226, 227, 228, 229, 230, 231, 232, 233, 234, 235, 236, 237, 238, 239, 240, 241, 242, 243, 244, 245, 246, 247, 248, 249, 250, 251, 252, 253, 254, 255, 256, 257, 258, 259, 260, 261, 262, 263, 264, 265, 266, 267, 268, 269, 270, 271, 272, 273, 274, 275, 276, 277, 278, 279, 280, 281, 282, 283, 284, 285, 286, 287, 288, 289, 290, 291, 292, 293, 294, 295, 296, 297, 298, 299, 300, 301, 302, 303, 304, 305, 306, 307, 308, 309, 310, 311, 312, 313, 314, 315, 316, 317, 318, 319, 320, 321, 322, 323, 324, 325, 326, 327, 328, 329, 330, 331, 332, 333, 334, 335, 336, 337, 338, 339, 340, 341, 342, 343, 344, 345, 346, 347, 348, 349, 350, 351, 352, 353, 354, 355, 356],
      "LargestImagePixelValue": [13745, 13236, 12922, 13080, 12966, 12669, 12920, 12776, 12402, 12841, 12363, 12157, 12312, 12181, 12156, 12570, 12192, 12179, 12395, 12618, 12618, 12334, 12800, 12452, 12394, 12732, 12231, 12329, 12865, 12277, 12708, 12504, 12284, 12546, 12781, 12361, 12567, 12768, 12383, 12769, 12440, 12545, 12465, 12335, 12708, 12661, 12565, 12658, 12517, 12661, 12633, 12328, 12663, 12536, 12474, 12750, 12632, 12655, 12950, 12575, 12628, 12773, 12470, 12884, 12760, 12079, 12754, 12390, 12199, 12402, 12414, 12690, 12486, 12750, 12817, 12389, 12699, 12614, 12264, 12833, 12433, 12667, 12606, 12311, 12507, 12430, 12408, 12693, 12495, 12296, 12656, 12200, 12635, 12700, 12695, 12426, 13001, 12415, 12763, 12703, 12582, 12835, 12595, 12790, 12749, 12509, 12928, 12500, 12438, 12639, 12312, 12815, 12610, 12705, 12770, 12399, 12728, 12648, 12577, 12668, 12565, 12307, 12379, 12409, 12551, 12660, 12552, 12818, 12466, 12723, 12609, 12354, 12917, 12349, 12813, 12755, 12577, 12596, 12364, 12475, 12723, 12491, 12562, 12725, 12361, 12684, 12619, 12608, 12850, 12640, 12510, 12713, 12627, 12462, 12693, 12433, 12279, 12708, 12648, 12557, 12591, 12354, 12426, 12697, 12605, 12329, 12831, 12373, 12617, 12553, 12404, 12840, 12491, 12492, 12709, 12448, 12650, 12638, 12337, 12692, 12683, 12608, 12769, 12387, 12389, 12507, 12810, 12474, 12761, 12845, 12362, 12696, 12524, 12342, 12781, 12507, 12542, 12422, 12508, 12616, 12259, 12306, 12533, 12584, 12419, 12463, 12530, 12591, 12564, 12832, 12639, 12764, 12700, 12552, 12929, 12613, 12656, 12705, 12553, 13144, 12702, 12504, 12795, 12658, 12641, 12701, 12519, 12723, 12770, 12654, 12689, 12421, 12487, 13040, 12787, 12605, 12901, 12610, 12949, 12598, 12425, 12780, 12501, 12527, 12562, 12378, 12718, 12435, 12528, 12813, 12546, 12783, 12474, 12358, 12778, 12525, 12615, 12859, 12407, 12659, 12568, 12381, 12295, 12471, 12743, 12572, 12633, 12694, 12267, 12152, 12661, 12388, 12428, 12751, 12433, 12408, 12673, 12465, 12588, 12485, 12291, 12700, 12434, 12479, 12663, 12463, 12352, 12629, 12470, 12231, 12555, 12385, 12472, 12533, 12546, 12779, 12468, 12591, 12604, 12349, 12557, 12701, 12279, 12536, 12389, 12251, 12418, 12627, 12440, 12130, 12245, 12119, 12151, 12258, 12215, 12356, 12200, 12153, 12351, 12222, 12235, 12488, 12214, 12244, 12700, 12165, 12484, 12626, 12383, 12421, 12411, 12904, 12566, 12463, 12510, 12375, 12636, 12555, 12597, 12730, 12559, 12429, 12763, 12701, 12522, 12651, 12550, 12676, 12583, 12535, 12633, 12185, 12381, 12508, 12565, 12575],
