{
  "AcquisitionMatrixPE": 106,
  "AcquisitionNumber": 1,
  "AcquisitionTime": "18:55:52.707500",
  "BandwidthPerPixelPhaseEncode": 16.846,
  "BaseResolution": 106,
  "BodyPartExamined": "BRAIN",
  "CoilCombinationMethod": "Sum of Squares",
  "ConsistencyInfo": "N4_VE11C_LATEST_20160120",
  "ConversionSoftware": "dcm2niix",
  "ConversionSoftwareVersion": "v1.0.20220720",
  "DerivedVendorReportedEchoSpacing": 0.000560012,
  "DeviceSerialNumber": "166108",
  "DwellTime": 1.8e-06,
  "EchoTime": 0.0352,
  "EchoTrainLength": 106,
  "EffectiveEchoSpacing": 0.000560012,
  "FlipAngle": 60,
  "HeudiconvVersion": "1.3.0",
  "ImageComments": "Unaliased MB4/PE3/LB",
  "ImageOrientationPatientDICOM": [1, 0, 0, 0, 0.919135, -0.393942],
  "ImageOrientationText": "Tra>Cor(-23.2)",
  "ImageType": [
    "ORIGINAL",
    "PRIMARY",
    "M",
    "MB",
    "ND",
    "MOSAIC"
],
  "ImagingFrequency": 123.244,
  "InPlanePhaseEncodingDirectionDICOM": "COL",
  "InstitutionAddress": "Bedford Way 26,London,London,GB,WC1H 0AP",
  "InstitutionName": "University College",
  "InstitutionalDepartmentName": "Department",
  "MRAcquisitionType": "2D",
  "MagneticFieldStrength": 3,
  "Manufacturer": "Siemens",
  "ManufacturersModelName": "Prisma",
  "MatrixCoilMode": "SENSE",
  "Modality": "MR",
  "MultibandAccelerationFactor": 4,
  "NonlinearGradientCorrection": false,
  "PartialFourier": 1,
  "PatientPosition": "HFS",
  "PercentPhaseFOV": 100,
  "PercentSampling": 100,
  "PhaseEncodingDirection": "j-",
  "PhaseEncodingSteps": 106,
  "PhaseResolution": 1,
  "PixelBandwidth": 2620,
  "ProcedureStepDescription": "Egor^MovieProject2",
  "ProtocolName": "func-bold_task-pRF_run-01",
  "PulseSequenceDetails": "%CustomerSeq%\\cmrr_mbep2d_bold",
  "ReceiveCoilActiveElements": "HEA;HEP",
  "ReceiveCoilName": "Head_32",
  "ReconMatrixPE": 106,
  "RepetitionTime": 1,
  "SAR": 0.0727049,
  "ScanOptions": "FS\\EXT",
  "ScanningSequence": "EP",
  "SequenceName": "epfid2d1_106",
  "SequenceVariant": "SK\\SS",
  "SeriesDescription": "func-bold_task-pRF_run-01",
  "SeriesNumber": 10,
  "ShimSetting": [-1542, 598, 7403, 187, -160, 65, 274, -28],
  "SliceThickness": 2,
  "SliceTiming": [0, 0.4075, 0.815, 0.245, 0.6525, 0.08, 0.49, 0.8975, 0.325, 0.735, 0.1625, 0.57, 0, 0.4075, 0.815, 0.245, 0.6525, 0.08, 0.49, 0.8975, 0.325, 0.735, 0.1625, 0.57, 0, 0.4075, 0.815, 0.245, 0.6525, 0.08, 0.49, 0.8975, 0.325, 0.735, 0.1625, 0.57, 0, 0.4075, 0.815, 0.245, 0.6525, 0.08, 0.49, 0.8975, 0.325, 0.735, 0.1625, 0.57],
  "SoftwareVersions": "syngo MR E11",
  "SpacingBetweenSlices": 2,
  "StationName": "AWP166108",
  "TaskName": "retinotopy",
  "TotalReadoutTime": 0.0588013,
  "TxRefAmp": 243.192,
  "WipMemBlock": "33b3cb65-f83e-4e81-8446-da784d280650||Sequence: R016 ve11c/master r/e634e98; Dec 19 2017 11:00:25 by eja",
  "dcmmeta_affine": [
    [-2.0, 0.0, 0.0, 106.0],
    [0.0, 1.838270664215088, -0.7878837585449219, -78.30854034423828],
    [0.0, 0.7878837585449219, 1.838270664215088, -52.709075927734375],
    [0.0, 0.0, 0.0, 1.0]
],
  "dcmmeta_reorient_transform": [
    [0.0, -1.0, 0.0, 105.0],
    [1.0, 0.0, 0.0, 0.0],
    [0.0, 0.0, 1.0, 0.0],
    [0.0, 0.0, 0.0, 1.0]
],
  "dcmmeta_shape": [106, 106, 48, 356],
  "dcmmeta_slice_dim": 2,
  "dcmmeta_version": 0.6,
  "global": {
    "const": {
      "AcquisitionMatrix": [106, 0, 0, 106],
      "AngioFlag": "N",
      "BitsAllocated": 16,
      "BitsStored": 16,
      "BodyPartExamined": "BRAIN",
      "CardiacNumberOfImages": 1,
      "Columns": 742,
      "EchoNumbers": 1,
      "EchoTime": 35.2,
      "EchoTrainLength": 106,
      "FlipAngle": 60.0,
      "HighBit": 15,
      "ImageOrientationPatient": [1.0, 0.0, 0.0, 0.0, 0.9191353493768, -0.3939418859756],
      "ImagePositionPatient": [-742.0, -699.27996343253, 280.56575986416],
      "ImageType": [
        "ORIGINAL",
        "PRIMARY",
        "M",
        "MB",
        "ND",
        "MOSAIC"
],
      "ImagedNucleus": "1H",
      "ImagingFrequency": 123.243619,
      "InPlanePhaseEncodingDirection": "COL",
      "MRAcquisitionType": "2D",
      "MagneticFieldStrength": 3.0,
      "Manufacturer": "SIEMENS",
      "ManufacturerModelName": "Prisma",
      "Modality": "MR",
      "NominalInterval": 0,
      "NumberOfAverages": 1.0,
      "NumberOfPhaseEncodingSteps": 106,
      "PercentPhaseFieldOfView": 100.0,
      "PercentSampling": 100.0,
      "PerformedProcedureStepStartTime": "180500.288000",
      "PhotometricInterpretation": "MONOCHROME2",
      "PixelBandwidth": 2620.0,
      "PixelRepresentation": 0,
      "PixelSpacing": [2.0, 2.0],
      "ProtocolName": "func-bold_task-pRF_run-01",
      "RepetitionTime": 1000.0,
      "Rows": 742,
      "SAR": 0.0727049490502,
      "SamplesPerPixel": 1,
      "ScanOptions": [
        "FS",
        "EXT"
],
      "ScanningSequence": "EP",
      "SequenceName": "epfid2d1_106",
      "SequenceVariant": [
        "SK",
        "SS"
],
      "SeriesDescription": "func-bold_task-pRF_run-01",
      "SeriesNumber": 10,
      "SeriesTime": "185632.201000",
      "SliceLocation": -17.597759903638,
      "SliceThickness": 2.0,
      "SmallestImagePixelValue": 0,
      "SoftwareVersions": "syngo MR E11",
      "SpacingBetweenSlices": 1.9999999323348,
      "SpecificCharacterSet": "ISO_IR 100",
      "StudyID": "1",
      "StudyTime": "180500.189000",
      "TransmitCoilName": "Body",
      "VariableFlipAngleFlag": "N",
      "WindowCenterWidthExplanation": "Algo1",
      "dBdt": 0.0},
    "slices": {}
  },
  "time": {
    "samples": {
      "AcquisitionNumber": [1, 2, 3, 4, 5, 6, 7, 8, 9, 10, 11, 12, 13, 14, 15, 16, 17, 18, 19, 20, 21, 22, 23, 24, 25, 26, 27, 28, 29, 30, 31, 32, 33, 34, 35, 36, 37, 38, 39, 40, 41, 42, 43, 44, 45, 46, 47, 48, 49, 50, 51, 52, 53, 54, 55, 56, 57, 58, 59, 60, 61, 62, 63, 64, 65, 66, 67, 68, 69, 70, 71, 72, 73, 74, 75, 76, 77, 78, 79, 80, 81, 82, 83, 84, 85, 86, 87, 88, 89, 90, 91, 92, 93, 94, 95, 96, 97, 98, 99, 100, 101, 102, 103, 104, 105, 106, 107, 108, 109, 110, 111, 112, 113, 114, 115, 116, 117, 118, 119, 120, 121, 122, 123, 124, 125, 126, 127, 128, 129, 130, 131, 132, 133, 134, 135, 136, 137, 138, 139, 140, 141, 142, 143, 144, 145, 146, 147, 148, 149, 150, 151, 152, 153, 154, 155, 156, 157, 158, 159, 160, 161, 162, 163, 164, 165, 166, 167, 168, 169, 170, 171, 172, 173, 174, 175, 176, 177, 178, 179, 180, 181, 182, 183, 184, 185, 186, 187, 188, 189, 190, 191, 192, 193, 194, 195, 196, 197, 198, 199, 200, 201, 202, 203, 204, 205, 206, 207, 208, 209, 210, 211, 212, 213, 214, 215, 216, 217, 218, 219, 220, 221, 222, 223, 224, 225, 226, 227, 228, 229, 230, 231, 232, 233, 234, 235, 236, 237, 238, 239, 240, 241, 242, 243, 244, 245, 246, 247, 248, 249, 250, 251, 252, 253, 254, 255, 256, 257, 258, 259, 260, 261, 262, 263, 264, 265, 266, 267, 268, 269, 270, 271, 272, 273, 274, 275, 276, 277, 278, 279, 280, 281, 282, 283, 284, 285, 286, 287, 288, 289, 290, 291, 292, 293, 294, 295, 296, 297, 298, 299, 300, 301, 302, 303, 304, 305, 306, 307, 308, 309, 310, 311, 312, 313, 314, 315, 316, 317, 318, 319, 320, 321, 322, 323, 324, 325, 326, 327, 328, 329, 330, 331, 332, 333, 334, 335, 336, 337, 338, 339, 340, 341, 342, 343, 344, 345, 346, 347, 348, 349, 350, 351, 352, 353, 354, 355, 356],
      "AcquisitionTime": ["185552.707500", "185553.707500", "185554.707500", "185555.707500", "185556.707500", "185557.707500", "185558.707500", "185559.707500", "185600.707500", "185601.707500", "185602.707500", "185603.707500", "185604.707500", "185605.707500", "185606.707500", "185607.707500", "185608.707500", "185609.707500", "185610.707500", "185611.707500", "185612.707500", "185613.707500", "185614.707500", "185615.707500", "185616.707500", "185617.707500", "185618.707500", "185619.707500", "185620.707500", "185621.707500", "185622.707500", "185623.707500", "185624.707500", "185625.707500", "185626.707500", "185627.707500", "185628.707500", "185629.707500", "185630.707500", "185631.707500", "185632.707500", "185633.707500", "185634.707500", "185635.707500", "185636.707500", "185637.707500", "185638.707500", "185639.707500", "185640.707500", "185641.707500", "185642.707500", "185643.707500", "185644.707500", "185645.707500", "185646.707500", "185647.707500", "185648.707500", "185649.707500", "185650.707500", "185651.707500", "185652.707500", "185653.707500", "185654.707500", "185655.707500", "185656.707500", "185657.707500", "185658.707500", "185659.707500", "185700.707500", "185701.707500", "185702.707500", "185703.707500", "185704.707500", "185705.707500", "185706.707500", "185707.707500", "185708.707500", "185709.707500", "185710.707500", "185711.707500", "185712.707500", "185713.707500", "185714.707500", "185715.707500", "185716.707500", "185717.707500", "185718.707500", "185719.707500", "185720.707500", "185721.707500", "185722.707500", "185723.707500", "185724.707500", "185725.707500", "185726.707500", "185727.707500", "185728.707500", "185729.707500", "185730.707500", "185731.707500", "185732.707500", "185733.707500", "185734.707500", "185735.707500", "185736.707500", "185737.707500", "185738.707500", "185739.707500", "185740.707500", "185741.707500", "185742.707500", "185743.707500", "185744.707500", "185745.707500", "185746.707500", "185747.707500", "185748.707500", "185749.707500", "185750.707500", "185751.707500", "185752.707500", "185753.707500", "185754.707500", "185755.707500", "185756.707500", "185757.707500", "185758.707500", "185759.707500", "185800.707500", "185801.707500", "185802.707500", "185803.707500", "185804.707500", "185805.707500", "185806.707500", "185807.707500", "185808.707500", "185809.707500", "185810.707500", "185811.707500", "185812.707500", "185813.707500", "185814.707500", "185815.707500", "185816.707500", "185817.707500", "185818.707500", "185819.707500", "185820.707500", "185821.707500", "185822.707500", "185823.707500", "185824.707500", "185825.707500", "185826.707500", "185827.707500", "185828.707500", "185829.707500", "185830.707500", "185831.707500", "185832.707500", "185833.707500", "185834.707500", "185835.707500", "185836.707500", "185837.707500", "185838.707500", "185839.707500", "185840.707500", "185841.707500", "185842.707500", "185843.707500", "185844.707500", "185845.707500", "185846.707500", "185847.707500", "185848.707500", "185849.707500", "185850.707500", "185851.707500", "185852.707500", "185853.707500", "185854.707500", "185855.707500", "185856.707500", "185857.707500", "185858.707500", "185859.707500", "185900.707500", "185901.707500", "185902.707500", "185903.707500", "185904.707500", "185905.707500", "185906.707500", "185907.707500", "185908.707500", "185909.707500", "185910.707500", "185911.707500", "185912.707500", "185913.707500", "185914.707500", "185915.707500", "185916.707500", "185917.707500", "185918.707500", "185919.707500", "185920.707500", "185921.707500", "185922.707500", "185923.707500", "185924.707500", "185925.707500", "185926.707500", "185927.707500", "185928.707500", "185929.707500", "185930.707500", "185931.707500", "185932.707500", "185933.707500", "185934.707500", "185935.707500", "185936.707500", "185937.707500", "185938.707500", "185939.707500", "185940.707500", "185941.707500", "185942.707500", "185943.707500", "185944.707500", "185945.707500", "185946.707500", "185947.707500", "185948.707500", "185949.707500", "185950.707500", "185951.707500", "185952.707500", "185953.707500", "185954.707500", "185955.707500", "185956.707500", "185957.707500", "185958.707500", "185959.707500", "190000.707500", "190001.707500", "190002.707500", "190003.707500", "190004.707500", "190005.707500", "190006.707500", "190007.707500", "190008.707500", "190009.707500", "190010.707500", "190011.707500", "190012.707500", "190013.707500", "190014.707500", "190015.707500", "190016.707500", "190017.707500", "190018.707500", "190019.707500", "190020.707500", "190021.707500", "190022.707500", "190023.707500", "190024.707500", "190025.707500", "190026.707500", "190027.707500", "190028.707500", "190029.707500", "190030.707500", "190031.707500", "190032.707500", "190033.707500", "190034.707500", "190035.707500", "190036.707500", "190037.707500", "190038.707500", "190039.707500", "190040.707500", "190041.707500", "190042.707500", "190043.707500", "190044.707500", "190045.707500", "190046.707500", "190047.707500", "190048.707500", "190049.707500", "190050.707500", "190051.707500", "190052.707500", "190053.707500", "190054.707500", "190055.707500", "190056.707500", "190057.707500", "190058.707500", "190059.707500", "190100.707500", "190101.707500", "190102.707500", "190103.707500", "190104.707500", "190105.707500", "190106.707500", "190107.707500", "190108.707500", "190109.707500", "190110.707500", "190111.707500", "190112.707500", "190113.707500", "190114.707500", "190115.707500", "190116.707500", "190117.707500", "190118.707500", "190119.707500", "190120.707500", "190121.707500", "190122.707500", "190123.707500", "190124.707500", "190125.707500", "190126.707500", "190127.707500", "190128.707500", "190129.707500", "190130.707500", "190131.707500", "190132.707500", "190133.707500", "190134.707500", "190135.707500", "190136.707500", "190137.707500", "190138.707500", "190139.707500", "190140.707500", "190141.707500", "190142.707500", "190143.707500", "190144.707500", "190145.707500", "190146.707500", "190147.707500"],
      "ContentTime": ["185632.203000", "185632.206000", "185632.209000", "185632.211000", "185632.214000", "185632.216000", "185632.218000", "185632.221000", "185632.224000", "185632.226000", "185632.229000", "185632.231000", "185632.234000", "185632.236000", "185632.239000", "185632.241000", "185632.244000", "185632.252000", "185632.254000", "185632.257000", "185632.259000", "185632.262000", "185632.264000", "185632.269000", "185632.272000", "185632.275000", "185632.277000", "185632.280000", "185632.282000", "185632.285000", "185632.287000", "185632.290000", "185632.292000", "185632.295000", "185632.297000", "185632.300000", "185632.302000", "185632.305000", "185652.170000", "185652.173000", "185652.176000", "185652.178000", "185652.181000", "185652.184000", "185652.186000", "185652.189000", "185652.191000", "185652.194000", "185652.196000", "185652.199000", "185652.201000", "185652.204000", "185652.206000", "185652.216000", "185652.219000", "185652.221000", "185652.224000", "185652.226000", "185712.170000", "185712.173000", "185712.176000", "185712.179000", "185712.181000", "185712.184000", "185712.186000", "185712.189000", "185712.191000", "185712.194000", "185712.196000", "185712.199000", "185712.201000", "185712.204000", "185712.206000", "185712.209000", "185712.211000", "185712.214000", "185712.216000", "185712.219000", "185732.170000", "185732.173000", "185732.176000", "185732.178000", "185732.181000", "185732.183000", "185732.186000", "185732.189000", "185732.191000", "185732.194000", "185732.196000", "185732.199000", "185732.201000", "185732.204000", "185732.206000", "185732.209000", "185732.211000", "185732.214000", "185732.216000", "185732.219000", "185752.170000", "185752.173000", "185752.176000", "185752.179000", "185752.181000", "185752.184000", "185752.195000", "185752.197000", "185752.200000", "185752.202000", "185752.205000", "185752.207000", "185752.210000", "185752.213000", "185752.216000", "185752.218000", "185752.221000", "185752.223000", "185752.226000", "185752.228000", "185812.170000", "185812.173000", "185812.176000", "185812.179000", "185812.181000", "185812.184000", "185812.186000", "185812.189000", "185812.191000", "185812.194000", "185812.196000", "185812.199000", "185812.201000", "185812.204000", "185812.206000", "185812.209000", "185812.211000", "185812.214000", "185812.217000", "185812.219000", "185832.170000", "185832.173000", "185832.176000", "185832.178000", "185832.181000", "185832.184000", "185832.186000", "185832.189000", "185832.191000", "185832.194000", "185832.196000", "185832.199000", "185832.201000", "185832.204000", "185832.206000", "185832.209000", "185832.211000", "185832.214000", "185832.216000", "185832.219000", "185852.171000", "185852.173000", "185852.176000", "185852.178000", "185852.181000", "185852.184000", "185852.186000", "185852.189000", "185852.192000", "185852.194000", "185852.197000", "185852.199000", "185852.202000", "185852.204000", "185852.207000", "185852.209000", "185852.212000", "185852.214000", "185852.217000", "185852.219000", "185912.170000", "185912.173000", "185912.176000", "185912.178000", "185912.181000", "185912.184000", "185912.192000", "185912.195000", "185912.197000", "185912.200000", "185912.202000", "185912.205000", "185912.207000", "185912.210000", "185912.212000", "185912.215000", "185912.217000", "185912.220000", "185912.222000", "185912.225000", "185932.171000", "185932.173000", "185932.176000", "185932.178000", "185932.181000", "185932.184000", "185932.186000", "185932.189000", "185932.191000", "185932.194000", "185932.196000", "185932.199000", "185932.201000", "185932.204000", "185932.206000", "185932.209000", "185932.211000", "185932.214000", "185932.217000", "185932.219000", "185952.171000", "185952.173000", "185952.176000", "185952.178000", "185952.181000", "185952.184000", "185952.186000", "185952.189000", "185952.192000", "185952.194000", "185952.197000", "185952.199000", "185952.202000", "185952.204000", "185952.207000", "185952.209000", "185952.212000", "185952.214000", "185952.217000", "185952.219000", "190012.171000", "190012.173000", "190012.176000", "190012.178000", "190012.181000", "190012.184000", "190012.186000", "190012.189000", "190012.191000", "190012.194000", "190012.196000", "190012.199000", "190012.201000", "190012.204000", "190012.207000", "190012.209000", "190012.212000", "190012.214000", "190012.217000", "190012.219000", "190032.171000", "190032.173000", "190032.176000", "190032.178000", "190032.181000", "190032.184000", "190032.186000", "190032.189000", "190032.192000", "190032.194000", "190032.197000", "190032.199000", "190032.202000", "190032.204000", "190032.207000", "190032.209000", "190032.212000", "190032.214000", "190032.217000", "190032.219000", "190052.170000", "190052.173000", "190052.176000", "190052.178000", "190052.181000", "190052.183000", "190052.186000", "190052.188000", "190052.191000", "190052.194000", "190052.196000", "190052.199000", "190052.201000", "190052.204000", "190052.206000", "190052.209000", "190052.211000", "190052.214000", "190052.216000", "190052.219000", "190112.170000", "190112.173000", "190112.176000", "190112.178000", "190112.181000", "190112.183000", "190112.186000", "190112.189000", "190112.191000", "190112.194000", "190112.197000", "190112.199000", "190112.202000", "190112.204000", "190112.207000", "190112.209000", "190112.212000", "190112.214000", "190112.217000", "190112.219000", "190132.170000", "190132.173000", "190132.176000", "190132.178000", "190132.181000", "190132.183000", "190132.186000", "190132.189000", "190132.192000", "190132.194000", "190132.197000", "190132.199000", "190132.202000", "190132.205000", "190132.207000", "190132.210000", "190132.212000", "190132.215000", "190132.218000", "190132.220000", "190149.425000", "190149.428000", "190149.430000", "190149.433000", "190149.436000", "190149.438000", "190149.441000", "190149.443000", "190149.446000", "190149.448000", "190149.451000", "190149.453000", "190149.456000", "190149.458000", "190149.461000", "190149.463000", "190149.466000", "190149.469000"],
      "InstanceCreationTime": ["185632.203000", "185632.206000", "185632.209000", "185632.211000", "185632.214000", "185632.216000", "185632.218000", "185632.221000", "185632.224000", "185632.226000", "185632.229000", "185632.231000", "185632.234000", "185632.236000", "185632.239000", "185632.241000", "185632.244000", "185632.252000", "185632.254000", "185632.257000", "185632.259000", "185632.262000", "185632.264000", "185632.269000", "185632.272000", "185632.275000", "185632.277000", "185632.280000", "185632.282000", "185632.285000", "185632.287000", "185632.290000", "185632.292000", "185632.295000", "185632.297000", "185632.300000", "185632.302000", "185632.305000", "185652.170000", "185652.173000", "185652.176000", "185652.178000", "185652.181000", "185652.184000", "185652.186000", "185652.189000", "185652.191000", "185652.194000", "185652.196000", "185652.199000", "185652.201000", "185652.204000", "185652.206000", "185652.216000", "185652.219000", "185652.221000", "185652.224000", "185652.226000", "185712.170000", "185712.173000", "185712.176000", "185712.179000", "185712.181000", "185712.184000", "185712.186000", "185712.189000", "185712.191000", "185712.194000", "185712.196000", "185712.199000", "185712.201000", "185712.204000", "185712.206000", "185712.209000", "185712.211000", "185712.214000", "185712.216000", "185712.219000", "185732.170000", "185732.173000", "185732.176000", "185732.178000", "185732.181000", "185732.183000", "185732.186000", "185732.189000", "185732.191000", "185732.194000", "185732.196000", "185732.199000", "185732.201000", "185732.204000", "185732.206000", "185732.209000", "185732.211000", "185732.214000", "185732.216000", "185732.219000", "185752.170000", "185752.173000", "185752.176000", "185752.179000", "185752.181000", "185752.184000", "185752.195000", "185752.197000", "185752.200000", "185752.202000", "185752.205000", "185752.207000", "185752.210000", "185752.213000", "185752.216000", "185752.218000", "185752.221000", "185752.223000", "185752.226000", "185752.228000", "185812.170000", "185812.173000", "185812.176000", "185812.179000", "185812.181000", "185812.184000", "185812.186000", "185812.189000", "185812.191000", "185812.194000", "185812.196000", "185812.199000", "185812.201000", "185812.204000", "185812.206000", "185812.209000", "185812.211000", "185812.214000", "185812.217000", "185812.219000", "185832.170000", "185832.173000", "185832.176000", "185832.178000", "185832.181000", "185832.184000", "185832.186000", "185832.189000", "185832.191000", "185832.194000", "185832.196000", "185832.199000", "185832.201000", "185832.204000", "185832.206000", "185832.209000", "185832.211000", "185832.214000", "185832.216000", "185832.219000", "185852.171000", "185852.173000", "185852.176000", "185852.178000", "185852.181000", "185852.184000", "185852.186000", "185852.189000", "185852.192000", "185852.194000", "185852.197000", "185852.199000", "185852.202000", "185852.204000", "185852.207000", "185852.209000", "185852.212000", "185852.214000", "185852.217000", "185852.219000", "185912.170000", "185912.173000", "185912.176000", "185912.178000", "185912.181000", "185912.184000", "185912.192000", "185912.195000", "185912.197000", "185912.200000", "185912.202000", "185912.205000", "185912.207000", "185912.210000", "185912.212000", "185912.215000", "185912.217000", "185912.220000", "185912.222000", "185912.225000", "185932.171000", "185932.173000", "185932.176000", "185932.178000", "185932.181000", "185932.184000", "185932.186000", "185932.189000", "185932.191000", "185932.194000", "185932.196000", "185932.199000", "185932.201000", "185932.204000", "185932.206000", "185932.209000", "185932.211000", "185932.214000", "185932.217000", "185932.219000", "185952.171000", "185952.173000", "185952.176000", "185952.178000", "185952.181000", "185952.184000", "185952.186000", "185952.189000", "185952.192000", "185952.194000", "185952.197000", "185952.199000", "185952.202000", "185952.204000", "185952.207000", "185952.209000", "185952.212000", "185952.214000", "185952.217000", "185952.219000", "190012.171000", "190012.173000", "190012.176000", "190012.178000", "190012.181000", "190012.184000", "190012.186000", "190012.189000", "190012.191000", "190012.194000", "190012.196000", "190012.199000", "190012.201000", "190012.204000", "190012.207000", "190012.209000", "190012.212000", "190012.214000", "190012.217000", "190012.219000", "190032.171000", "190032.173000", "190032.176000", "190032.178000", "190032.181000", "190032.184000", "190032.186000", "190032.189000", "190032.192000", "190032.194000", "190032.197000", "190032.199000", "190032.202000", "190032.204000", "190032.207000", "190032.209000", "190032.212000", "190032.214000", "190032.217000", "190032.219000", "190052.170000", "190052.173000", "190052.176000", "190052.178000", "190052.181000", "190052.183000", "190052.186000", "190052.188000", "190052.191000", "190052.194000", "190052.196000", "190052.199000", "190052.201000", "190052.204000", "190052.206000", "190052.209000", "190052.211000", "190052.214000", "190052.216000", "190052.219000", "190112.170000", "190112.173000", "190112.176000", "190112.178000", "190112.181000", "190112.183000", "190112.186000", "190112.189000", "190112.191000", "190112.194000", "190112.197000", "190112.199000", "190112.202000", "190112.204000", "190112.207000", "190112.209000", "190112.212000", "190112.214000", "190112.217000", "190112.219000", "190132.170000", "190132.173000", "190132.176000", "190132.178000", "190132.181000", "190132.183000", "190132.186000", "190132.189000", "190132.192000", "190132.194000", "190132.197000", "190132.199000", "190132.202000", "190132.205000", "190132.207000", "190132.210000", "190132.212000", "190132.215000", "190132.218000", "190132.220000", "190149.425000", "190149.428000", "190149.430000", "190149.433000", "190149.436000", "190149.438000", "190149.441000", "190149.443000", "190149.446000", "190149.448000", "190149.451000", "190149.453000", "190149.456000", "190149.458000", "190149.461000", "190149.463000", "190149.466000", "190149.469000"],
      "InstanceNumber": [1, 2, 3, 4, 5, 6, 7, 8, 9, 10, 11, 12, 13, 14, 15, 16, 17, 18, 19, 20, 21, 22, 23, 24, 25, 26, 27, 28, 29, 30, 31, 32, 33, 34, 35, 36, 37, 38, 39, 40, 41, 42, 43, 44, 45, 46, 47, 48, 49, 50, 51, 52, 53, 54, 55, 56, 57, 58, 59, 60, 61, 62, 63, 64, 65, 66, 67, 68, 69, 70, 71, 72, 73, 74, 75, 76, 77, 78, 79, 80, 81, 82, 83, 84, 85, 86, 87, 88, 89, 90, 91, 92, 93, 94, 95, 96, 97, 98, 99, 100, 101, 102, 103, 104, 105, 106, 107, 108, 109, 110, 111, 112, 113, 114, 115, 116, 117, 118, 119, 120, 121, 122, 123, 124, 125, 126, 127, 128, 129, 130, 131, 132, 133, 134, 135, 136, 137, 138, 139, 140, 141, 142, 143, 144, 145, 146, 147, 148, 149, 150, 151, 152, 153, 154, 155, 156, 157, 158, 159, 160, 161, 162, 163, 164, 165, 166, 167, 168, 169, 170, 171, 172, 173, 174, 175, 176, 177, 178, 179, 180, 181, 182, 183, 184, 185, 186, 187, 188, 189, 190, 191, 192, 193, 194, 195, 196, 197, 198, 199, 200, 201, 202, 203, 204, 205, 206, 207, 208, 209, 210, 211, 212, 213, 214, 215, 216, 217, 218, 219, 220, 221, 222, 223, 224, 225, 226, 227, 228, 229, 230, 231, 232, 233, 234, 235, 236, 237, 238, 239, 240, 241, 242, 243, 244, 245, 246, 247, 248, 249, 250, 251, 252, 253, 254, 255, 256, 257, 258, 259, 260, 261, 262, 263, 264, 265, 266, 267, 268, 269, 270, 271, 272, 273, 274, 275, 276, 277, 278, 279, 280, 281, 282, 283, 284, 285, 286, 287, 288, 289, 290, 291, 292, 293, 294, 295, 296, 297, 298, 299, 300, 301, 302, 303, 304, 305, 306, 307, 308, 309, 310, 311, 312, 313, 314, 315, 316, 317, 318, 319, 320, 321, 322, 323, 324, 325, 326, 327, 328, 329, 330, 331, 332, 333, 334, 335, 336, 337, 338, 339, 340, 341, 342, 343, 344, 345, 346, 347, 348, 349, 350, 351, 352, 353, 354, 355, 356],
      "LargestImagePixelValue": [12651, 12082, 11869, 11613, 11722, 11624, 11955, 12082, 11826, 11997, 11568, 11660, 11746, 11576, 11567, 11571, 11535, 11678, 11491, 11490, 11760, 11538, 11547, 11722, 11749, 11650, 11831, 11663, 11614, 11804, 11737, 11662, 11858, 11715, 11478, 11819, 11577, 11707, 11575, 11679, 11851, 11723, 11686, 11747, 11585, 11651, 11705, 11609, 11715, 11759, 11709, 11878, 11777, 11574, 11896, 11656, 11603, 12064, 11761, 11714, 11740, 11730, 11774, 11742, 11735, 11758, 11737, 11729, 12081, 11555, 11640, 11888, 11561, 11812, 12072, 11713, 11976, 12078, 11646, 12041, 12089, 11559, 11922, 11896, 11637, 11971, 12155, 11560, 12172, 11893, 11691, 11839, 11857, 11633, 12027, 11735, 11544, 11953, 11814, 11653, 11902, 11758, 11600, 11999, 11609, 11627, 12150, 11753, 11874, 12336, 11841, 11918, 12236, 11704, 11868, 12094, 11511, 11991, 12133, 11681, 12153, 12026, 11611, 12164, 11912, 11937, 12123, 11564, 11802, 12267, 11545, 11725, 12129, 11902, 11689, 12127, 11625, 11803, 12005, 11423, 11790, 11745, 11558, 11488, 11749, 11419, 11526, 11822, 11612, 11999, 12092, 11488, 11652, 12028, 11493, 11918, 11970, 11747, 12071, 12091, 11591, 12181, 11966, 11809, 12295, 12137, 11837, 12191, 11923, 12129, 12405, 12182, 12045, 12477, 12513, 12368, 11746, 12131, 12289, 11781, 12166, 12485, 11747, 11933, 12215, 11903, 12291, 12598, 11850, 12222, 12294, 11604, 12218, 11939, 11703, 12122, 12268, 11825, 11954, 12390, 11824, 11984, 12275, 11832, 11941, 12340, 12016, 12086, 12298, 12258, 11742, 12314, 12267, 12183, 12241, 12348, 12217, 12593, 12397, 12254, 12530, 12502, 12303, 12559, 12055, 12389, 12531, 12144, 12373, 12508, 12052, 12273, 12383, 12147, 12360, 12301, 12040, 12249, 12585, 12350, 12431, 12367, 12070, 12407, 12535, 12396, 12643, 12311, 12311, 12756, 12423, 12317, 12476, 12195, 12306, 12300, 12029, 12290, 12085, 12219, 12334, 12110, 12535, 12492, 12023, 12109, 12427, 12097, 11896, 12411, 12447, 11907, 12494, 12597, 12279, 12493, 12412, 12071, 12381, 12090, 12031, 12541, 12079, 12315, 12528, 12027, 12073, 12416, 12258, 12332, 12601, 12574, 12074, 12374, 12370, 12281, 12495, 12161, 12495, 12409, 12094, 12290, 12366, 11979, 12335, 12416, 12123, 12412, 12448, 11928, 12213, 12374, 11986, 12425, 12429, 11973, 12317, 12416, 12062, 12253, 12382, 11771, 12363, 12435, 11943, 12227, 12393, 11991, 12519, 12224, 11938, 12298, 12141, 11669, 12205, 12372, 11866, 12084, 12308, 11805, 12152, 12324, 11581, 11979, 12192, 11788, 12144, 12020, 11558, 12049, 11797, 11746, 12154, 11858, 11587, 12188],
