{
  "AcquisitionMatrixPE": 106,
  "AcquisitionNumber": 1,
  "AcquisitionTime": "14:26:59.995000",
  "BandwidthPerPixelPhaseEncode": 16.846,
  "BaseResolution": 106,
  "BodyPartExamined": "BRAIN",
  "CoilCombinationMethod": "Sum of Squares",
  "ConsistencyInfo": "N4_VE11C_LATEST_20160120",
  "ConversionSoftware": "dcm2niix",
  "ConversionSoftwareVersion": "v1.0.20220720",
  "DerivedVendorReportedEchoSpacing": 0.000560012,
  "DeviceSerialNumber": "166108",
  "DwellTime": 1.8e-06,
  "EchoTime": 0.0352,
  "EchoTrainLength": 106,
  "EffectiveEchoSpacing": 0.000560012,
  "FlipAngle": 60,
  "HeudiconvVersion": "1.3.0",
  "ImageComments": "Unaliased MB4/PE3/LB",
  "ImageOrientationPatientDICOM": [1, 0, 0, 0, 0.925871, -0.377841],
  "ImageOrientationText": "Tra>Cor(-22.2)",
  "ImageType": [
    "ORIGINAL",
    "PRIMARY",
    "M",
    "MB",
    "ND",
    "MOSAIC"
],
  "ImagingFrequency": 123.244,
  "InPlanePhaseEncodingDirectionDICOM": "COL",
  "InstitutionAddress": "Bedford Way 26,London,London,GB,WC1H 0AP",
  "InstitutionName": "University College",
  "InstitutionalDepartmentName": "Department",
  "MRAcquisitionType": "2D",
  "MagneticFieldStrength": 3,
  "Manufacturer": "Siemens",
  "ManufacturersModelName": "Prisma",
  "MatrixCoilMode": "SENSE",
  "Modality": "MR",
  "MultibandAccelerationFactor": 4,
  "NonlinearGradientCorrection": false,
  "PartialFourier": 1,
  "PatientPosition": "HFS",
  "PercentPhaseFOV": 100,
  "PercentSampling": 100,
  "PhaseEncodingDirection": "j-",
  "PhaseEncodingSteps": 106,
  "PhaseResolution": 1,
  "PixelBandwidth": 2620,
  "ProcedureStepDescription": "Egor^MovieProject2",
  "ProtocolName": "func-bold_task-pRF_run-02",
  "PulseSequenceDetails": "%CustomerSeq%\\cmrr_mbep2d_bold",
  "ReceiveCoilActiveElements": "HEA;HEP",
  "ReceiveCoilName": "Head_32",
  "ReconMatrixPE": 106,
  "RepetitionTime": 1,
  "SAR": 0.0814158,
  "ScanOptions": "FS\\EXT",
  "ScanningSequence": "EP",
  "SequenceName": "epfid2d1_106",
  "SequenceVariant": "SK\\SS",
  "SeriesDescription": "func-bold_task-pRF_run-02",
  "SeriesNumber": 12,
  "ShimSetting": [-1650, 640, 7437, 399, 32, 280, -74, 112],
  "SliceThickness": 2,
  "SliceTiming": [0, 0.4075, 0.815, 0.245, 0.6525, 0.08, 0.49, 0.8975, 0.325, 0.735, 0.1625, 0.57, 0, 0.4075, 0.815, 0.245, 0.6525, 0.08, 0.49, 0.8975, 0.325, 0.735, 0.1625, 0.57, 0, 0.4075, 0.815, 0.245, 0.6525, 0.08, 0.49, 0.8975, 0.325, 0.735, 0.1625, 0.57, 0, 0.4075, 0.815, 0.245, 0.6525, 0.08, 0.49, 0.8975, 0.325, 0.735, 0.1625, 0.57],
  "SoftwareVersions": "syngo MR E11",
  "SpacingBetweenSlices": 2,
  "StationName": "AWP166108",
  "TaskName": "retinotopy",
  "TotalReadoutTime": 0.0588013,
  "TxRefAmp": 261.158,
  "WipMemBlock": "84260bd8-717c-4da6-8fc8-750190ce916f||Sequence: R016 ve11c/master r/e634e98; Dec 19 2017 11:00:25 by eja",
  "dcmmeta_affine": [
    [-2.0, 0.0, 0.0, 106.0],
    [0.0, 1.8517411947250366, -0.7556815147399902, -75.44768524169922],
    [0.0, 0.7556815147399902, 1.8517411947250366, -52.5848503112793],
    [0.0, 0.0, 0.0, 1.0]
],
  "dcmmeta_reorient_transform": [
    [0.0, -1.0, 0.0, 105.0],
    [1.0, 0.0, 0.0, 0.0],
    [0.0, 0.0, 1.0, 0.0],
    [0.0, 0.0, 0.0, 1.0]
],
  "dcmmeta_shape": [106, 106, 48, 356],
  "dcmmeta_slice_dim": 2,
  "dcmmeta_version": 0.6,
  "global": {
    "const": {
      "AcquisitionMatrix": [106, 0, 0, 106],
      "AngioFlag": "N",
      "BitsAllocated": 16,
      "BitsStored": 16,
      "BodyPartExamined": "BRAIN",
      "CardiacNumberOfImages": 1,
      "Columns": 742,
      "EchoNumbers": 1,
      "EchoTime": 35.2,
      "EchoTrainLength": 106,
      "FlipAngle": 60.0,
      "HighBit": 15,
      "ImageOrientationPatient": [1.0, 0.0, 0.0, 0.0, 0.9258705945147, -0.3778407630378],
      "ImagePositionPatient": [-742.0, -707.83883467605, 267.06843462925],
      "ImageType": [
        "ORIGINAL",
        "PRIMARY",
        "M",
        "MB",
        "ND",
        "MOSAIC"
],
      "ImagedNucleus": "1H",
      "ImagingFrequency": 123.243667,
      "InPlanePhaseEncodingDirection": "COL",
      "MRAcquisitionType": "2D",
      "MagneticFieldStrength": 3.0,
      "Manufacturer": "SIEMENS",
      "ManufacturerModelName": "Prisma",
      "Modality": "MR",
      "NominalInterval": 0,
      "NumberOfAverages": 1.0,
      "NumberOfPhaseEncodingSteps": 106,
      "PercentPhaseFieldOfView": 100.0,
      "PercentSampling": 100.0,
      "PerformedProcedureStepStartTime": "133509.630000",
      "PhotometricInterpretation": "MONOCHROME2",
      "PixelBandwidth": 2620.0,
      "PixelRepresentation": 0,
      "PixelSpacing": [2.0, 2.0],
      "ProtocolName": "func-bold_task-pRF_run-02",
      "RepetitionTime": 1000.0,
      "Rows": 742,
      "SAR": 0.0814158256718,
      "SamplesPerPixel": 1,
      "ScanOptions": [
        "FS",
        "EXT"
],
      "ScanningSequence": "EP",
      "SequenceName": "epfid2d1_106",
      "SequenceVariant": [
        "SK",
        "SS"
],
      "SeriesDescription": "func-bold_task-pRF_run-02",
      "SeriesNumber": 12,
      "SeriesTime": "142726.050000",
      "SliceLocation": -20.179555055494,
      "SliceThickness": 2.0,
      "SmallestImagePixelValue": 0,
      "SoftwareVersions": "syngo MR E11",
      "SpacingBetweenSlices": 2.0000000084155,
      "SpecificCharacterSet": "ISO_IR 100",
      "StudyID": "1",
      "StudyTime": "133509.549000",
      "TransmitCoilName": "Body",
      "VariableFlipAngleFlag": "N",
      "WindowCenterWidthExplanation": "Algo1",
      "dBdt": 0.0},
    "slices": {}
  },
  "time": {
    "samples": {
      "AcquisitionNumber": [1, 2, 3, 4, 5, 6, 7, 8, 9, 10, 11, 12, 13, 14, 15, 16, 17, 18, 19, 20, 21, 22, 23, 24, 25, 26, 27, 28, 29, 30, 31, 32, 33, 34, 35, 36, 37, 38, 39, 40, 41, 42, 43, 44, 45, 46, 47, 48, 49, 50, 51, 52, 53, 54, 55, 56, 57, 58, 59, 60, 61, 62, 63, 64, 65, 66, 67, 68, 69, 70, 71, 72, 73, 74, 75, 76, 77, 78, 79, 80, 81, 82, 83, 84, 85, 86, 87, 88, 89, 90, 91, 92, 93, 94, 95, 96, 97, 98, 99, 100, 101, 102, 103, 104, 105, 106, 107, 108, 109, 110, 111, 112, 113, 114, 115, 116, 117, 118, 119, 120, 121, 122, 123, 124, 125, 126, 127, 128, 129, 130, 131, 132, 133, 134, 135, 136, 137, 138, 139, 140, 141, 142, 143, 144, 145, 146, 147, 148, 149, 150, 151, 152, 153, 154, 155, 156, 157, 158, 159, 160, 161, 162, 163, 164, 165, 166, 167, 168, 169, 170, 171, 172, 173, 174, 175, 176, 177, 178, 179, 180, 181, 182, 183, 184, 185, 186, 187, 188, 189, 190, 191, 192, 193, 194, 195, 196, 197, 198, 199, 200, 201, 202, 203, 204, 205, 206, 207, 208, 209, 210, 211, 212, 213, 214, 215, 216, 217, 218, 219, 220, 221, 222, 223, 224, 225, 226, 227, 228, 229, 230, 231, 232, 233, 234, 235, 236, 237, 238, 239, 240, 241, 242, 243, 244, 245, 246, 247, 248, 249, 250, 251, 252, 253, 254, 255, 256, 257, 258, 259, 260, 261, 262, 263, 264, 265, 266, 267, 268, 269, 270, 271, 272, 273, 274, 275, 276, 277, 278, 279, 280, 281, 282, 283, 284, 285, 286, 287, 288, 289, 290, 291, 292, 293, 294, 295, 296, 297, 298, 299, 300, 301, 302, 303, 304, 305, 306, 307, 308, 309, 310, 311, 312, 313, 314, 315, 316, 317, 318, 319, 320, 321, 322, 323, 324, 325, 326, 327, 328, 329, 330, 331, 332, 333, 334, 335, 336, 337, 338, 339, 340, 341, 342, 343, 344, 345, 346, 347, 348, 349, 350, 351, 352, 353, 354, 355, 356],
      "AcquisitionTime": ["142659.995000", "142700.995000", "142701.995000", "142702.995000", "142703.995000", "142704.995000", "142705.995000", "142706.995000", "142707.995000", "142708.995000", "142709.995000", "142710.995000", "142711.995000", "142712.995000", "142713.995000", "142714.995000", "142715.995000", "142716.995000", "142717.995000", "142718.995000", "142719.995000", "142720.995000", "142721.995000", "142722.995000", "142723.995000", "142724.995000", "142725.995000", "142726.995000", "142727.995000", "142728.995000", "142729.995000", "142730.995000", "142731.995000", "142732.995000", "142733.995000", "142734.995000", "142735.995000", "142736.995000", "142737.995000", "142738.995000", "142739.995000", "142740.995000", "142741.995000", "142742.995000", "142743.995000", "142744.995000", "142745.995000", "142746.995000", "142747.995000", "142748.995000", "142749.995000", "142750.995000", "142751.995000", "142752.995000", "142753.995000", "142754.995000", "142755.995000", "142756.995000", "142757.995000", "142758.995000", "142759.995000", "142800.995000", "142801.995000", "142802.995000", "142803.995000", "142804.995000", "142805.995000", "142806.995000", "142807.995000", "142808.995000", "142809.995000", "142810.995000", "142811.995000", "142812.995000", "142813.995000", "142814.995000", "142815.995000", "142816.995000", "142817.995000", "142818.995000", "142819.995000", "142820.995000", "142821.995000", "142822.995000", "142823.995000", "142824.995000", "142825.995000", "142826.995000", "142827.995000", "142828.995000", "142829.995000", "142830.995000", "142831.995000", "142832.995000", "142833.995000", "142834.995000", "142835.995000", "142836.995000", "142837.995000", "142838.995000", "142839.995000", "142840.995000", "142841.995000", "142842.995000", "142843.995000", "142844.995000", "142845.995000", "142846.995000", "142847.995000", "142848.995000", "142849.995000", "142850.995000", "142851.995000", "142852.995000", "142853.995000", "142854.995000", "142855.995000", "142856.995000", "142857.995000", "142858.995000", "142859.995000", "142900.995000", "142901.995000", "142902.995000", "142903.995000", "142904.995000", "142905.995000", "142906.995000", "142907.995000", "142908.995000", "142909.995000", "142910.995000", "142911.995000", "142912.995000", "142913.995000", "142914.995000", "142915.995000", "142916.995000", "142917.995000", "142918.995000", "142919.995000", "142920.995000", "142921.995000", "142922.995000", "142923.995000", "142924.995000", "142925.995000", "142926.995000", "142927.995000", "142928.995000", "142929.995000", "142930.995000", "142931.995000", "142932.995000", "142933.995000", "142934.995000", "142935.995000", "142936.995000", "142937.995000", "142938.995000", "142939.995000", "142940.995000", "142941.995000", "142942.995000", "142943.995000", "142944.995000", "142945.995000", "142946.995000", "142947.995000", "142948.995000", "142949.995000", "142950.995000", "142951.995000", "142952.995000", "142953.995000", "142954.995000", "142955.995000", "142956.995000", "142957.995000", "142958.995000", "142959.995000", "143000.995000", "143001.995000", "143002.995000", "143003.995000", "143004.995000", "143005.995000", "143006.995000", "143007.995000", "143008.995000", "143009.995000", "143010.995000", "143011.995000", "143012.995000", "143013.995000", "143014.995000", "143015.995000", "143016.995000", "143017.995000", "143018.995000", "143019.995000", "143020.995000", "143021.995000", "143022.995000", "143023.995000", "143024.995000", "143025.995000", "143026.995000", "143027.995000", "143028.995000", "143029.995000", "143030.995000", "143031.995000", "143032.995000", "143033.995000", "143034.995000", "143035.995000", "143036.995000", "143037.995000", "143038.995000", "143039.995000", "143040.995000", "143041.995000", "143042.995000", "143043.995000", "143044.995000", "143045.995000", "143046.995000", "143047.995000", "143048.995000", "143049.995000", "143050.995000", "143051.995000", "143052.995000", "143053.995000", "143054.995000", "143055.995000", "143056.995000", "143057.995000", "143058.995000", "143059.995000", "143100.995000", "143101.995000", "143102.995000", "143103.995000", "143104.995000", "143105.995000", "143106.995000", "143107.995000", "143108.995000", "143109.995000", "143110.995000", "143111.995000", "143112.995000", "143113.995000", "143114.995000", "143115.995000", "143116.995000", "143117.995000", "143118.995000", "143119.995000", "143120.995000", "143121.995000", "143122.995000", "143123.995000", "143124.995000", "143125.995000", "143126.995000", "143127.995000", "143128.995000", "143129.995000", "143130.995000", "143131.995000", "143132.995000", "143133.995000", "143134.995000", "143135.995000", "143136.995000", "143137.995000", "143138.995000", "143139.995000", "143140.995000", "143141.995000", "143142.995000", "143143.995000", "143144.995000", "143145.995000", "143146.995000", "143147.995000", "143148.995000", "143149.995000", "143150.995000", "143151.995000", "143152.995000", "143153.995000", "143154.995000", "143155.995000", "143156.995000", "143157.995000", "143158.995000", "143159.995000", "143200.995000", "143201.995000", "143202.995000", "143203.995000", "143204.995000", "143205.995000", "143206.995000", "143207.995000", "143208.995000", "143209.995000", "143210.995000", "143211.995000", "143212.995000", "143213.995000", "143214.995000", "143215.995000", "143216.995000", "143217.995000", "143218.995000", "143219.995000", "143220.995000", "143221.995000", "143222.995000", "143223.995000", "143224.995000", "143225.995000", "143226.995000", "143227.995000", "143228.995000", "143229.995000", "143230.995000", "143231.995000", "143232.995000", "143233.995000", "143234.995000", "143235.995000", "143236.995000", "143237.995000", "143238.995000", "143239.995000", "143240.995000", "143241.995000", "143242.995000", "143243.995000", "143244.995000", "143245.995000", "143246.995000", "143247.995000", "143248.995000", "143249.995000", "143250.995000", "143251.995000", "143252.995000", "143253.995000", "143254.995000"],
      "ContentTime": ["142726.052000", "142726.055000", "142726.058000", "142726.060000", "142726.063000", "142726.066000", "142726.068000", "142726.071000", "142726.073000", "142726.076000", "142726.078000", "142726.089000", "142726.091000", "142726.094000", "142726.097000", "142726.099000", "142726.102000", "142726.104000", "142726.107000", "142726.109000", "142726.112000", "142726.114000", "142726.117000", "142726.119000", "142726.122000", "142746.015000", "142746.018000", "142746.021000", "142746.023000", "142746.026000", "142746.028000", "142746.031000", "142746.033000", "142746.047000", "142746.050000", "142746.052000", "142746.055000", "142746.057000", "142746.060000", "142746.062000", "142746.065000", "142746.067000", "142746.070000", "142746.072000", "142746.075000", "142806.014000", "142806.017000", "142806.019000", "142806.022000", "142806.025000", "142806.027000", "142806.029000", "142806.032000", "142806.034000", "142806.037000", "142806.039000", "142806.042000", "142806.044000", "142806.047000", "142806.049000", "142806.052000", "142806.054000", "142806.056000", "142806.059000", "142806.061000", "142826.015000", "142826.017000", "142826.020000", "142826.022000", "142826.025000", "142826.027000", "142826.030000", "142826.032000", "142826.035000", "142826.037000", "142826.039000", "142826.042000", "142826.045000", "142826.047000", "142826.050000", "142826.052000", "142826.054000", "142826.057000", "142826.059000", "142826.062000", "142846.014000", "142846.017000", "142846.019000", "142846.022000", "142846.024000", "142846.027000", "142846.041000", "142846.043000", "142846.046000", "142846.048000", "142846.051000", "142846.053000", "142846.056000", "142846.058000", "142846.061000", "142846.063000", "142846.066000", "142846.068000", "142846.071000", "142846.073000", "142906.015000", "142906.017000", "142906.020000", "142906.022000", "142906.025000", "142906.027000", "142906.030000", "142906.032000", "142906.035000", "142906.037000", "142906.040000", "142906.042000", "142906.045000", "142906.047000", "142906.050000", "142906.052000", "142906.055000", "142906.057000", "142906.060000", "142906.062000", "142926.015000", "142926.018000", "142926.021000", "142926.024000", "142926.026000", "142926.029000", "142926.031000", "142926.034000", "142926.036000", "142926.039000", "142926.041000", "142926.044000", "142926.046000", "142926.049000", "142926.052000", "142926.055000", "142926.057000", "142926.060000", "142926.062000", "142926.065000", "142946.015000", "142946.018000", "142946.020000", "142946.023000", "142946.025000", "142946.028000", "142946.030000", "142946.033000", "142946.035000", "142946.038000", "142946.040000", "142946.043000", "142946.045000", "142946.048000", "142946.050000", "142946.053000", "142946.055000", "142946.058000", "142946.060000", "142946.063000", "143006.016000", "143006.018000", "143006.021000", "143006.030000", "143006.033000", "143006.035000", "143006.038000", "143006.040000", "143006.043000", "143006.045000", "143006.048000", "143006.050000", "143006.053000", "143006.055000", "143006.058000", "143006.060000", "143006.063000", "143006.065000", "143006.068000", "143006.071000", "143026.015000", "143026.017000", "143026.020000", "143026.022000", "143026.025000", "143026.027000", "143026.030000", "143026.032000", "143026.035000", "143026.037000", "143026.040000", "143026.043000", "143026.045000", "143026.048000", "143026.050000", "143026.053000", "143026.055000", "143026.058000", "143026.060000", "143026.063000", "143046.014000", "143046.017000", "143046.019000", "143046.022000", "143046.025000", "143046.027000", "143046.029000", "143046.032000", "143046.034000", "143046.037000", "143046.039000", "143046.042000", "143046.044000", "143046.047000", "143046.049000", "143046.052000", "143046.055000", "143046.057000", "143046.060000", "143046.062000", "143106.014000", "143106.017000", "143106.020000", "143106.022000", "143106.025000", "143106.027000", "143106.030000", "143106.032000", "143106.035000", "143106.037000", "143106.040000", "143106.042000", "143106.045000", "143106.047000", "143106.050000", "143106.052000", "143106.055000", "143106.057000", "143106.060000", "143106.062000", "143126.014000", "143126.017000", "143126.020000", "143126.022000", "143126.025000", "143126.027000", "143126.030000", "143126.032000", "143126.035000", "143126.037000", "143126.040000", "143126.042000", "143126.045000", "143126.047000", "143126.050000", "143126.052000", "143126.055000", "143126.057000", "143126.060000", "143126.062000", "143146.016000", "143146.018000", "143146.021000", "143146.023000", "143146.026000", "143146.028000", "143146.031000", "143146.033000", "143146.036000", "143146.038000", "143146.041000", "143146.043000", "143146.046000", "143146.049000", "143146.051000", "143146.054000", "143146.056000", "143146.059000", "143146.061000", "143146.064000", "143206.015000", "143206.018000", "143206.021000", "143206.023000", "143206.026000", "143206.028000", "143206.031000", "143206.033000", "143206.036000", "143206.038000", "143206.041000", "143206.043000", "143206.046000", "143206.048000", "143206.051000", "143206.053000", "143206.056000", "143206.058000", "143206.061000", "143206.063000", "143226.016000", "143226.018000", "143226.021000", "143226.023000", "143226.026000", "143226.028000", "143226.031000", "143226.033000", "143226.036000", "143226.038000", "143226.041000", "143226.043000", "143226.046000", "143226.048000", "143226.051000", "143226.053000", "143226.056000", "143226.058000", "143226.069000", "143226.071000", "143246.015000", "143246.017000", "143246.020000", "143246.022000", "143246.025000", "143246.027000", "143246.030000", "143246.032000", "143246.035000", "143246.037000", "143246.040000", "143246.043000", "143246.045000", "143246.047000", "143246.050000", "143246.053000", "143246.055000", "143246.058000", "143246.060000", "143246.063000", "143256.437000", "143256.440000", "143256.442000", "143256.445000", "143256.447000", "143256.450000", "143256.452000", "143256.455000", "143256.457000", "143256.460000", "143256.462000"],
      "InstanceCreationTime": ["142726.052000", "142726.055000", "142726.058000", "142726.060000", "142726.063000", "142726.066000", "142726.068000", "142726.071000", "142726.073000", "142726.076000", "142726.078000", "142726.089000", "142726.091000", "142726.094000", "142726.097000", "142726.099000", "142726.102000", "142726.104000", "142726.107000", "142726.109000", "142726.112000", "142726.114000", "142726.117000", "142726.119000", "142726.122000", "142746.015000", "142746.018000", "142746.021000", "142746.023000", "142746.026000", "142746.028000", "142746.031000", "142746.033000", "142746.047000", "142746.050000", "142746.052000", "142746.055000", "142746.057000", "142746.060000", "142746.062000", "142746.065000", "142746.067000", "142746.070000", "142746.072000", "142746.075000", "142806.014000", "142806.017000", "142806.019000", "142806.022000", "142806.025000", "142806.027000", "142806.029000", "142806.032000", "142806.034000", "142806.037000", "142806.039000", "142806.042000", "142806.044000", "142806.047000", "142806.049000", "142806.052000", "142806.054000", "142806.056000", "142806.059000", "142806.061000", "142826.015000", "142826.017000", "142826.020000", "142826.022000", "142826.025000", "142826.027000", "142826.030000", "142826.032000", "142826.035000", "142826.037000", "142826.039000", "142826.042000", "142826.045000", "142826.047000", "142826.050000", "142826.052000", "142826.054000", "142826.057000", "142826.059000", "142826.062000", "142846.014000", "142846.017000", "142846.019000", "142846.022000", "142846.024000", "142846.027000", "142846.041000", "142846.043000", "142846.046000", "142846.048000", "142846.051000", "142846.053000", "142846.056000", "142846.058000", "142846.061000", "142846.063000", "142846.066000", "142846.068000", "142846.071000", "142846.073000", "142906.015000", "142906.017000", "142906.020000", "142906.022000", "142906.025000", "142906.027000", "142906.030000", "142906.032000", "142906.035000", "142906.037000", "142906.040000", "142906.042000", "142906.045000", "142906.047000", "142906.050000", "142906.052000", "142906.055000", "142906.057000", "142906.060000", "142906.062000", "142926.015000", "142926.018000", "142926.021000", "142926.024000", "142926.026000", "142926.029000", "142926.031000", "142926.034000", "142926.036000", "142926.039000", "142926.041000", "142926.044000", "142926.046000", "142926.049000", "142926.052000", "142926.055000", "142926.057000", "142926.060000", "142926.062000", "142926.065000", "142946.015000", "142946.018000", "142946.020000", "142946.023000", "142946.025000", "142946.028000", "142946.030000", "142946.033000", "142946.035000", "142946.038000", "142946.040000", "142946.043000", "142946.045000", "142946.048000", "142946.050000", "142946.053000", "142946.055000", "142946.058000", "142946.060000", "142946.063000", "143006.016000", "143006.018000", "143006.021000", "143006.030000", "143006.033000", "143006.035000", "143006.038000", "143006.040000", "143006.043000", "143006.045000", "143006.048000", "143006.050000", "143006.053000", "143006.055000", "143006.058000", "143006.060000", "143006.063000", "143006.065000", "143006.068000", "143006.071000", "143026.015000", "143026.017000", "143026.020000", "143026.022000", "143026.025000", "143026.027000", "143026.030000", "143026.032000", "143026.035000", "143026.037000", "143026.040000", "143026.043000", "143026.045000", "143026.048000", "143026.050000", "143026.053000", "143026.055000", "143026.058000", "143026.060000", "143026.063000", "143046.014000", "143046.017000", "143046.019000", "143046.022000", "143046.025000", "143046.027000", "143046.029000", "143046.032000", "143046.034000", "143046.037000", "143046.039000", "143046.042000", "143046.044000", "143046.047000", "143046.049000", "143046.052000", "143046.055000", "143046.057000", "143046.060000", "143046.062000", "143106.014000", "143106.017000", "143106.020000", "143106.022000", "143106.025000", "143106.027000", "143106.030000", "143106.032000", "143106.035000", "143106.037000", "143106.040000", "143106.042000", "143106.045000", "143106.047000", "143106.050000", "143106.052000", "143106.055000", "143106.057000", "143106.060000", "143106.062000", "143126.014000", "143126.017000", "143126.020000", "143126.022000", "143126.025000", "143126.027000", "143126.030000", "143126.032000", "143126.035000", "143126.037000", "143126.040000", "143126.042000", "143126.045000", "143126.047000", "143126.050000", "143126.052000", "143126.055000", "143126.057000", "143126.060000", "143126.062000", "143146.016000", "143146.018000", "143146.021000", "143146.023000", "143146.026000", "143146.028000", "143146.031000", "143146.033000", "143146.036000", "143146.038000", "143146.041000", "143146.043000", "143146.046000", "143146.049000", "143146.051000", "143146.054000", "143146.056000", "143146.059000", "143146.061000", "143146.064000", "143206.015000", "143206.018000", "143206.021000", "143206.023000", "143206.026000", "143206.028000", "143206.031000", "143206.033000", "143206.036000", "143206.038000", "143206.041000", "143206.043000", "143206.046000", "143206.048000", "143206.051000", "143206.053000", "143206.056000", "143206.058000", "143206.061000", "143206.063000", "143226.016000", "143226.018000", "143226.021000", "143226.023000", "143226.026000", "143226.028000", "143226.031000", "143226.033000", "143226.036000", "143226.038000", "143226.041000", "143226.043000", "143226.046000", "143226.048000", "143226.051000", "143226.053000", "143226.056000", "143226.058000", "143226.069000", "143226.071000", "143246.015000", "143246.017000", "143246.020000", "143246.022000", "143246.025000", "143246.027000", "143246.030000", "143246.032000", "143246.035000", "143246.037000", "143246.040000", "143246.043000", "143246.045000", "143246.047000", "143246.050000", "143246.053000", "143246.055000", "143246.058000", "143246.060000", "143246.063000", "143256.437000", "143256.440000", "143256.442000", "143256.445000", "143256.447000", "143256.450000", "143256.452000", "143256.455000", "143256.457000", "143256.460000", "143256.462000"],
      "InstanceNumber": [1, 2, 3, 4, 5, 6, 7, 8, 9, 10, 11, 12, 13, 14, 15, 16, 17, 18, 19, 20, 21, 22, 23, 24, 25, 26, 27, 28, 29, 30, 31, 32, 33, 34, 35, 36, 37, 38, 39, 40, 41, 42, 43, 44, 45, 46, 47, 48, 49, 50, 51, 52, 53, 54, 55, 56, 57, 58, 59, 60, 61, 62, 63, 64, 65, 66, 67, 68, 69, 70, 71, 72, 73, 74, 75, 76, 77, 78, 79, 80, 81, 82, 83, 84, 85, 86, 87, 88, 89, 90, 91, 92, 93, 94, 95, 96, 97, 98, 99, 100, 101, 102, 103, 104, 105, 106, 107, 108, 109, 110, 111, 112, 113, 114, 115, 116, 117, 118, 119, 120, 121, 122, 123, 124, 125, 126, 127, 128, 129, 130, 131, 132, 133, 134, 135, 136, 137, 138, 139, 140, 141, 142, 143, 144, 145, 146, 147, 148, 149, 150, 151, 152, 153, 154, 155, 156, 157, 158, 159, 160, 161, 162, 163, 164, 165, 166, 167, 168, 169, 170, 171, 172, 173, 174, 175, 176, 177, 178, 179, 180, 181, 182, 183, 184, 185, 186, 187, 188, 189, 190, 191, 192, 193, 194, 195, 196, 197, 198, 199, 200, 201, 202, 203, 204, 205, 206, 207, 208, 209, 210, 211, 212, 213, 214, 215, 216, 217, 218, 219, 220, 221, 222, 223, 224, 225, 226, 227, 228, 229, 230, 231, 232, 233, 234, 235, 236, 237, 238, 239, 240, 241, 242, 243, 244, 245, 246, 247, 248, 249, 250, 251, 252, 253, 254, 255, 256, 257, 258, 259, 260, 261, 262, 263, 264, 265, 266, 267, 268, 269, 270, 271, 272, 273, 274, 275, 276, 277, 278, 279, 280, 281, 282, 283, 284, 285, 286, 287, 288, 289, 290, 291, 292, 293, 294, 295, 296, 297, 298, 299, 300, 301, 302, 303, 304, 305, 306, 307, 308, 309, 310, 311, 312, 313, 314, 315, 316, 317, 318, 319, 320, 321, 322, 323, 324, 325, 326, 327, 328, 329, 330, 331, 332, 333, 334, 335, 336, 337, 338, 339, 340, 341, 342, 343, 344, 345, 346, 347, 348, 349, 350, 351, 352, 353, 354, 355, 356],
      "LargestImagePixelValue": [16701, 16417, 16204, 16069, 15876, 15554, 15641, 15533, 15709, 15557, 15575, 15579, 15633, 15770, 15707, 15485, 15559, 15405, 15384, 15594, 15637, 15640, 15376, 15549, 15531, 15670, 15472, 15601, 15601, 15619, 15650, 15624, 15441, 15445, 15390, 15549, 15625, 15630, 15543, 15586, 15583, 15667, 15487, 15435, 15476, 15551, 15615, 15507, 15512, 15603, 15613, 15740, 15601, 15582, 15691, 15504, 15587, 15615, 15565, 15666, 15564, 15614, 15573, 15510, 15591, 15490, 15545, 15670, 15648, 15551, 15538, 15506, 15703, 15673, 15653, 15701, 15541, 15586, 15580, 15701, 15636, 15570, 15511, 15652, 15464, 15660, 15666, 15616, 15422, 15510, 15721, 15590, 15488, 15448, 15490, 15711, 15555, 15572, 15566, 15645, 15560, 15600, 15635, 15545, 15645, 15500, 15523, 15608, 15565, 15611, 15590, 15686, 15501, 15583, 15550, 15571, 15559, 15515, 15445, 15685, 15626, 15601, 15542, 15428, 15586, 15638, 15594, 15466, 15472, 15466, 15431, 15459, 15533, 15405, 15458, 15343, 15277, 15388, 15497, 15322, 15415, 15485, 15518, 15568, 15555, 15539, 15591, 15648, 15522, 15721, 15520, 15592, 15476, 15644, 15580, 15664, 15558, 15490, 15639, 15518, 15392, 15566, 15519, 15564, 15572, 15653, 15645, 15484, 15582, 15516, 15553, 15527, 15627, 15446, 15585, 15641, 15499, 15438, 15530, 15314, 15567, 15465, 15475, 15423, 15282, 15420, 15355, 15425, 15323, 15496, 15411, 15620, 15393, 15513, 15592, 15653, 15691, 15529, 15579, 15675, 15526, 15524, 15562, 15618, 15739, 15553, 15575, 15517, 15488, 15532, 15524, 15519, 15468, 15468, 15487, 15599, 15697, 15558, 15678, 15504, 15533, 15635, 15564, 15597, 15578, 15682, 15537, 15548, 15487, 15546, 15613, 15510, 15583, 15759, 15605, 15392, 15600, 15480, 15385, 15603, 15453, 15510, 15541, 15448, 15433, 15551, 15513, 15545, 15594, 15661, 15489, 15476, 15717, 15518, 15698, 15720, 15607, 15655, 15574, 15605, 15615, 15449, 15363, 15440, 15504, 15512, 15580, 15515, 15607, 15551, 15484, 15396, 15614, 15424, 15607, 15450, 15541, 15580, 15510, 15450, 15518, 15575, 15776, 15510, 15724, 15489, 15471, 15587, 15499, 15505, 15610, 15492, 15591, 15629, 15552, 15543, 15593, 15443, 15475, 15481, 15472, 15642, 15753, 15617, 15473, 15574, 15730, 15662, 15605, 15596, 15516, 15612, 15611, 15463, 15702, 15477, 15493, 15414, 15588, 15606, 15581, 15558, 15491, 15604, 15531, 15543, 15751, 15512, 15509, 15677, 15492, 15481, 15399, 15679, 15547, 15601, 15382, 15543, 15631, 15452, 15339, 15530, 15613, 15501, 15561, 15583, 15535, 15575, 15563, 15610, 15672, 15642, 15491, 15569, 15553, 15706],
