{
  "AcquisitionMatrixPE": 106,
  "AcquisitionNumber": 1,
  "AcquisitionTime": "13:57:43.597500",
  "BandwidthPerPixelPhaseEncode": 13.477,
  "BaseResolution": 106,
  "BodyPartExamined": "BRAIN",
  "CoilCombinationMethod": "Sum of Squares",
  "ConsistencyInfo": "N4_VE11C_LATEST_20160120",
  "ConversionSoftware": "dcm2niix",
  "ConversionSoftwareVersion": "v1.0.20220720",
  "DerivedVendorReportedEchoSpacing": 0.000700005,
  "DeviceSerialNumber": "166108",
  "DwellTime": 2.6e-06,
  "EchoTime": 0.03,
  "EchoTrainLength": 80,
  "EffectiveEchoSpacing": 0.000700005,
  "FlipAngle": 62,
  "HeudiconvVersion": "1.3.0",
  "ImageComments": "Unaliased MB4/PE3/LB",
  "ImageOrientationPatientDICOM": [1, 0, 0, 0, 0.961741, -0.273959],
  "ImageOrientationText": "Tra>Cor(-15.9)",
  "ImageType": [
    "ORIGINAL",
    "PRIMARY",
    "M",
    "MB",
    "ND",
    "MOSAIC"
],
  "ImagingFrequency": 123.244,
  "InPlanePhaseEncodingDirectionDICOM": "COL",
  "InstitutionAddress": "Bedford Way 26,London,London,GB,WC1H 0AP",
  "InstitutionName": "University College",
  "InstitutionalDepartmentName": "Department",
  "MRAcquisitionType": "2D",
  "MagneticFieldStrength": 3,
  "Manufacturer": "Siemens",
  "ManufacturersModelName": "Prisma",
  "MatrixCoilMode": "SENSE",
  "Modality": "MR",
  "MultibandAccelerationFactor": 4,
  "NonlinearGradientCorrection": false,
  "PartialFourier": 0.75,
  "PatientPosition": "HFS",
  "PercentPhaseFOV": 100,
  "PercentSampling": 100,
  "PhaseEncodingDirection": "j-",
  "PhaseEncodingSteps": 80,
  "PhaseResolution": 1,
  "PixelBandwidth": 1815,
  "ProcedureStepDescription": "Egor^MovieProject2",
  "ProtocolName": "func-bold_task-motor_run-01",
  "PulseSequenceDetails": "%CustomerSeq%\\cmrr_mbep2d_bold",
  "ReceiveCoilActiveElements": "HEA;HEP",
  "ReceiveCoilName": "Head_32",
  "ReconMatrixPE": 106,
  "RepetitionTime": 1,
  "SAR": 0.0454508,
  "ScanOptions": "PFP\\FS\\EXT",
  "ScanningSequence": "EP",
  "SequenceName": "epfid2d1_106",
  "SequenceVariant": "SK\\SS",
  "SeriesDescription": "func-bold_task-motor_run-01",
  "SeriesNumber": 4,
  "ShimSetting": [-1663, 646, 7411, 373, -6, 252, -104, 118],
  "SliceThickness": 2,
  "SliceTiming": [0, 0.535, 0.09, 0.625, 0.18, 0.7125, 0.2675, 0.8025, 0.3575, 0.8925, 0.4475, 0, 0.535, 0.09, 0.625, 0.18, 0.7125, 0.2675, 0.8025, 0.3575, 0.8925, 0.4475, 0, 0.535, 0.09, 0.625, 0.18, 0.7125, 0.2675, 0.8025, 0.3575, 0.8925, 0.4475, 0, 0.535, 0.09, 0.625, 0.18, 0.7125, 0.2675, 0.8025, 0.3575, 0.8925, 0.4475],
  "SoftwareVersions": "syngo MR E11",
  "SpacingBetweenSlices": 2,
  "StationName": "AWP166108",
  "TaskName": "somatotopy",
  "TotalReadoutTime": 0.0735005,
  "TxRefAmp": 261.158,
  "WipMemBlock": "89eac300-6828-4ac1-9c0a-ebbdaa9aff5d||Sequence: R016 ve11c/master r/e634e98; Dec 19 2017 11:00:25 by eja",
  "dcmmeta_affine": [
    [-2.0, 0.0, 0.0, 106.0],
    [0.0, 1.9234826564788818, -0.547918438911438, -86.4432601928711],
    [0.0, 0.547918438911438, 1.9234826564788818, -31.31290054321289],
    [0.0, 0.0, 0.0, 1.0]
],
  "dcmmeta_reorient_transform": [
    [0.0, -1.0, 0.0, 105.0],
    [1.0, 0.0, 0.0, 0.0],
    [0.0, 0.0, 1.0, 0.0],
    [0.0, 0.0, 0.0, 1.0]
],
  "dcmmeta_shape": [106, 106, 44, 467],
  "dcmmeta_slice_dim": 2,
  "dcmmeta_version": 0.6,
  "global": {
    "const": {
      "AcquisitionMatrix": [106, 0, 0, 106],
      "AngioFlag": "N",
      "BitsAllocated": 16,
      "BitsStored": 16,
      "BodyPartExamined": "BRAIN",
      "CardiacNumberOfImages": 1,
      "Columns": 742,
      "EchoNumbers": 1,
      "EchoTime": 30.0,
      "EchoTrainLength": 80,
      "FlipAngle": 62.0,
      "HighBit": 15,
      "ImageOrientationPatient": [1.0, 0.0, 0.0, 0.0, 0.96174130993141, -0.2739592173507],
      "ImagePositionPatient": [-742.0, -727.18988895946, 200.45659779283],
      "ImageType": [
        "ORIGINAL",
        "PRIMARY",
        "M",
        "MB",
        "ND",
        "MOSAIC"
],
      "ImagedNucleus": "1H",
      "ImagingFrequency": 123.243664,
      "InPlanePhaseEncodingDirection": "COL",
      "MRAcquisitionType": "2D",
      "MagneticFieldStrength": 3.0,
      "Manufacturer": "SIEMENS",
      "ManufacturerModelName": "Prisma",
      "Modality": "MR",
      "NominalInterval": 0,
      "NumberOfAverages": 1.0,
      "NumberOfPhaseEncodingSteps": 80,
      "PercentPhaseFieldOfView": 100.0,
      "PercentSampling": 100.0,
      "PerformedProcedureStepStartTime": "133509.630000",
      "PhotometricInterpretation": "MONOCHROME2",
      "PixelBandwidth": 1815.0,
      "PixelRepresentation": 0,
      "PixelSpacing": [2.0, 2.0],
      "ProtocolName": "func-bold_task-motor_run-01",
      "RepetitionTime": 1000.0,
      "Rows": 742,
      "SAR": 0.04545083751999,
      "SamplesPerPixel": 1,
      "ScanOptions": [
        "PFP",
        "FS",
        "EXT"
],
      "ScanningSequence": "EP",
      "SequenceName": "epfid2d1_106",
      "SequenceVariant": [
        "SK",
        "SS"
],
      "SeriesDescription": "func-bold_task-motor_run-01",
      "SeriesNumber": 4,
      "SeriesTime": "135819.439000",
      "SliceLocation": -6.4329818990166,
      "SliceThickness": 2.0,
      "SmallestImagePixelValue": 0,
      "SoftwareVersions": "syngo MR E11",
      "SpacingBetweenSlices": 1.9999999975061,
      "SpecificCharacterSet": "ISO_IR 100",
      "StudyID": "1",
      "StudyTime": "133509.549000",
      "TransmitCoilName": "Body",
      "VariableFlipAngleFlag": "N",
      "WindowCenterWidthExplanation": "Algo1",
      "dBdt": 0.0},
    "slices": {}
  },
  "time": {
    "samples": {
      "AcquisitionNumber": [1, 2, 3, 4, 5, 6, 7, 8, 9, 10, 11, 12, 13, 14, 15, 16, 17, 18, 19, 20, 21, 22, 23, 24, 25, 26, 27, 28, 29, 30, 31, 32, 33, 34, 35, 36, 37, 38, 39, 40, 41, 42, 43, 44, 45, 46, 47, 48, 49, 50, 51, 52, 53, 54, 55, 56, 57, 58, 59, 60, 61, 62, 63, 64, 65, 66, 67, 68, 69, 70, 71, 72, 73, 74, 75, 76, 77, 78, 79, 80, 81, 82, 83, 84, 85, 86, 87, 88, 89, 90, 91, 92, 93, 94, 95, 96, 97, 98, 99, 100, 101, 102, 103, 104, 105, 106, 107, 108, 109, 110, 111, 112, 113, 114, 115, 116, 117, 118, 119, 120, 121, 122, 123, 124, 125, 126, 127, 128, 129, 130, 131, 132, 133, 134, 135, 136, 137, 138, 139, 140, 141, 142, 143, 144, 145, 146, 147, 148, 149, 150, 151, 152, 153, 154, 155, 156, 157, 158, 159, 160, 161, 162, 163, 164, 165, 166, 167, 168, 169, 170, 171, 172, 173, 174, 175, 176, 177, 178, 179, 180, 181, 182, 183, 184, 185, 186, 187, 188, 189, 190, 191, 192, 193, 194, 195, 196, 197, 198, 199, 200, 201, 202, 203, 204, 205, 206, 207, 208, 209, 210, 211, 212, 213, 214, 215, 216, 217, 218, 219, 220, 221, 222, 223, 224, 225, 226, 227, 228, 229, 230, 231, 232, 233, 234, 235, 236, 237, 238, 239, 240, 241, 242, 243, 244, 245, 246, 247, 248, 249, 250, 251, 252, 253, 254, 255, 256, 257, 258, 259, 260, 261, 262, 263, 264, 265, 266, 267, 268, 269, 270, 271, 272, 273, 274, 275, 276, 277, 278, 279, 280, 281, 282, 283, 284, 285, 286, 287, 288, 289, 290, 291, 292, 293, 294, 295, 296, 297, 298, 299, 300, 301, 302, 303, 304, 305, 306, 307, 308, 309, 310, 311, 312, 313, 314, 315, 316, 317, 318, 319, 320, 321, 322, 323, 324, 325, 326, 327, 328, 329, 330, 331, 332, 333, 334, 335, 336, 337, 338, 339, 340, 341, 342, 343, 344, 345, 346, 347, 348, 349, 350, 351, 352, 353, 354, 355, 356, 357, 358, 359, 360, 361, 362, 363, 364, 365, 366, 367, 368, 369, 370, 371, 372, 373, 374, 375, 376, 377, 378, 379, 380, 381, 382, 383, 384, 385, 386, 387, 388, 389, 390, 391, 392, 393, 394, 395, 396, 397, 398, 399, 400, 401, 402, 403, 404, 405, 406, 407, 408, 409, 410, 411, 412, 413, 414, 415, 416, 417, 418, 419, 420, 421, 422, 423, 424, 425, 426, 427, 428, 429, 430, 431, 432, 433, 434, 435, 436, 437, 438, 439, 440, 441, 442, 443, 444, 445, 446, 447, 448, 449, 450, 451, 452, 453, 454, 455, 456, 457, 458, 459, 460, 461, 462, 463, 464, 465, 466, 467],
      "AcquisitionTime": ["135743.597500", "135744.597500", "135745.597500", "135746.597500", "135747.597500", "135748.597500", "135749.597500", "135750.597500", "135751.597500", "135752.597500", "135753.597500", "135754.597500", "135755.597500", "135756.597500", "135757.597500", "135758.597500", "135759.597500", "135800.597500", "135801.597500", "135802.597500", "135803.597500", "135804.597500", "135805.597500", "135806.597500", "135807.597500", "135808.597500", "135809.597500", "135810.597500", "135811.597500", "135812.597500", "135813.597500", "135814.597500", "135815.597500", "135816.597500", "135817.597500", "135818.597500", "135819.597500", "135820.597500", "135821.597500", "135822.597500", "135823.597500", "135824.597500", "135825.597500", "135826.597500", "135827.597500", "135828.597500", "135829.597500", "135830.597500", "135831.597500", "135832.597500", "135833.597500", "135834.597500", "135835.597500", "135836.597500", "135837.597500", "135838.597500", "135839.597500", "135840.597500", "135841.597500", "135842.597500", "135843.597500", "135844.597500", "135845.597500", "135846.597500", "135847.597500", "135848.597500", "135849.597500", "135850.597500", "135851.597500", "135852.597500", "135853.597500", "135854.597500", "135855.597500", "135856.597500", "135857.597500", "135858.597500", "135859.597500", "135900.597500", "135901.597500", "135902.597500", "135903.597500", "135904.597500", "135905.597500", "135906.597500", "135907.597500", "135908.597500", "135909.597500", "135910.597500", "135911.597500", "135912.597500", "135913.597500", "135914.597500", "135915.597500", "135916.597500", "135917.597500", "135918.597500", "135919.597500", "135920.597500", "135921.597500", "135922.597500", "135923.597500", "135924.597500", "135925.597500", "135926.597500", "135927.597500", "135928.597500", "135929.597500", "135930.597500", "135931.597500", "135932.597500", "135933.597500", "135934.597500", "135935.597500", "135936.597500", "135937.597500", "135938.597500", "135939.597500", "135940.597500", "135941.597500", "135942.597500", "135943.597500", "135944.597500", "135945.597500", "135946.597500", "135947.597500", "135948.597500", "135949.597500", "135950.597500", "135951.597500", "135952.597500", "135953.597500", "135954.597500", "135955.597500", "135956.597500", "135957.597500", "135958.597500", "135959.597500", "140000.597500", "140001.597500", "140002.597500", "140003.597500", "140004.597500", "140005.597500", "140006.597500", "140007.597500", "140008.597500", "140009.597500", "140010.597500", "140011.597500", "140012.597500", "140013.597500", "140014.597500", "140015.597500", "140016.597500", "140017.597500", "140018.597500", "140019.597500", "140020.597500", "140021.597500", "140022.597500", "140023.597500", "140024.597500", "140025.597500", "140026.597500", "140027.597500", "140028.597500", "140029.597500", "140030.597500", "140031.597500", "140032.597500", "140033.597500", "140034.597500", "140035.597500", "140036.597500", "140037.597500", "140038.597500", "140039.597500", "140040.597500", "140041.597500", "140042.597500", "140043.597500", "140044.597500", "140045.597500", "140046.597500", "140047.597500", "140048.597500", "140049.597500", "140050.597500", "140051.597500", "140052.597500", "140053.597500", "140054.597500", "140055.597500", "140056.597500", "140057.597500", "140058.597500", "140059.597500", "140100.597500", "140101.597500", "140102.597500", "140103.597500", "140104.597500", "140105.597500", "140106.597500", "140107.597500", "140108.597500", "140109.597500", "140110.597500", "140111.597500", "140112.597500", "140113.597500", "140114.597500", "140115.597500", "140116.597500", "140117.597500", "140118.597500", "140119.597500", "140120.597500", "140121.597500", "140122.597500", "140123.597500", "140124.597500", "140125.597500", "140126.597500", "140127.597500", "140128.597500", "140129.597500", "140130.597500", "140131.597500", "140132.597500", "140133.597500", "140134.597500", "140135.597500", "140136.597500", "140137.597500", "140138.597500", "140139.597500", "140140.597500", "140141.597500", "140142.597500", "140143.597500", "140144.597500", "140145.597500", "140146.597500", "140147.597500", "140148.597500", "140149.597500", "140150.597500", "140151.597500", "140152.597500", "140153.597500", "140154.597500", "140155.597500", "140156.597500", "140157.597500", "140158.597500", "140159.597500", "140200.597500", "140201.597500", "140202.597500", "140203.597500", "140204.597500", "140205.597500", "140206.597500", "140207.597500", "140208.597500", "140209.597500", "140210.597500", "140211.597500", "140212.597500", "140213.597500", "140214.597500", "140215.597500", "140216.597500", "140217.597500", "140218.597500", "140219.597500", "140220.597500", "140221.597500", "140222.597500", "140223.597500", "140224.597500", "140225.597500", "140226.597500", "140227.597500", "140228.597500", "140229.597500", "140230.597500", "140231.597500", "140232.597500", "140233.597500", "140234.597500", "140235.597500", "140236.597500", "140237.597500", "140238.597500", "140239.597500", "140240.597500", "140241.597500", "140242.597500", "140243.597500", "140244.597500", "140245.597500", "140246.597500", "140247.597500", "140248.597500", "140249.597500", "140250.597500", "140251.597500", "140252.597500", "140253.597500", "140254.597500", "140255.597500", "140256.597500", "140257.597500", "140258.597500", "140259.597500", "140300.597500", "140301.597500", "140302.597500", "140303.597500", "140304.597500", "140305.597500", "140306.597500", "140307.597500", "140308.597500", "140309.597500", "140310.597500", "140311.597500", "140312.597500", "140313.597500", "140314.597500", "140315.597500", "140316.597500", "140317.597500", "140318.597500", "140319.597500", "140320.597500", "140321.597500", "140322.597500", "140323.597500", "140324.597500", "140325.597500", "140326.597500", "140327.597500", "140328.597500", "140329.597500", "140330.597500", "140331.597500", "140332.597500", "140333.597500", "140334.597500", "140335.597500", "140336.597500", "140337.597500", "140338.597500", "140339.597500", "140340.597500", "140341.597500", "140342.597500", "140343.597500", "140344.597500", "140345.597500", "140346.597500", "140347.597500", "140348.597500", "140349.597500", "140350.597500", "140351.597500", "140352.597500", "140353.597500", "140354.597500", "140355.597500", "140356.597500", "140357.597500", "140358.597500", "140359.597500", "140400.597500", "140401.597500", "140402.597500", "140403.597500", "140404.597500", "140405.597500", "140406.597500", "140407.597500", "140408.597500", "140409.597500", "140410.597500", "140411.597500", "140412.597500", "140413.597500", "140414.597500", "140415.597500", "140416.597500", "140417.597500", "140418.597500", "140419.597500", "140420.597500", "140421.597500", "140422.597500", "140423.597500", "140424.597500", "140425.597500", "140426.597500", "140427.597500", "140428.597500", "140429.597500", "140430.597500", "140431.597500", "140432.597500", "140433.597500", "140434.597500", "140435.597500", "140436.597500", "140437.597500", "140438.597500", "140439.597500", "140440.597500", "140441.597500", "140442.597500", "140443.597500", "140444.597500", "140445.597500", "140446.597500", "140447.597500", "140448.597500", "140449.597500", "140450.597500", "140451.597500", "140452.597500", "140453.597500", "140454.597500", "140455.597500", "140456.597500", "140457.597500", "140458.597500", "140459.597500", "140500.597500", "140501.597500", "140502.597500", "140503.597500", "140504.597500", "140505.597500", "140506.597500", "140507.597500", "140508.597500", "140509.597500", "140510.597500", "140511.597500", "140512.597500", "140513.597500", "140514.597500", "140515.597500", "140516.597500", "140517.597500", "140518.597500", "140519.597500", "140520.597500", "140521.597500", "140522.597500", "140523.597500", "140524.597500", "140525.597500", "140526.597500", "140527.597500", "140528.597500", "140529.597500"],
      "ContentTime": ["135819.441000", "135819.449000", "135819.451000", "135819.454000", "135819.456000", "135819.459000", "135819.464000", "135819.467000", "135819.469000", "135819.472000", "135819.474000", "135819.477000", "135819.479000", "135819.482000", "135819.484000", "135819.487000", "135819.489000", "135819.492000", "135819.494000", "135819.497000", "135819.499000", "135819.502000", "135819.504000", "135819.506000", "135819.509000", "135819.518000", "135819.521000", "135819.523000", "135819.526000", "135819.528000", "135819.531000", "135819.533000", "135819.536000", "135819.538000", "135819.541000", "135839.377000", "135839.380000", "135839.383000", "135839.385000", "135839.388000", "135839.390000", "135839.393000", "135839.395000", "135839.398000", "135839.400000", "135839.403000", "135839.405000", "135839.408000", "135839.410000", "135839.413000", "135839.415000", "135839.418000", "135839.420000", "135839.423000", "135839.425000", "135859.377000", "135859.380000", "135859.383000", "135859.385000", "135859.388000", "135859.390000", "135859.393000", "135859.395000", "135859.398000", "135859.401000", "135859.403000", "135859.405000", "135859.408000", "135859.411000", "135859.413000", "135859.416000", "135859.418000", "135859.422000", "135859.424000", "135859.427000", "135919.377000", "135919.380000", "135919.383000", "135919.385000", "135919.387000", "135919.390000", "135919.392000", "135919.395000", "135919.397000", "135919.400000", "135919.402000", "135919.405000", "135919.407000", "135919.410000", "135919.412000", "135919.415000", "135919.429000", "135919.432000", "135919.434000", "135919.437000", "135939.376000", "135939.379000", "135939.382000", "135939.384000", "135939.387000", "135939.389000", "135939.403000", "135939.406000", "135939.408000", "135939.411000", "135939.413000", "135939.416000", "135939.418000", "135939.421000", "135939.423000", "135939.426000", "135939.428000", "135939.431000", "135939.433000", "135939.436000", "135959.377000", "135959.380000", "135959.383000", "135959.385000", "135959.388000", "135959.390000", "135959.392000", "135959.395000", "135959.397000", "135959.400000", "135959.402000", "135959.405000", "135959.407000", "135959.410000", "135959.412000", "135959.415000", "135959.417000", "135959.420000", "135959.422000", "135959.424000", "140019.377000", "140019.380000", "140019.383000", "140019.385000", "140019.388000", "140019.390000", "140019.392000", "140019.395000", "140019.397000", "140019.400000", "140019.402000", "140019.405000", "140019.407000", "140019.410000", "140019.412000", "140019.415000", "140019.417000", "140019.420000", "140019.422000", "140019.425000", "140039.377000", "140039.380000", "140039.383000", "140039.385000", "140039.387000", "140039.390000", "140039.392000", "140039.395000", "140039.397000", "140039.400000", "140039.402000", "140039.405000", "140039.407000", "140039.410000", "140039.412000", "140039.415000", "140039.417000", "140039.419000", "140039.422000", "140039.424000", "140059.377000", "140059.380000", "140059.383000", "140059.385000", "140059.388000", "140059.390000", "140059.392000", "140059.395000", "140059.397000", "140059.400000", "140059.402000", "140059.405000", "140059.407000", "140059.410000", "140059.412000", "140059.415000", "140059.417000", "140059.420000", "140059.422000", "140059.424000", "140119.377000", "140119.396000", "140119.398000", "140119.401000", "140119.403000", "140119.406000", "140119.408000", "140119.411000", "140119.413000", "140119.416000", "140119.418000", "140119.452000", "140119.454000", "140119.456000", "140119.459000", "140119.461000", "140119.464000", "140119.466000", "140119.469000", "140119.471000", "140139.378000", "140139.380000", "140139.383000", "140139.385000", "140139.388000", "140139.390000", "140139.392000", "140139.395000", "140139.397000", "140139.400000", "140139.403000", "140139.405000", "140139.408000", "140139.410000", "140139.413000", "140139.415000", "140139.418000", "140139.420000", "140139.423000", "140139.425000", "140159.376000", "140159.379000", "140159.382000", "140159.384000", "140159.387000", "140159.389000", "140159.392000", "140159.394000", "140159.396000", "140159.399000", "140159.401000", "140159.404000", "140159.406000", "140159.409000", "140159.411000", "140159.414000", "140159.416000", "140159.419000", "140159.421000", "140159.424000", "140219.378000", "140219.380000", "140219.383000", "140219.385000", "140219.388000", "140219.390000", "140219.393000", "140219.395000", "140219.398000", "140219.400000", "140219.403000", "140219.405000", "140219.408000", "140219.410000", "140219.412000", "140219.415000", "140219.417000", "140219.420000", "140219.422000", "140219.425000", "140239.377000", "140239.380000", "140239.383000", "140239.385000", "140239.388000", "140239.390000", "140239.393000", "140239.395000", "140239.398000", "140239.400000", "140239.403000", "140239.405000", "140239.408000", "140239.410000", "140239.413000", "140239.415000", "140239.418000", "140239.420000", "140239.423000", "140239.425000", "140259.377000", "140259.380000", "140259.382000", "140259.385000", "140259.388000", "140259.390000", "140259.392000", "140259.395000", "140259.398000", "140259.400000", "140259.403000", "140259.405000", "140259.408000", "140259.410000", "140259.413000", "140259.415000", "140259.418000", "140259.421000", "140259.423000", "140259.426000", "140319.377000", "140319.380000", "140319.382000", "140319.385000", "140319.388000", "140319.390000", "140319.393000", "140319.395000", "140319.398000", "140319.400000", "140319.403000", "140319.405000", "140319.408000", "140319.410000", "140319.413000", "140319.415000", "140319.418000", "140319.420000", "140319.423000", "140319.425000", "140339.377000", "140339.380000", "140339.383000", "140339.385000", "140339.388000", "140339.390000", "140339.392000", "140339.395000", "140339.397000", "140339.400000", "140339.402000", "140339.405000", "140339.407000", "140339.410000", "140339.412000", "140339.415000", "140339.417000", "140339.420000", "140339.422000", "140339.424000", "140359.377000", "140359.380000", "140359.383000", "140359.385000", "140359.399000", "140359.402000", "140359.404000", "140359.407000", "140359.409000", "140359.412000", "140359.414000", "140359.417000", "140359.419000", "140359.422000", "140359.424000", "140359.427000", "140359.430000", "140359.432000", "140359.434000", "140359.437000", "140419.377000", "140419.379000", "140419.382000", "140419.384000", "140419.387000", "140419.390000", "140419.392000", "140419.394000", "140419.397000", "140419.400000", "140419.402000", "140419.405000", "140419.407000", "140419.410000", "140419.412000", "140419.415000", "140419.417000", "140419.420000", "140419.422000", "140419.425000", "140439.378000", "140439.380000", "140439.383000", "140439.385000", "140439.388000", "140439.390000", "140439.393000", "140439.395000", "140439.398000", "140439.400000", "140439.403000", "140439.405000", "140439.408000", "140439.410000", "140439.413000", "140439.430000", "140439.433000", "140439.435000", "140439.437000", "140439.440000", "140459.377000", "140459.380000", "140459.382000", "140459.385000", "140459.388000", "140459.390000", "140459.392000", "140459.395000", "140459.398000", "140459.400000", "140459.403000", "140459.405000", "140459.408000", "140459.410000", "140459.413000", "140459.415000", "140459.418000", "140459.420000", "140459.423000", "140459.425000", "140519.377000", "140519.380000", "140519.383000", "140519.385000", "140519.388000", "140519.400000", "140519.403000", "140519.405000", "140519.408000", "140519.410000", "140519.413000", "140519.415000", "140519.418000", "140519.420000", "140519.423000", "140519.425000", "140519.428000", "140519.430000", "140519.433000", "140519.435000", "140531.768000", "140531.771000", "140531.773000", "140531.776000", "140531.778000", "140531.781000", "140531.783000", "140531.786000", "140531.788000", "140531.791000", "140531.793000", "140531.796000"],
