{
  "AcquisitionMatrixPE": 106,
  "AcquisitionNumber": 1,
  "AcquisitionTime": "14:48:6.910000",
  "BandwidthPerPixelPhaseEncode": 13.477,
  "BaseResolution": 106,
  "BodyPartExamined": "BRAIN",
  "CoilCombinationMethod": "Sum of Squares",
  "ConsistencyInfo": "N4_VE11C_LATEST_20160120",
  "ConversionSoftware": "dcm2niix",
  "ConversionSoftwareVersion": "v1.0.20220720",
  "DerivedVendorReportedEchoSpacing": 0.000700005,
  "DeviceSerialNumber": "166108",
  "DwellTime": 2.6e-06,
  "EchoTime": 0.03,
  "EchoTrainLength": 80,
  "EffectiveEchoSpacing": 0.000700005,
  "FlipAngle": 62,
  "HeudiconvVersion": "1.3.0",
  "ImageComments": "Unaliased MB4/PE3/LB",
  "ImageOrientationPatientDICOM": [1, 0, 0, 0, 0.92321, -0.384295],
  "ImageOrientationText": "Tra>Cor(-22.6)",
  "ImageType": [
    "ORIGINAL",
    "PRIMARY",
    "M",
    "MB",
    "ND",
    "MOSAIC"
],
  "ImagingFrequency": 123.244,
  "InPlanePhaseEncodingDirectionDICOM": "COL",
  "InstitutionAddress": "Bedford Way 26,London,London,GB,WC1H 0AP",
  "InstitutionName": "University College",
  "InstitutionalDepartmentName": "Department",
  "MRAcquisitionType": "2D",
  "MagneticFieldStrength": 3,
  "Manufacturer": "Siemens",
  "ManufacturersModelName": "Prisma",
  "MatrixCoilMode": "SENSE",
  "Modality": "MR",
  "MultibandAccelerationFactor": 4,
  "NonlinearGradientCorrection": false,
  "PartialFourier": 0.75,
  "PatientPosition": "HFS",
  "PercentPhaseFOV": 100,
  "PercentSampling": 100,
  "PhaseEncodingDirection": "j-",
  "PhaseEncodingSteps": 80,
  "PhaseResolution": 1,
  "PixelBandwidth": 1815,
  "ProcedureStepDescription": "Egor^MovieProject2",
  "ProtocolName": "func-bold_task-tono_run-02",
  "PulseSequenceDetails": "%CustomerSeq%\\cmrr_mbep2d_bold",
  "ReceiveCoilActiveElements": "HEA;HEP",
  "ReceiveCoilName": "Head_32",
  "ReconMatrixPE": 106,
  "RepetitionTime": 1,
  "SAR": 0.045299,
  "ScanOptions": "PFP\\FS\\EXT",
  "ScanningSequence": "EP",
  "SequenceName": "epfid2d1_106",
  "SequenceVariant": "SK\\SS",
  "SeriesDescription": "func-bold_task-tono_run-02",
  "SeriesNumber": 20,
  "ShimSetting": [-1660, 668, 7420, 409, 10, 287, -45, 115],
  "SliceThickness": 2,
  "SliceTiming": [0, 0.535, 0.09, 0.625, 0.18, 0.7125, 0.2675, 0.8025, 0.3575, 0.8925, 0.4475, 0, 0.535, 0.09, 0.625, 0.18, 0.7125, 0.2675, 0.8025, 0.3575, 0.8925, 0.4475, 0, 0.535, 0.09, 0.625, 0.18, 0.7125, 0.2675, 0.8025, 0.3575, 0.8925, 0.4475, 0, 0.535, 0.09, 0.625, 0.18, 0.7125, 0.2675, 0.8025, 0.3575, 0.8925, 0.4475],
  "SoftwareVersions": "syngo MR E11",
  "SpacingBetweenSlices": 2,
  "StationName": "AWP166108",
  "TaskName": "tonotopy",
  "TotalReadoutTime": 0.0735005,
  "TxRefAmp": 261.158,
  "WipMemBlock": "06dcde35-3ad1-484a-8ee4-dfeea1c3d019||Sequence: R016 ve11c/master r/e634e98; Dec 19 2017 11:00:25 by eja",
  "dcmmeta_affine": [
    [-2.0, 0.0, 0.0, 106.0],
    [0.0, 1.846420407295227, -0.7685906291007996, -65.98094177246094],
    [0.0, 0.7685906291007996, 1.846420407295227, -61.44847106933594],
    [0.0, 0.0, 0.0, 1.0]
],
  "dcmmeta_reorient_transform": [
    [0.0, -1.0, 0.0, 105.0],
    [1.0, 0.0, 0.0, 0.0],
    [0.0, 0.0, 1.0, 0.0],
    [0.0, 0.0, 0.0, 1.0]
],
  "dcmmeta_shape": [106, 106, 44, 264],
  "dcmmeta_slice_dim": 2,
  "dcmmeta_version": 0.6,
  "global": {
    "const": {
      "AcquisitionMatrix": [106, 0, 0, 106],
      "AngioFlag": "N",
      "BitsAllocated": 16,
      "BitsStored": 16,
      "BodyPartExamined": "BRAIN",
      "CardiacNumberOfImages": 1,
      "Columns": 742,
      "EchoNumbers": 1,
      "EchoTime": 30.0,
      "EchoTrainLength": 80,
      "FlipAngle": 62.0,
      "HighBit": 15,
      "ImageOrientationPatient": [1.0, 0.0, 0.0, 0.0, 0.92321021840191, -0.3842953195634],
      "ImagePositionPatient": [-742.0, -715.05490479897, 263.66537090569],
      "ImageType": [
        "ORIGINAL",
        "PRIMARY",
        "M",
        "MB",
        "ND",
        "MOSAIC"
],
      "ImagedNucleus": "1H",
      "ImagingFrequency": 123.24368,
      "InPlanePhaseEncodingDirection": "COL",
      "MRAcquisitionType": "2D",
      "MagneticFieldStrength": 3.0,
      "Manufacturer": "SIEMENS",
      "ManufacturerModelName": "Prisma",
      "Modality": "MR",
      "NominalInterval": 0,
      "NumberOfAverages": 1.0,
      "NumberOfPhaseEncodingSteps": 80,
      "PercentPhaseFieldOfView": 100.0,
      "PercentSampling": 100.0,
      "PerformedProcedureStepStartTime": "133509.630000",
      "PhotometricInterpretation": "MONOCHROME2",
      "PixelBandwidth": 1815.0,
      "PixelRepresentation": 0,
      "PixelSpacing": [2.0, 2.0],
      "ProtocolName": "func-bold_task-tono_run-02",
      "RepetitionTime": 1000.0,
      "Rows": 742,
      "SAR": 0.04529902993661,
      "SamplesPerPixel": 1,
      "ScanOptions": [
        "PFP",
        "FS",
        "EXT"
],
      "ScanningSequence": "EP",
      "SequenceName": "epfid2d1_106",
      "SequenceVariant": [
        "SK",
        "SS"
],
      "SeriesDescription": "func-bold_task-tono_run-02",
      "SeriesNumber": 20,
      "SeriesTime": "144846.103000",
      "SliceLocation": -31.373688486208,
      "SliceThickness": 2.0,
      "SmallestImagePixelValue": 0,
      "SoftwareVersions": "syngo MR E11",
      "SpacingBetweenSlices": 1.999999989692,
      "SpecificCharacterSet": "ISO_IR 100",
      "StudyID": "1",
      "StudyTime": "133509.549000",
      "TransmitCoilName": "Body",
      "VariableFlipAngleFlag": "N",
      "WindowCenterWidthExplanation": "Algo1",
      "dBdt": 0.0},
    "slices": {}
  },
  "time": {
    "samples": {
      "AcquisitionNumber": [1, 2, 3, 4, 5, 6, 7, 8, 9, 10, 11, 12, 13, 14, 15, 16, 17, 18, 19, 20, 21, 22, 23, 24, 25, 26, 27, 28, 29, 30, 31, 32, 33, 34, 35, 36, 37, 38, 39, 40, 41, 42, 43, 44, 45, 46, 47, 48, 49, 50, 51, 52, 53, 54, 55, 56, 57, 58, 59, 60, 61, 62, 63, 64, 65, 66, 67, 68, 69, 70, 71, 72, 73, 74, 75, 76, 77, 78, 79, 80, 81, 82, 83, 84, 85, 86, 87, 88, 89, 90, 91, 92, 93, 94, 95, 96, 97, 98, 99, 100, 101, 102, 103, 104, 105, 106, 107, 108, 109, 110, 111, 112, 113, 114, 115, 116, 117, 118, 119, 120, 121, 122, 123, 124, 125, 126, 127, 128, 129, 130, 131, 132, 133, 134, 135, 136, 137, 138, 139, 140, 141, 142, 143, 144, 145, 146, 147, 148, 149, 150, 151, 152, 153, 154, 155, 156, 157, 158, 159, 160, 161, 162, 163, 164, 165, 166, 167, 168, 169, 170, 171, 172, 173, 174, 175, 176, 177, 178, 179, 180, 181, 182, 183, 184, 185, 186, 187, 188, 189, 190, 191, 192, 193, 194, 195, 196, 197, 198, 199, 200, 201, 202, 203, 204, 205, 206, 207, 208, 209, 210, 211, 212, 213, 214, 215, 216, 217, 218, 219, 220, 221, 222, 223, 224, 225, 226, 227, 228, 229, 230, 231, 232, 233, 234, 235, 236, 237, 238, 239, 240, 241, 242, 243, 244, 245, 246, 247, 248, 249, 250, 251, 252, 253, 254, 255, 256, 257, 258, 259, 260, 261, 262, 263, 264],
      "AcquisitionTime": ["144806.910000", "144807.910000", "144808.910000", "144809.910000", "144810.910000", "144811.910000", "144812.910000", "144813.910000", "144814.910000", "144815.910000", "144816.910000", "144817.910000", "144818.910000", "144819.910000", "144820.910000", "144821.910000", "144822.910000", "144823.910000", "144824.910000", "144825.910000", "144826.910000", "144827.910000", "144828.910000", "144829.910000", "144830.910000", "144831.910000", "144832.910000", "144833.910000", "144834.910000", "144835.910000", "144836.910000", "144837.910000", "144838.910000", "144839.910000", "144840.910000", "144841.910000", "144842.910000", "144843.910000", "144844.910000", "144845.910000", "144846.910000", "144847.910000", "144848.910000", "144849.910000", "144850.910000", "144851.910000", "144852.910000", "144853.910000", "144854.910000", "144855.910000", "144856.910000", "144857.910000", "144858.910000", "144859.910000", "144900.910000", "144901.910000", "144902.910000", "144903.910000", "144904.910000", "144905.910000", "144906.910000", "144907.910000", "144908.910000", "144909.910000", "144910.910000", "144911.910000", "144912.910000", "144913.910000", "144914.910000", "144915.910000", "144916.910000", "144917.910000", "144918.910000", "144919.910000", "144920.910000", "144921.910000", "144922.910000", "144923.910000", "144924.910000", "144925.910000", "144926.910000", "144927.910000", "144928.910000", "144929.910000", "144930.910000", "144931.910000", "144932.910000", "144933.910000", "144934.910000", "144935.910000", "144936.910000", "144937.910000", "144938.910000", "144939.910000", "144940.910000", "144941.910000", "144942.910000", "144943.910000", "144944.910000", "144945.910000", "144946.910000", "144947.910000", "144948.910000", "144949.910000", "144950.910000", "144951.910000", "144952.910000", "144953.910000", "144954.910000", "144955.910000", "144956.910000", "144957.910000", "144958.910000", "144959.910000", "145000.910000", "145001.910000", "145002.910000", "145003.910000", "145004.910000", "145005.910000", "145006.910000", "145007.910000", "145008.910000", "145009.910000", "145010.910000", "145011.910000", "145012.910000", "145013.910000", "145014.910000", "145015.910000", "145016.910000", "145017.910000", "145018.910000", "145019.910000", "145020.910000", "145021.910000", "145022.910000", "145023.910000", "145024.910000", "145025.910000", "145026.910000", "145027.910000", "145028.910000", "145029.910000", "145030.910000", "145031.910000", "145032.910000", "145033.910000", "145034.910000", "145035.910000", "145036.910000", "145037.910000", "145038.910000", "145039.910000", "145040.910000", "145041.910000", "145042.910000", "145043.910000", "145044.910000", "145045.910000", "145046.910000", "145047.910000", "145048.910000", "145049.910000", "145050.910000", "145051.910000", "145052.910000", "145053.910000", "145054.910000", "145055.910000", "145056.910000", "145057.910000", "145058.910000", "145059.910000", "145100.910000", "145101.910000", "145102.910000", "145103.910000", "145104.910000", "145105.910000", "145106.910000", "145107.910000", "145108.910000", "145109.910000", "145110.910000", "145111.910000", "145112.910000", "145113.910000", "145114.910000", "145115.910000", "145116.910000", "145117.910000", "145118.910000", "145119.910000", "145120.910000", "145121.910000", "145122.910000", "145123.910000", "145124.910000", "145125.910000", "145126.910000", "145127.910000", "145128.910000", "145129.910000", "145130.910000", "145131.910000", "145132.910000", "145133.910000", "145134.910000", "145135.910000", "145136.910000", "145137.910000", "145138.910000", "145139.910000", "145140.910000", "145141.910000", "145142.910000", "145143.910000", "145144.910000", "145145.910000", "145146.910000", "145147.910000", "145148.910000", "145149.910000", "145150.910000", "145151.910000", "145152.910000", "145153.910000", "145154.910000", "145155.910000", "145156.910000", "145157.910000", "145158.910000", "145159.910000", "145200.910000", "145201.910000", "145202.910000", "145203.910000", "145204.910000", "145205.910000", "145206.910000", "145207.910000", "145208.910000", "145209.910000", "145210.910000", "145211.910000", "145212.910000", "145213.910000", "145214.910000", "145215.910000", "145216.910000", "145217.910000", "145218.910000", "145219.910000", "145220.910000", "145221.910000", "145222.910000", "145223.910000", "145224.910000", "145225.910000", "145226.910000", "145227.910000", "145228.910000", "145229.910000"],
      "ContentTime": ["144846.106000", "144846.109000", "144846.111000", "144846.114000", "144846.121000", "144846.123000", "144846.126000", "144846.128000", "144846.131000", "144846.133000", "144846.136000", "144846.138000", "144846.141000", "144846.143000", "144846.145000", "144846.148000", "144846.150000", "144846.153000", "144846.155000", "144846.158000", "144846.160000", "144846.163000", "144846.165000", "144846.177000", "144846.179000", "144846.182000", "144846.184000", "144846.187000", "144846.200000", "144846.203000", "144846.205000", "144846.208000", "144846.210000", "144846.213000", "144846.215000", "144846.218000", "144846.220000", "144846.223000", "144906.076000", "144906.079000", "144906.082000", "144906.084000", "144906.086000", "144906.089000", "144906.091000", "144906.094000", "144906.096000", "144906.099000", "144906.101000", "144906.104000", "144906.106000", "144906.109000", "144906.111000", "144906.121000", "144906.123000", "144906.126000", "144906.128000", "144906.131000", "144926.076000", "144926.079000", "144926.082000", "144926.084000", "144926.087000", "144926.089000", "144926.092000", "144926.094000", "144926.096000", "144926.099000", "144926.101000", "144926.104000", "144926.106000", "144926.109000", "144926.111000", "144926.114000", "144926.116000", "144926.119000", "144926.121000", "144926.124000", "144946.076000", "144946.079000", "144946.082000", "144946.084000", "144946.087000", "144946.089000", "144946.091000", "144946.094000", "144946.096000", "144946.099000", "144946.101000", "144946.104000", "144946.106000", "144946.109000", "144946.111000", "144946.114000", "144946.116000", "144946.118000", "144946.121000", "144946.123000", "145006.076000", "145006.079000", "145006.082000", "145006.084000", "145006.086000", "145006.089000", "145006.097000", "145006.099000", "145006.102000", "145006.104000", "145006.107000", "145006.110000", "145006.113000", "145006.115000", "145006.118000", "145006.120000", "145006.123000", "145006.125000", "145006.128000", "145006.130000", "145026.077000", "145026.080000", "145026.083000", "145026.085000", "145026.088000", "145026.090000", "145026.093000", "145026.095000", "145026.097000", "145026.100000", "145026.102000", "145026.105000", "145026.121000", "145026.126000", "145026.129000", "145026.131000", "145026.133000", "145026.136000", "145026.138000", "145026.141000", "145046.077000", "145046.080000", "145046.089000", "145046.091000", "145046.094000", "145046.096000", "145046.099000", "145046.101000", "145046.104000", "145046.106000", "145046.109000", "145046.111000", "145046.114000", "145046.116000", "145046.119000", "145046.121000", "145046.124000", "145046.126000", "145046.129000", "145046.131000", "145106.078000", "145106.080000", "145106.083000", "145106.085000", "145106.088000", "145106.090000", "145106.093000", "145106.095000", "145106.098000", "145106.100000", "145106.103000", "145106.105000", "145106.108000", "145106.110000", "145106.113000", "145106.115000", "145106.118000", "145106.120000", "145106.122000", "145106.125000", "145126.076000", "145126.079000", "145126.082000", "145126.084000", "145126.087000", "145126.089000", "145126.092000", "145126.094000", "145126.097000", "145126.099000", "145126.102000", "145126.104000", "145126.107000", "145126.109000", "145126.111000", "145126.114000", "145126.116000", "145126.119000", "145126.121000", "145126.124000", "145146.076000", "145146.079000", "145146.082000", "145146.084000", "145146.087000", "145146.089000", "145146.092000", "145146.094000", "145146.097000", "145146.099000", "145146.102000", "145146.104000", "145146.107000", "145146.109000", "145146.112000", "145146.114000", "145146.117000", "145146.119000", "145146.122000", "145146.124000", "145206.076000", "145206.079000", "145206.082000", "145206.084000", "145206.087000", "145206.089000", "145206.092000", "145206.094000", "145206.097000", "145206.099000", "145206.102000", "145206.104000", "145206.107000", "145206.109000", "145206.112000", "145206.114000", "145206.117000", "145206.119000", "145206.121000", "145206.124000", "145226.077000", "145226.080000", "145226.082000", "145226.085000", "145226.087000", "145226.090000", "145226.092000", "145226.095000", "145226.097000", "145226.100000", "145226.102000", "145226.105000", "145226.107000", "145226.110000", "145226.112000", "145226.115000", "145226.117000", "145226.120000", "145226.122000", "145226.125000", "145231.651000", "145231.655000", "145231.657000", "145231.661000", "145231.665000", "145231.668000"],
      "InstanceCreationTime": ["144846.106000", "144846.109000", "144846.111000", "144846.114000", "144846.121000", "144846.123000", "144846.126000", "144846.128000", "144846.131000", "144846.133000", "144846.136000", "144846.138000", "144846.141000", "144846.143000", "144846.145000", "144846.148000", "144846.150000", "144846.153000", "144846.155000", "144846.158000", "144846.160000", "144846.163000", "144846.165000", "144846.177000", "144846.179000", "144846.182000", "144846.184000", "144846.187000", "144846.200000", "144846.203000", "144846.205000", "144846.208000", "144846.210000", "144846.213000", "144846.215000", "144846.218000", "144846.220000", "144846.223000", "144906.076000", "144906.079000", "144906.082000", "144906.084000", "144906.086000", "144906.089000", "144906.091000", "144906.094000", "144906.096000", "144906.099000", "144906.101000", "144906.104000", "144906.106000", "144906.109000", "144906.111000", "144906.121000", "144906.123000", "144906.126000", "144906.128000", "144906.131000", "144926.076000", "144926.079000", "144926.082000", "144926.084000", "144926.087000", "144926.089000", "144926.092000", "144926.094000", "144926.096000", "144926.099000", "144926.101000", "144926.104000", "144926.106000", "144926.109000", "144926.111000", "144926.114000", "144926.116000", "144926.119000", "144926.121000", "144926.124000", "144946.076000", "144946.079000", "144946.082000", "144946.084000", "144946.087000", "144946.089000", "144946.091000", "144946.094000", "144946.096000", "144946.099000", "144946.101000", "144946.104000", "144946.106000", "144946.109000", "144946.111000", "144946.114000", "144946.116000", "144946.118000", "144946.121000", "144946.123000", "145006.076000", "145006.079000", "145006.082000", "145006.084000", "145006.086000", "145006.089000", "145006.097000", "145006.099000", "145006.102000", "145006.104000", "145006.107000", "145006.110000", "145006.113000", "145006.115000", "145006.118000", "145006.120000", "145006.123000", "145006.125000", "145006.128000", "145006.130000", "145026.077000", "145026.080000", "145026.083000", "145026.085000", "145026.088000", "145026.090000", "145026.093000", "145026.095000", "145026.097000", "145026.100000", "145026.102000", "145026.105000", "145026.121000", "145026.126000", "145026.129000", "145026.131000", "145026.133000", "145026.136000", "145026.138000", "145026.141000", "145046.077000", "145046.080000", "145046.089000", "145046.091000", "145046.094000", "145046.096000", "145046.099000", "145046.101000", "145046.104000", "145046.106000", "145046.109000", "145046.111000", "145046.114000", "145046.116000", "145046.119000", "145046.121000", "145046.124000", "145046.126000", "145046.129000", "145046.131000", "145106.078000", "145106.080000", "145106.083000", "145106.085000", "145106.088000", "145106.090000", "145106.093000", "145106.095000", "145106.098000", "145106.100000", "145106.103000", "145106.105000", "145106.108000", "145106.110000", "145106.113000", "145106.115000", "145106.118000", "145106.120000", "145106.122000", "145106.125000", "145126.076000", "145126.079000", "145126.082000", "145126.084000", "145126.087000", "145126.089000", "145126.092000", "145126.094000", "145126.097000", "145126.099000", "145126.102000", "145126.104000", "145126.107000", "145126.109000", "145126.111000", "145126.114000", "145126.116000", "145126.119000", "145126.121000", "145126.124000", "145146.076000", "145146.079000", "145146.082000", "145146.084000", "145146.087000", "145146.089000", "145146.092000", "145146.094000", "145146.097000", "145146.099000", "145146.102000", "145146.104000", "145146.107000", "145146.109000", "145146.112000", "145146.114000", "145146.117000", "145146.119000", "145146.122000", "145146.124000", "145206.076000", "145206.079000", "145206.082000", "145206.084000", "145206.087000", "145206.089000", "145206.092000", "145206.094000", "145206.097000", "145206.099000", "145206.102000", "145206.104000", "145206.107000", "145206.109000", "145206.112000", "145206.114000", "145206.117000", "145206.119000", "145206.121000", "145206.124000", "145226.077000", "145226.080000", "145226.082000", "145226.085000", "145226.087000", "145226.090000", "145226.092000", "145226.095000", "145226.097000", "145226.100000", "145226.102000", "145226.105000", "145226.107000", "145226.110000", "145226.112000", "145226.115000", "145226.117000", "145226.120000", "145226.122000", "145226.125000", "145231.651000", "145231.655000", "145231.657000", "145231.661000", "145231.665000", "145231.668000"],
      "InstanceNumber": [1, 2, 3, 4, 5, 6, 7, 8, 9, 10, 11, 12, 13, 14, 15, 16, 17, 18, 19, 20, 21, 22, 23, 24, 25, 26, 27, 28, 29, 30, 31, 32, 33, 34, 35, 36, 37, 38, 39, 40, 41, 42, 43, 44, 45, 46, 47, 48, 49, 50, 51, 52, 53, 54, 55, 56, 57, 58, 59, 60, 61, 62, 63, 64, 65, 66, 67, 68, 69, 70, 71, 72, 73, 74, 75, 76, 77, 78, 79, 80, 81, 82, 83, 84, 85, 86, 87, 88, 89, 90, 91, 92, 93, 94, 95, 96, 97, 98, 99, 100, 101, 102, 103, 104, 105, 106, 107, 108, 109, 110, 111, 112, 113, 114, 115, 116, 117, 118, 119, 120, 121, 122, 123, 124, 125, 126, 127, 128, 129, 130, 131, 132, 133, 134, 135, 136, 137, 138, 139, 140, 141, 142, 143, 144, 145, 146, 147, 148, 149, 150, 151, 152, 153, 154, 155, 156, 157, 158, 159, 160, 161, 162, 163, 164, 165, 166, 167, 168, 169, 170, 171, 172, 173, 174, 175, 176, 177, 178, 179, 180, 181, 182, 183, 184, 185, 186, 187, 188, 189, 190, 191, 192, 193, 194, 195, 196, 197, 198, 199, 200, 201, 202, 203, 204, 205, 206, 207, 208, 209, 210, 211, 212, 213, 214, 215, 216, 217, 218, 219, 220, 221, 222, 223, 224, 225, 226, 227, 228, 229, 230, 231, 232, 233, 234, 235, 236, 237, 238, 239, 240, 241, 242, 243, 244, 245, 246, 247, 248, 249, 250, 251, 252, 253, 254, 255, 256, 257, 258, 259, 260, 261, 262, 263, 264],
      "LargestImagePixelValue": [17322, 16939, 16687, 16686, 16246, 16145, 16267, 16101, 16489, 16400, 16488, 16431, 16151, 16092, 16038, 16151, 16378, 16035, 16145, 16270, 16326, 16081, 16259, 16144, 16048, 16188, 16053, 16079, 16225, 16231, 16209, 15925, 16317, 16067, 16023, 15908, 16216, 16025, 16070, 16287, 16066, 16295, 16341, 16318, 16091, 16360, 16305, 16313, 16181, 16222, 16149, 16186, 16221, 16206, 16280, 16473, 15939, 16252, 16193, 16122, 15912, 15953, 16072, 16144, 16304, 16295, 16198, 16013, 16056, 16141, 16097, 16219, 16067, 16110, 16439, 16244, 15999, 16203, 16341, 16194, 16161, 16312, 16175, 16174, 15975, 16477, 16093, 16232, 16372, 16259, 16274, 16465, 16344, 16119, 16235, 16093, 16189, 16063, 16181, 16178, 16232, 16087, 16027, 16204, 16128, 16219, 16147, 16144, 16308, 16457, 16241, 16345, 16686, 16231, 16267, 16494, 16293, 16407, 16260, 16448, 16318, 16499, 16362, 16289, 16515, 16491, 16312, 16563, 16374, 16479, 16476, 16341, 16449, 16502, 16437, 16400, 16286, 16157, 16119, 16111, 16181, 16279, 16264, 16275, 16335, 16487, 16184, 16308, 16279, 16334, 16336, 16514, 16271, 16278, 16087, 16198, 16230, 16526, 16640, 16509, 16417, 16513, 16497, 16413, 16337, 16316, 16451, 16407, 16500, 16532, 16415, 16504, 16393, 16521, 16490, 16338, 16510, 16524, 16291, 16458, 16463, 16326, 16360, 16325, 16342, 16525, 16474, 16398, 16538, 16450, 16467, 16442, 16342, 16567, 16596, 16261, 16474, 16379, 16453, 16352, 16438, 16489, 16364, 16313, 16347, 16453, 16452, 16459, 16455, 16469, 16464, 16484, 16470, 16339, 16492, 16537, 16475, 16396, 16396, 16341, 16368, 16465, 16460, 16330, 16126, 15790, 15750, 15631, 15835, 15843, 16133, 16486, 16479, 16386, 16359, 16250, 16232, 16294, 16278, 16329, 16460, 16441, 16333, 16323, 16448, 16295, 16124, 15898, 16053, 16137, 16296, 16317, 16435, 16486, 16663, 16481, 16636, 16547, 16331, 16373, 16264, 16393, 16352, 16271],
      "TriggerTime": [8102.5, 9102.5, 10102.5, 11102.5, 12102.5, 13102.5, 14102.5, 15102.5, 16102.5, 17102.5, 18102.5, 19102.5, 20102.5, 21102.5, 22102.5, 23102.5, 24102.5, 25102.5, 26102.5, 27102.5, 28102.5, 29102.5, 30102.5, 31102.5, 32102.5, 33102.5, 34102.5, 35102.5, 36102.5, 37102.5, 38102.5, 39102.5, 40102.5, 41102.5, 42102.5, 43102.5, 44102.5, 45102.5, 46102.5, 47102.5, 48102.5, 49102.5, 50102.5, 51102.5, 52102.5, 53102.5, 54102.5, 55102.5, 56102.5, 57102.5, 58102.5, 59102.5, 60102.5, 61102.5, 62102.5, 63102.5, 64102.5, 65102.5, 66102.5, 67102.5, 68102.5, 69102.5, 70102.5, 71102.5, 72102.5, 73102.5, 74102.5, 75102.5, 76102.5, 77102.5, 78102.5, 79102.5, 80102.5, 81102.5, 82102.5, 83102.5, 84102.5, 85102.5, 86102.5, 87102.5, 88102.5, 89102.5, 90102.5, 91102.5, 92102.5, 93102.5, 94102.5, 95102.5, 96102.5, 97102.5, 98102.5, 99102.5, 100102.5, 101102.5, 102102.5, 103102.5, 104102.5, 105102.5, 106102.5, 107102.5, 108102.5, 109102.5, 110102.5, 111102.5, 112102.5, 113102.5, 114102.5, 115102.5, 116102.5, 117102.5, 118102.5, 119102.5, 120102.5, 121102.5, 122102.5, 123102.5, 124102.5, 125102.5, 126102.5, 127102.5, 128102.5, 129102.5, 130102.5, 131102.5, 132102.5, 133102.5, 134102.5, 135102.5, 136102.5, 137102.5, 138102.5, 139102.5, 140102.5, 141102.5, 142102.5, 143102.5, 144102.5, 145102.5, 146102.5, 147102.5, 148102.5, 149102.5, 150102.5, 151102.5, 152102.5, 153102.5, 154102.5, 155102.5, 156102.5, 157102.5, 158102.5, 159102.5, 160102.5, 161102.5, 162102.5, 163102.5, 164102.5, 165102.5, 166102.5, 167102.5, 168102.5, 169102.5, 170102.5, 171102.5, 172102.5, 173102.5, 174102.5, 175102.5, 176102.5, 177102.5, 178102.5, 179102.5, 180102.5, 181102.5, 182102.5, 183102.5, 184102.5, 185102.5, 186102.5, 187102.5, 188102.5, 189102.5, 190102.5, 191102.5, 192102.5, 193102.5, 194102.5, 195102.5, 196102.5, 197102.5, 198102.5, 199102.5, 200102.5, 201102.5, 202102.5, 203102.5, 204102.5, 205102.5, 206102.5, 207102.5, 208102.5, 209102.5, 210102.5, 211102.5, 212102.5, 213102.5, 214102.5, 215102.5, 216102.5, 217102.5, 218102.5, 219102.5, 220102.5, 221102.5, 222102.5, 223102.5, 224102.5, 225102.5, 226102.5, 227102.5, 228102.5, 229102.5, 230102.5, 231102.5, 232102.5, 233102.5, 234102.5, 235102.5, 236102.5, 237102.5, 238102.5, 239102.5, 240102.5, 241102.5, 242102.5, 243102.5, 244102.5, 245102.5, 246102.5, 247102.5, 248102.5, 249102.5, 250102.5, 251102.5, 252102.5, 253102.5, 254102.5, 255102.5, 256102.5, 257102.5, 258102.5, 259102.5, 260102.5, 261102.5, 262102.5, 263102.5, 264102.5, 265102.5, 266102.5, 267102.5, 268102.5, 269102.5, 270102.5, 271102.5],
      "WindowCenter": [4986.0, 4957.0, 4955.0, 4966.0, 4956.0, 4956.0, 4956.0, 4946.0, 4952.0, 4940.0, 4940.0, 4940.0, 4941.0, 4930.0, 4930.0, 4930.0, 4942.0, 4943.0, 4944.0, 4944.0, 4944.0, 4944.0, 4954.0, 4944.0, 4944.0, 4953.0, 4944.0, 4944.0, 4954.0, 4944.0, 4954.0, 4944.0, 4955.0, 4956.0, 4957.0, 4957.0, 4968.0, 4959.0, 4958.0, 4957.0, 4945.0, 4955.0, 4956.0, 4957.0, 4957.0, 4956.0, 4956.0, 4956.0, 4957.0, 4956.0, 4946.0, 4955.0, 4954.0, 4955.0, 4955.0, 4956.0, 4957.0, 4969.0, 4969.0, 4958.0, 4958.0, 4957.0, 4958.0, 4958.0, 4969.0, 4971.0, 4982.0, 4972.0, 4973.0, 4971.0, 4960.0, 4969.0, 4959.0, 4958.0, 4969.0, 4971.0, 4971.0, 4971.0, 4970.0, 4969.0, 4957.0, 4957.0, 4956.0, 4956.0, 4956.0, 4957.0, 4958.0, 4970.0, 4970.0, 4969.0, 4968.0, 4970.0, 4967.0, 4971.0, 4985.0, 4959.0, 4957.0, 4956.0, 4956.0, 4956.0, 4955.0, 4956.0, 4957.0, 4958.0, 4947.0, 4945.0, 4944.0, 4933.0, 4942.0, 4943.0, 4944.0, 4945.0, 4956.0, 4956.0, 4956.0, 4967.0, 4956.0, 4945.0, 4956.0, 4956.0, 4957.0, 4968.0, 4969.0, 4959.0, 4969.0, 4970.0, 4970.0, 4969.0, 4959.0, 4959.0, 4959.0, 4958.0, 4960.0, 4970.0, 4970.0, 4970.0, 4960.0, 4959.0, 4961.0, 4960.0, 4960.0, 4958.0, 4958.0, 4958.0, 4947.0, 4967.0, 4944.0, 4943.0, 4943.0, 4943.0, 4943.0, 4955.0, 4957.0, 4957.0, 4962.0, 4975.0, 4973.0, 4969.0, 4966.0, 4955.0, 4954.0, 4954.0, 4955.0, 4956.0, 4957.0, 4957.0, 4955.0, 4943.0, 4951.0, 4940.0, 4940.0, 4951.0, 4953.0, 4965.0, 4966.0, 4958.0, 4967.0, 4969.0, 4960.0, 4970.0, 4971.0, 4958.0, 4971.0, 4971.0, 4959.0, 4968.0, 4958.0, 4958.0, 4969.0, 4970.0, 4959.0, 4970.0, 4960.0, 4969.0, 4968.0, 4957.0, 4957.0, 4957.0, 4958.0, 4959.0, 4969.0, 4969.0, 4960.0, 4959.0, 4958.0, 4957.0, 4969.0, 4969.0, 4968.0, 4960.0, 4969.0, 4970.0, 4960.0, 4970.0, 4968.0, 4969.0, 4970.0, 4969.0, 4969.0, 4970.0, 4971.0, 4985.0, 4974.0, 4987.0, 4976.0, 4962.0, 4949.0, 4945.0, 4933.0, 4943.0, 4945.0, 4952.0, 4929.0, 4939.0, 4942.0, 4942.0, 4954.0, 4956.0, 4959.0, 4970.0, 4970.0, 4971.0, 4971.0, 4959.0, 4960.0, 4961.0, 4948.0, 4961.0, 4962.0, 4950.0, 4956.0, 4944.0, 4944.0, 4954.0, 4955.0, 4956.0, 4958.0, 4958.0, 4956.0, 4945.0, 4943.0, 4942.0, 4941.0, 4943.0],
