{
  "AcquisitionMatrixPE": 106,
  "AcquisitionNumber": 1,
  "AcquisitionTime": "13:27:14.080000",
  "BandwidthPerPixelPhaseEncode": 13.477,
  "BaseResolution": 106,
  "BodyPartExamined": "BRAIN",
  "CoilCombinationMethod": "Sum of Squares",
  "ConsistencyInfo": "N4_VE11C_LATEST_20160120",
  "ConversionSoftware": "dcm2niix",
  "ConversionSoftwareVersion": "v1.0.20220720",
  "DerivedVendorReportedEchoSpacing": 0.000700005,
  "DeviceSerialNumber": "166108",
  "DwellTime": 2.6e-06,
  "EchoTime": 0.03,
  "EchoTrainLength": 80,
  "EffectiveEchoSpacing": 0.000700005,
  "FlipAngle": 62,
  "HeudiconvVersion": "1.3.0",
  "ImageComments": "Unaliased MB4/PE3/LB",
  "ImageOrientationPatientDICOM": [1, 0, 0, 0, 0.993768, -0.111469],
  "ImageOrientationText": "Tra>Cor(-6.4)",
  "ImageType": [
    "ORIGINAL",
    "PRIMARY",
    "M",
    "MB",
    "ND",
    "MOSAIC"
],
  "ImagingFrequency": 123.244,
  "InPlanePhaseEncodingDirectionDICOM": "COL",
  "InstitutionAddress": "Bedford Way 26,London,London,GB,WC1H 0AP",
  "InstitutionName": "University College",
  "InstitutionalDepartmentName": "Department",
  "MRAcquisitionType": "2D",
  "MagneticFieldStrength": 3,
  "Manufacturer": "Siemens",
  "ManufacturersModelName": "Prisma",
  "MatrixCoilMode": "SENSE",
  "Modality": "MR",
  "MultibandAccelerationFactor": 4,
  "NonlinearGradientCorrection": false,
  "PartialFourier": 0.75,
  "PatientPosition": "HFS",
  "PercentPhaseFOV": 100,
  "PercentSampling": 100,
  "PhaseEncodingDirection": "j-",
  "PhaseEncodingSteps": 80,
  "PhaseResolution": 1,
  "PixelBandwidth": 1815,
  "ProcedureStepDescription": "Egor^MovieProject2",
  "ProtocolName": "func-bold_task-motor_run-01",
  "PulseSequenceDetails": "%CustomerSeq%\\cmrr_mbep2d_bold",
  "ReceiveCoilActiveElements": "HEA;HEP",
  "ReceiveCoilName": "Head_32",
  "ReconMatrixPE": 106,
  "RepetitionTime": 1,
  "SAR": 0.0474521,
  "ScanOptions": "PFP\\FS\\EXT",
  "ScanningSequence": "EP",
  "SequenceName": "epfid2d1_106",
  "SequenceVariant": "SK\\SS",
  "SeriesDescription": "func-bold_task-motor_run-01",
  "SeriesNumber": 4,
  "ShimSetting": [-1513, 642, 7350, 64, -42, 158, 191, -38],
  "SliceThickness": 2,
  "SliceTiming": [0, 0.535, 0.09, 0.625, 0.18, 0.715, 0.2675, 0.8025, 0.3575, 0.8925, 0.4475, 0, 0.535, 0.09, 0.625, 0.18, 0.715, 0.2675, 0.8025, 0.3575, 0.8925, 0.4475, 0, 0.535, 0.09, 0.625, 0.18, 0.715, 0.2675, 0.8025, 0.3575, 0.8925, 0.4475, 0, 0.535, 0.09, 0.625, 0.18, 0.715, 0.2675, 0.8025, 0.3575, 0.8925, 0.4475],
  "SoftwareVersions": "syngo MR E11",
  "SpacingBetweenSlices": 2,
  "StationName": "AWP166108",
  "TaskName": "somatotopy",
  "TotalReadoutTime": 0.0735005,
  "TxRefAmp": 258.165,
  "WipMemBlock": "6c35073b-861c-4038-8512-56035c2c6da4||Sequence: R016 ve11c/master r/e634e98; Dec 19 2017 11:00:25 by eja",
  "dcmmeta_affine": [
    [-2.0, 0.0, 0.0, 106.0],
    [0.0, 1.987535834312439, -0.22293783724308014, -93.67677307128906],
    [0.0, 0.22293785214424133, 1.9875357151031494, -12.089849472045898],
    [0.0, 0.0, 0.0, 1.0]
],
  "dcmmeta_reorient_transform": [
    [0.0, -1.0, 0.0, 105.0],
    [1.0, 0.0, 0.0, 0.0],
    [0.0, 0.0, 1.0, 0.0],
    [0.0, 0.0, 0.0, 1.0]
],
  "dcmmeta_shape": [106, 106, 44, 467],
  "dcmmeta_slice_dim": 2,
  "dcmmeta_version": 0.6,
  "global": {
    "const": {
      "AcquisitionMatrix": [106, 0, 0, 106],
      "AngioFlag": "N",
      "BitsAllocated": 16,
      "BitsStored": 16,
      "BodyPartExamined": "BRAIN",
      "CardiacNumberOfImages": 1,
      "Columns": 742,
      "EchoNumbers": 1,
      "EchoTime": 30.0,
      "EchoTrainLength": 80,
      "FlipAngle": 62.0,
      "HighBit": 15,
      "ImageOrientationPatient": [1.0, 0.0, 0.0, 0.0, 0.99376791982449, -0.1114689262876],
      "ImagePositionPatient": [-742.0, -747.05088825324, 82.212862532269],
      "ImageType": [
        "ORIGINAL",
        "PRIMARY",
        "M",
        "MB",
        "ND",
        "MOSAIC"
],
      "ImagedNucleus": "1H",
      "ImagingFrequency": 123.24365,
      "InPlanePhaseEncodingDirection": "COL",
      "MRAcquisitionType": "2D",
      "MagneticFieldStrength": 3.0,
      "Manufacturer": "SIEMENS",
      "ManufacturerModelName": "Prisma",
      "Modality": "MR",
      "NominalInterval": 0,
      "NumberOfAverages": 1.0,
      "NumberOfPhaseEncodingSteps": 80,
      "PercentPhaseFieldOfView": 100.0,
      "PercentSampling": 100.0,
      "PerformedProcedureStepStartTime": "125809.001000",
      "PhotometricInterpretation": "MONOCHROME2",
      "PixelBandwidth": 1815.0,
      "PixelRepresentation": 0,
      "PixelSpacing": [2.0, 2.0],
      "ProtocolName": "func-bold_task-motor_run-01",
      "RepetitionTime": 1000.0,
      "Rows": 742,
      "SAR": 0.04745212930182,
      "SamplesPerPixel": 1,
      "ScanOptions": [
        "PFP",
        "FS",
        "EXT"
],
      "ScanningSequence": "EP",
      "SequenceName": "epfid2d1_106",
      "SequenceVariant": [
        "SK",
        "SS"
],
      "SeriesDescription": "func-bold_task-motor_run-01",
      "SeriesNumber": 4,
      "SeriesTime": "132740.878000",
      "SliceLocation": -1.5724550142618,
      "SliceThickness": 2.0,
      "SmallestImagePixelValue": 0,
      "SoftwareVersions": "syngo MR E11",
      "SpacingBetweenSlices": 1.9999999263202,
      "SpecificCharacterSet": "ISO_IR 100",
      "StudyID": "1",
      "StudyTime": "125808.946000",
      "TransmitCoilName": "Body",
      "VariableFlipAngleFlag": "N",
      "WindowCenterWidthExplanation": "Algo1",
      "dBdt": 0.0},
    "slices": {}
  },
  "time": {
    "samples": {
      "AcquisitionNumber": [1, 2, 3, 4, 5, 6, 7, 8, 9, 10, 11, 12, 13, 14, 15, 16, 17, 18, 19, 20, 21, 22, 23, 24, 25, 26, 27, 28, 29, 30, 31, 32, 33, 34, 35, 36, 37, 38, 39, 40, 41, 42, 43, 44, 45, 46, 47, 48, 49, 50, 51, 52, 53, 54, 55, 56, 57, 58, 59, 60, 61, 62, 63, 64, 65, 66, 67, 68, 69, 70, 71, 72, 73, 74, 75, 76, 77, 78, 79, 80, 81, 82, 83, 84, 85, 86, 87, 88, 89, 90, 91, 92, 93, 94, 95, 96, 97, 98, 99, 100, 101, 102, 103, 104, 105, 106, 107, 108, 109, 110, 111, 112, 113, 114, 115, 116, 117, 118, 119, 120, 121, 122, 123, 124, 125, 126, 127, 128, 129, 130, 131, 132, 133, 134, 135, 136, 137, 138, 139, 140, 141, 142, 143, 144, 145, 146, 147, 148, 149, 150, 151, 152, 153, 154, 155, 156, 157, 158, 159, 160, 161, 162, 163, 164, 165, 166, 167, 168, 169, 170, 171, 172, 173, 174, 175, 176, 177, 178, 179, 180, 181, 182, 183, 184, 185, 186, 187, 188, 189, 190, 191, 192, 193, 194, 195, 196, 197, 198, 199, 200, 201, 202, 203, 204, 205, 206, 207, 208, 209, 210, 211, 212, 213, 214, 215, 216, 217, 218, 219, 220, 221, 222, 223, 224, 225, 226, 227, 228, 229, 230, 231, 232, 233, 234, 235, 236, 237, 238, 239, 240, 241, 242, 243, 244, 245, 246, 247, 248, 249, 250, 251, 252, 253, 254, 255, 256, 257, 258, 259, 260, 261, 262, 263, 264, 265, 266, 267, 268, 269, 270, 271, 272, 273, 274, 275, 276, 277, 278, 279, 280, 281, 282, 283, 284, 285, 286, 287, 288, 289, 290, 291, 292, 293, 294, 295, 296, 297, 298, 299, 300, 301, 302, 303, 304, 305, 306, 307, 308, 309, 310, 311, 312, 313, 314, 315, 316, 317, 318, 319, 320, 321, 322, 323, 324, 325, 326, 327, 328, 329, 330, 331, 332, 333, 334, 335, 336, 337, 338, 339, 340, 341, 342, 343, 344, 345, 346, 347, 348, 349, 350, 351, 352, 353, 354, 355, 356, 357, 358, 359, 360, 361, 362, 363, 364, 365, 366, 367, 368, 369, 370, 371, 372, 373, 374, 375, 376, 377, 378, 379, 380, 381, 382, 383, 384, 385, 386, 387, 388, 389, 390, 391, 392, 393, 394, 395, 396, 397, 398, 399, 400, 401, 402, 403, 404, 405, 406, 407, 408, 409, 410, 411, 412, 413, 414, 415, 416, 417, 418, 419, 420, 421, 422, 423, 424, 425, 426, 427, 428, 429, 430, 431, 432, 433, 434, 435, 436, 437, 438, 439, 440, 441, 442, 443, 444, 445, 446, 447, 448, 449, 450, 451, 452, 453, 454, 455, 456, 457, 458, 459, 460, 461, 462, 463, 464, 465, 466, 467],
      "AcquisitionTime": ["132714.080000", "132715.080000", "132716.080000", "132717.080000", "132718.080000", "132719.080000", "132720.080000", "132721.080000", "132722.080000", "132723.080000", "132724.080000", "132725.080000", "132726.080000", "132727.080000", "132728.080000", "132729.080000", "132730.080000", "132731.080000", "132732.080000", "132733.080000", "132734.080000", "132735.080000", "132736.080000", "132737.080000", "132738.080000", "132739.080000", "132740.080000", "132741.080000", "132742.080000", "132743.080000", "132744.080000", "132745.080000", "132746.080000", "132747.080000", "132748.080000", "132749.080000", "132750.080000", "132751.080000", "132752.080000", "132753.080000", "132754.080000", "132755.080000", "132756.080000", "132757.080000", "132758.080000", "132759.080000", "132800.080000", "132801.080000", "132802.080000", "132803.080000", "132804.080000", "132805.080000", "132806.080000", "132807.080000", "132808.080000", "132809.080000", "132810.080000", "132811.080000", "132812.080000", "132813.080000", "132814.080000", "132815.080000", "132816.080000", "132817.080000", "132818.080000", "132819.080000", "132820.080000", "132821.080000", "132822.080000", "132823.080000", "132824.080000", "132825.080000", "132826.080000", "132827.080000", "132828.080000", "132829.080000", "132830.080000", "132831.080000", "132832.080000", "132833.080000", "132834.080000", "132835.080000", "132836.080000", "132837.080000", "132838.080000", "132839.080000", "132840.080000", "132841.080000", "132842.080000", "132843.080000", "132844.080000", "132845.080000", "132846.080000", "132847.080000", "132848.080000", "132849.080000", "132850.080000", "132851.080000", "132852.080000", "132853.080000", "132854.080000", "132855.080000", "132856.080000", "132857.080000", "132858.080000", "132859.080000", "132900.080000", "132901.080000", "132902.080000", "132903.080000", "132904.080000", "132905.080000", "132906.080000", "132907.080000", "132908.080000", "132909.080000", "132910.080000", "132911.080000", "132912.080000", "132913.080000", "132914.080000", "132915.080000", "132916.080000", "132917.080000", "132918.080000", "132919.080000", "132920.080000", "132921.080000", "132922.080000", "132923.080000", "132924.080000", "132925.080000", "132926.080000", "132927.080000", "132928.080000", "132929.080000", "132930.080000", "132931.080000", "132932.080000", "132933.080000", "132934.080000", "132935.080000", "132936.080000", "132937.080000", "132938.080000", "132939.080000", "132940.080000", "132941.080000", "132942.080000", "132943.080000", "132944.080000", "132945.080000", "132946.080000", "132947.080000", "132948.080000", "132949.080000", "132950.080000", "132951.080000", "132952.080000", "132953.080000", "132954.080000", "132955.080000", "132956.080000", "132957.080000", "132958.080000", "132959.080000", "133000.080000", "133001.080000", "133002.080000", "133003.080000", "133004.080000", "133005.080000", "133006.080000", "133007.080000", "133008.080000", "133009.080000", "133010.080000", "133011.080000", "133012.080000", "133013.080000", "133014.080000", "133015.080000", "133016.080000", "133017.080000", "133018.080000", "133019.080000", "133020.080000", "133021.080000", "133022.080000", "133023.080000", "133024.080000", "133025.080000", "133026.080000", "133027.080000", "133028.080000", "133029.080000", "133030.080000", "133031.080000", "133032.080000", "133033.080000", "133034.080000", "133035.080000", "133036.080000", "133037.080000", "133038.080000", "133039.080000", "133040.080000", "133041.080000", "133042.080000", "133043.080000", "133044.080000", "133045.080000", "133046.080000", "133047.080000", "133048.080000", "133049.080000", "133050.080000", "133051.080000", "133052.080000", "133053.080000", "133054.080000", "133055.080000", "133056.080000", "133057.080000", "133058.080000", "133059.080000", "133100.080000", "133101.080000", "133102.080000", "133103.080000", "133104.080000", "133105.080000", "133106.080000", "133107.080000", "133108.080000", "133109.080000", "133110.080000", "133111.080000", "133112.080000", "133113.080000", "133114.080000", "133115.080000", "133116.080000", "133117.080000", "133118.080000", "133119.080000", "133120.080000", "133121.080000", "133122.080000", "133123.080000", "133124.080000", "133125.080000", "133126.080000", "133127.080000", "133128.080000", "133129.080000", "133130.080000", "133131.080000", "133132.080000", "133133.080000", "133134.080000", "133135.080000", "133136.080000", "133137.080000", "133138.080000", "133139.080000", "133140.080000", "133141.080000", "133142.080000", "133143.080000", "133144.080000", "133145.080000", "133146.080000", "133147.080000", "133148.080000", "133149.080000", "133150.080000", "133151.080000", "133152.080000", "133153.080000", "133154.080000", "133155.080000", "133156.080000", "133157.080000", "133158.080000", "133159.080000", "133200.080000", "133201.080000", "133202.080000", "133203.080000", "133204.080000", "133205.080000", "133206.080000", "133207.080000", "133208.080000", "133209.080000", "133210.080000", "133211.080000", "133212.080000", "133213.080000", "133214.080000", "133215.080000", "133216.080000", "133217.080000", "133218.080000", "133219.080000", "133220.080000", "133221.080000", "133222.080000", "133223.080000", "133224.080000", "133225.080000", "133226.080000", "133227.080000", "133228.080000", "133229.080000", "133230.080000", "133231.080000", "133232.080000", "133233.080000", "133234.080000", "133235.080000", "133236.080000", "133237.080000", "133238.080000", "133239.080000", "133240.080000", "133241.080000", "133242.080000", "133243.080000", "133244.080000", "133245.080000", "133246.080000", "133247.080000", "133248.080000", "133249.080000", "133250.080000", "133251.080000", "133252.080000", "133253.080000", "133254.080000", "133255.080000", "133256.080000", "133257.080000", "133258.080000", "133259.080000", "133300.080000", "133301.080000", "133302.080000", "133303.080000", "133304.080000", "133305.080000", "133306.080000", "133307.080000", "133308.080000", "133309.080000", "133310.080000", "133311.080000", "133312.080000", "133313.080000", "133314.080000", "133315.080000", "133316.080000", "133317.080000", "133318.080000", "133319.080000", "133320.080000", "133321.080000", "133322.080000", "133323.080000", "133324.080000", "133325.080000", "133326.080000", "133327.080000", "133328.080000", "133329.080000", "133330.080000", "133331.080000", "133332.080000", "133333.080000", "133334.080000", "133335.080000", "133336.080000", "133337.080000", "133338.080000", "133339.080000", "133340.080000", "133341.080000", "133342.080000", "133343.080000", "133344.080000", "133345.080000", "133346.080000", "133347.080000", "133348.080000", "133349.080000", "133350.080000", "133351.080000", "133352.080000", "133353.080000", "133354.080000", "133355.080000", "133356.080000", "133357.080000", "133358.080000", "133359.080000", "133400.080000", "133401.080000", "133402.080000", "133403.080000", "133404.080000", "133405.080000", "133406.080000", "133407.080000", "133408.080000", "133409.080000", "133410.080000", "133411.080000", "133412.080000", "133413.080000", "133414.080000", "133415.080000", "133416.080000", "133417.080000", "133418.080000", "133419.080000", "133420.080000", "133421.080000", "133422.080000", "133423.080000", "133424.080000", "133425.080000", "133426.080000", "133427.080000", "133428.080000", "133429.080000", "133430.080000", "133431.080000", "133432.080000", "133433.080000", "133434.080000", "133435.080000", "133436.080000", "133437.080000", "133438.080000", "133439.080000", "133440.080000", "133441.080000", "133442.080000", "133443.080000", "133444.080000", "133445.080000", "133446.080000", "133447.080000", "133448.080000", "133449.080000", "133450.080000", "133451.080000", "133452.080000", "133453.080000", "133454.080000", "133455.080000", "133456.080000", "133457.080000", "133458.080000", "133459.080000", "133500.080000"],
      "ContentTime": ["132740.881000", "132740.883000", "132740.886000", "132740.889000", "132740.891000", "132740.894000", "132740.896000", "132740.909000", "132740.911000", "132740.919000", "132740.922000", "132740.924000", "132740.927000", "132740.929000", "132740.931000", "132740.934000", "132740.936000", "132740.939000", "132740.941000", "132740.944000", "132740.946000", "132740.949000", "132740.951000", "132740.954000", "132740.956000", "132740.958000", "132800.848000", "132800.851000", "132800.854000", "132800.856000", "132800.859000", "132800.861000", "132800.864000", "132800.866000", "132800.868000", "132800.871000", "132800.873000", "132800.876000", "132800.878000", "132800.881000", "132800.883000", "132800.886000", "132800.888000", "132800.890000", "132800.900000", "132800.902000", "132820.849000", "132820.852000", "132820.855000", "132820.858000", "132820.860000", "132820.863000", "132820.865000", "132820.871000", "132820.873000", "132820.876000", "132820.879000", "132820.881000", "132820.884000", "132820.887000", "132820.889000", "132820.892000", "132820.894000", "132820.897000", "132820.899000", "132820.902000", "132840.849000", "132840.852000", "132840.854000", "132840.857000", "132840.859000", "132840.862000", "132840.874000", "132840.876000", "132840.879000", "132840.881000", "132840.884000", "132840.886000", "132840.889000", "132840.891000", "132840.894000", "132840.896000", "132840.899000", "132840.901000", "132840.903000", "132840.906000", "132900.848000", "132900.851000", "132900.854000", "132900.856000", "132900.859000", "132900.862000", "132900.864000", "132900.867000", "132900.869000", "132900.872000", "132900.875000", "132900.877000", "132900.880000", "132900.883000", "132900.885000", "132900.888000", "132900.891000", "132900.893000", "132900.896000", "132900.899000", "132920.848000", "132920.851000", "132920.854000", "132920.856000", "132920.859000", "132920.861000", "132920.864000", "132920.866000", "132920.880000", "132920.882000", "132920.885000", "132920.887000", "132920.889000", "132920.892000", "132920.894000", "132920.897000", "132920.899000", "132920.902000", "132920.904000", "132920.907000", "132940.849000", "132940.852000", "132940.854000", "132940.857000", "132940.860000", "132940.862000", "132940.865000", "132940.868000", "132940.870000", "132940.873000", "132940.876000", "132940.878000", "132940.881000", "132940.884000", "132940.886000", "132940.889000", "132940.892000", "132940.895000", "132940.898000", "132940.900000", "133000.848000", "133000.857000", "133000.860000", "133000.862000", "133000.865000", "133000.867000", "133000.878000", "133000.881000", "133000.883000", "133000.886000", "133000.888000", "133000.891000", "133000.893000", "133000.895000", "133000.898000", "133000.900000", "133000.903000", "133000.906000", "133000.908000", "133000.911000", "133020.848000", "133020.851000", "133020.854000", "133020.856000", "133020.859000", "133020.862000", "133020.865000", "133020.867000", "133020.870000", "133020.872000", "133020.875000", "133020.878000", "133020.880000", "133020.883000", "133020.886000", "133020.888000", "133020.891000", "133020.894000", "133020.896000", "133020.899000", "133040.849000", "133040.852000", "133040.855000", "133040.867000", "133040.869000", "133040.872000", "133040.874000", "133040.877000", "133040.879000", "133040.882000", "133040.884000", "133040.887000", "133040.889000", "133040.892000", "133040.894000", "133040.897000", "133040.899000", "133040.902000", "133040.904000", "133040.906000", "133100.849000", "133100.852000", "133100.855000", "133100.857000", "133100.859000", "133100.862000", "133100.864000", "133100.867000", "133100.869000", "133100.872000", "133100.874000", "133100.876000", "133100.879000", "133100.881000", "133100.884000", "133100.886000", "133100.889000", "133100.891000", "133100.894000", "133100.896000", "133120.848000", "133120.851000", "133120.854000", "133120.856000", "133120.859000", "133120.862000", "133120.864000", "133120.867000", "133120.869000", "133120.872000", "133120.875000", "133120.877000", "133120.880000", "133120.882000", "133120.885000", "133120.887000", "133120.889000", "133120.892000", "133120.895000", "133120.897000", "133140.849000", "133140.851000", "133140.854000", "133140.856000", "133140.859000", "133140.861000", "133140.864000", "133140.866000", "133140.869000", "133140.880000", "133140.883000", "133140.885000", "133140.888000", "133140.890000", "133140.893000", "133140.895000", "133140.898000", "133140.900000", "133140.903000", "133140.905000", "133200.849000", "133200.851000", "133200.854000", "133200.856000", "133200.859000", "133200.862000", "133200.864000", "133200.867000", "133200.869000", "133200.872000", "133200.875000", "133200.877000", "133200.880000", "133200.882000", "133200.885000", "133200.888000", "133200.890000", "133200.893000", "133200.895000", "133200.898000", "133220.849000", "133220.851000", "133220.854000", "133220.856000", "133220.859000", "133220.861000", "133220.864000", "133220.866000", "133220.868000", "133220.871000", "133220.873000", "133220.876000", "133220.878000", "133220.881000", "133220.883000", "133220.886000", "133220.888000", "133220.891000", "133220.893000", "133220.896000", "133240.848000", "133240.851000", "133240.854000", "133240.866000", "133240.869000", "133240.871000", "133240.874000", "133240.876000", "133240.879000", "133240.882000", "133240.884000", "133240.887000", "133240.890000", "133240.892000", "133240.895000", "133240.897000", "133240.900000", "133240.902000", "133240.904000", "133240.907000", "133300.849000", "133300.852000", "133300.871000", "133300.874000", "133300.876000", "133300.879000", "133300.882000", "133300.884000", "133300.886000", "133300.889000", "133300.891000", "133300.894000", "133300.896000", "133300.899000", "133300.901000", "133300.904000", "133300.906000", "133300.909000", "133300.911000", "133300.914000", "133320.849000", "133320.852000", "133320.855000", "133320.857000", "133320.860000", "133320.863000", "133320.866000", "133320.868000", "133320.870000", "133320.873000", "133320.875000", "133320.878000", "133320.880000", "133320.883000", "133320.886000", "133320.888000", "133320.891000", "133320.894000", "133320.896000", "133320.899000", "133340.848000", "133340.851000", "133340.853000", "133340.856000", "133340.859000", "133340.861000", "133340.863000", "133340.866000", "133340.868000", "133340.871000", "133340.873000", "133340.876000", "133340.878000", "133340.881000", "133340.883000", "133340.886000", "133340.888000", "133340.891000", "133340.893000", "133340.896000", "133400.848000", "133400.851000", "133400.854000", "133400.865000", "133400.867000", "133400.870000", "133400.873000", "133400.875000", "133400.878000", "133400.881000", "133400.883000", "133400.886000", "133400.888000", "133400.891000", "133400.894000", "133400.896000", "133400.899000", "133400.902000", "133400.904000", "133400.907000", "133420.849000", "133420.852000", "133420.854000", "133420.857000", "133420.860000", "133420.862000", "133420.865000", "133420.867000", "133420.870000", "133420.873000", "133420.875000", "133420.878000", "133420.881000", "133420.883000", "133420.886000", "133420.888000", "133420.891000", "133420.894000", "133420.896000", "133420.899000", "133440.848000", "133440.851000", "133440.854000", "133440.856000", "133440.859000", "133440.861000", "133440.864000", "133440.866000", "133440.869000", "133440.871000", "133440.873000", "133440.876000", "133440.878000", "133440.881000", "133440.883000", "133440.886000", "133440.888000", "133440.891000", "133440.893000", "133440.896000", "133500.850000", "133500.852000", "133500.855000", "133500.858000", "133500.861000", "133500.863000", "133500.866000", "133500.868000", "133500.871000", "133500.873000", "133500.876000", "133500.879000", "133500.882000", "133500.884000", "133500.887000", "133500.897000", "133500.900000", "133500.902000", "133500.905000", "133500.908000", "133502.047000"],
