{
  "AcquisitionMatrixPE": 106,
  "AcquisitionNumber": 1,
  "AcquisitionTime": "14:04:20.640000",
  "BandwidthPerPixelPhaseEncode": 16.846,
  "BaseResolution": 106,
  "BodyPartExamined": "BRAIN",
  "CoilCombinationMethod": "Sum of Squares",
  "ConsistencyInfo": "N4_VE11C_LATEST_20160120",
  "ConversionSoftware": "dcm2niix",
  "ConversionSoftwareVersion": "v1.0.20220720",
  "DerivedVendorReportedEchoSpacing": 0.000560012,
  "DeviceSerialNumber": "166108",
  "DwellTime": 1.8e-06,
  "EchoTime": 0.0352,
  "EchoTrainLength": 106,
  "EffectiveEchoSpacing": 0.000560012,
  "FlipAngle": 60,
  "HeudiconvVersion": "1.3.0",
  "ImageComments": "Unaliased MB4/PE3/LB",
  "ImageOrientationPatientDICOM": [1, 0, 0, 0, 0.91706, -0.398749],
  "ImageOrientationText": "Tra>Cor(-23.5)",
  "ImageType": [
    "ORIGINAL",
    "PRIMARY",
    "M",
    "MB",
    "ND",
    "MOSAIC"
],
  "ImagingFrequency": 123.244,
  "InPlanePhaseEncodingDirectionDICOM": "COL",
  "InstitutionAddress": "Bedford Way 26,London,London,GB,WC1H 0AP",
  "InstitutionName": "University College",
  "InstitutionalDepartmentName": "Department",
  "MRAcquisitionType": "2D",
  "MagneticFieldStrength": 3,
  "Manufacturer": "Siemens",
  "ManufacturersModelName": "Prisma",
  "MatrixCoilMode": "SENSE",
  "Modality": "MR",
  "MultibandAccelerationFactor": 4,
  "NonlinearGradientCorrection": false,
  "PartialFourier": 1,
  "PatientPosition": "HFS",
  "PercentPhaseFOV": 100,
  "PercentSampling": 100,
  "PhaseEncodingDirection": "j-",
  "PhaseEncodingSteps": 106,
  "PhaseResolution": 1,
  "PixelBandwidth": 2620,
  "ProcedureStepDescription": "Egor^MovieProject2",
  "ProtocolName": "func-bold_task-pRF_run-03",
  "PulseSequenceDetails": "%CustomerSeq%\\cmrr_mbep2d_bold",
  "ReceiveCoilActiveElements": "HEA;HEP",
  "ReceiveCoilName": "Head_32",
  "ReconMatrixPE": 106,
  "RepetitionTime": 1,
  "SAR": 0.0850007,
  "ScanOptions": "FS\\EXT",
  "ScanningSequence": "EP",
  "SequenceName": "epfid2d1_106",
  "SequenceVariant": "SK\\SS",
  "SeriesDescription": "func-bold_task-pRF_run-03",
  "SeriesNumber": 14,
  "ShimSetting": [-1526, 664, 7412, 282, -77, 189, 248, -41],
  "SliceThickness": 2,
  "SliceTiming": [0, 0.4075, 0.815, 0.245, 0.6525, 0.08, 0.49, 0.8975, 0.325, 0.735, 0.1625, 0.57, 0, 0.4075, 0.815, 0.245, 0.6525, 0.08, 0.49, 0.8975, 0.325, 0.735, 0.1625, 0.57, 0, 0.4075, 0.815, 0.245, 0.6525, 0.08, 0.49, 0.8975, 0.325, 0.735, 0.1625, 0.57, 0, 0.4075, 0.815, 0.245, 0.6525, 0.08, 0.49, 0.8975, 0.325, 0.735, 0.1625, 0.57],
  "SoftwareVersions": "syngo MR E11",
  "SpacingBetweenSlices": 2,
  "StationName": "AWP166108",
  "TaskName": "retinotopy",
  "TotalReadoutTime": 0.0588013,
  "TxRefAmp": 258.165,
  "WipMemBlock": "ce591bb3-66f0-41f3-ba88-19b434edc4ac||Sequence: R016 ve11c/master r/e634e98; Dec 19 2017 11:00:25 by eja",
  "dcmmeta_affine": [
    [-2.0, 0.0, 0.0, 106.0],
    [0.0, 1.8341201543807983, -0.7974981069564819, -71.69810485839844],
    [0.0, 0.7974981069564819, 1.8341201543807983, -54.345218658447266],
    [0.0, 0.0, 0.0, 1.0]
],
  "dcmmeta_reorient_transform": [
    [0.0, -1.0, 0.0, 105.0],
    [1.0, 0.0, 0.0, 0.0],
    [0.0, 0.0, 1.0, 0.0],
    [0.0, 0.0, 0.0, 1.0]
],
  "dcmmeta_shape": [106, 106, 48, 356],
  "dcmmeta_slice_dim": 2,
  "dcmmeta_version": 0.6,
  "global": {
    "const": {
      "AcquisitionMatrix": [106, 0, 0, 106],
      "AngioFlag": "N",
      "BitsAllocated": 16,
      "BitsStored": 16,
      "BodyPartExamined": "BRAIN",
      "CardiacNumberOfImages": 1,
      "Columns": 742,
      "EchoNumbers": 1,
      "EchoTime": 35.2,
      "EchoTrainLength": 106,
      "FlipAngle": 60.0,
      "HighBit": 15,
      "ImageOrientationPatient": [1.0, 0.0, 0.0, 0.0, 0.91706007940825, -0.3987490573729],
      "ImagePositionPatient": [-742.0, -704.13472447451, 282.99648299711],
      "ImageType": [
        "ORIGINAL",
        "PRIMARY",
        "M",
        "MB",
        "ND",
        "MOSAIC"
],
      "ImagedNucleus": "1H",
      "ImagingFrequency": 123.243646,
      "InPlanePhaseEncodingDirection": "COL",
      "MRAcquisitionType": "2D",
      "MagneticFieldStrength": 3.0,
      "Manufacturer": "SIEMENS",
      "ManufacturerModelName": "Prisma",
      "Modality": "MR",
      "NominalInterval": 0,
      "NumberOfAverages": 1.0,
      "NumberOfPhaseEncodingSteps": 106,
      "PercentPhaseFieldOfView": 100.0,
      "PercentSampling": 100.0,
      "PerformedProcedureStepStartTime": "125809.001000",
      "PhotometricInterpretation": "MONOCHROME2",
      "PixelBandwidth": 2620.0,
      "PixelRepresentation": 0,
      "PixelSpacing": [2.0, 2.0],
      "ProtocolName": "func-bold_task-pRF_run-03",
      "RepetitionTime": 1000.0,
      "Rows": 742,
      "SAR": 0.08500073825773,
      "SamplesPerPixel": 1,
      "ScanOptions": [
        "FS",
        "EXT"
],
      "ScanningSequence": "EP",
      "SequenceName": "epfid2d1_106",
      "SequenceVariant": [
        "SK",
        "SS"
],
      "SeriesDescription": "func-bold_task-pRF_run-03",
      "SeriesNumber": 14,
      "SeriesTime": "140459.997000",
      "SliceLocation": -21.24828047812,
      "SliceThickness": 2.0,
      "SmallestImagePixelValue": 0,
      "SoftwareVersions": "syngo MR E11",
      "SpacingBetweenSlices": 2.0000000295374,
      "SpecificCharacterSet": "ISO_IR 100",
      "StudyID": "1",
      "StudyTime": "125808.946000",
      "TransmitCoilName": "Body",
      "VariableFlipAngleFlag": "N",
      "WindowCenterWidthExplanation": "Algo1",
      "dBdt": 0.0},
    "slices": {}
  },
  "time": {
    "samples": {
      "AcquisitionNumber": [1, 2, 3, 4, 5, 6, 7, 8, 9, 10, 11, 12, 13, 14, 15, 16, 17, 18, 19, 20, 21, 22, 23, 24, 25, 26, 27, 28, 29, 30, 31, 32, 33, 34, 35, 36, 37, 38, 39, 40, 41, 42, 43, 44, 45, 46, 47, 48, 49, 50, 51, 52, 53, 54, 55, 56, 57, 58, 59, 60, 61, 62, 63, 64, 65, 66, 67, 68, 69, 70, 71, 72, 73, 74, 75, 76, 77, 78, 79, 80, 81, 82, 83, 84, 85, 86, 87, 88, 89, 90, 91, 92, 93, 94, 95, 96, 97, 98, 99, 100, 101, 102, 103, 104, 105, 106, 107, 108, 109, 110, 111, 112, 113, 114, 115, 116, 117, 118, 119, 120, 121, 122, 123, 124, 125, 126, 127, 128, 129, 130, 131, 132, 133, 134, 135, 136, 137, 138, 139, 140, 141, 142, 143, 144, 145, 146, 147, 148, 149, 150, 151, 152, 153, 154, 155, 156, 157, 158, 159, 160, 161, 162, 163, 164, 165, 166, 167, 168, 169, 170, 171, 172, 173, 174, 175, 176, 177, 178, 179, 180, 181, 182, 183, 184, 185, 186, 187, 188, 189, 190, 191, 192, 193, 194, 195, 196, 197, 198, 199, 200, 201, 202, 203, 204, 205, 206, 207, 208, 209, 210, 211, 212, 213, 214, 215, 216, 217, 218, 219, 220, 221, 222, 223, 224, 225, 226, 227, 228, 229, 230, 231, 232, 233, 234, 235, 236, 237, 238, 239, 240, 241, 242, 243, 244, 245, 246, 247, 248, 249, 250, 251, 252, 253, 254, 255, 256, 257, 258, 259, 260, 261, 262, 263, 264, 265, 266, 267, 268, 269, 270, 271, 272, 273, 274, 275, 276, 277, 278, 279, 280, 281, 282, 283, 284, 285, 286, 287, 288, 289, 290, 291, 292, 293, 294, 295, 296, 297, 298, 299, 300, 301, 302, 303, 304, 305, 306, 307, 308, 309, 310, 311, 312, 313, 314, 315, 316, 317, 318, 319, 320, 321, 322, 323, 324, 325, 326, 327, 328, 329, 330, 331, 332, 333, 334, 335, 336, 337, 338, 339, 340, 341, 342, 343, 344, 345, 346, 347, 348, 349, 350, 351, 352, 353, 354, 355, 356],
      "AcquisitionTime": ["140420.640000", "140421.640000", "140422.640000", "140423.640000", "140424.640000", "140425.640000", "140426.640000", "140427.640000", "140428.640000", "140429.640000", "140430.640000", "140431.640000", "140432.640000", "140433.640000", "140434.640000", "140435.640000", "140436.640000", "140437.640000", "140438.640000", "140439.640000", "140440.640000", "140441.640000", "140442.640000", "140443.640000", "140444.640000", "140445.640000", "140446.640000", "140447.640000", "140448.640000", "140449.640000", "140450.640000", "140451.640000", "140452.640000", "140453.640000", "140454.640000", "140455.640000", "140456.640000", "140457.640000", "140458.640000", "140459.640000", "140500.640000", "140501.640000", "140502.640000", "140503.640000", "140504.640000", "140505.640000", "140506.640000", "140507.640000", "140508.640000", "140509.640000", "140510.640000", "140511.640000", "140512.640000", "140513.640000", "140514.640000", "140515.640000", "140516.640000", "140517.640000", "140518.640000", "140519.640000", "140520.640000", "140521.640000", "140522.640000", "140523.640000", "140524.640000", "140525.640000", "140526.640000", "140527.640000", "140528.640000", "140529.640000", "140530.640000", "140531.640000", "140532.640000", "140533.640000", "140534.640000", "140535.640000", "140536.640000", "140537.640000", "140538.640000", "140539.640000", "140540.640000", "140541.640000", "140542.640000", "140543.640000", "140544.640000", "140545.640000", "140546.640000", "140547.640000", "140548.640000", "140549.640000", "140550.640000", "140551.640000", "140552.640000", "140553.640000", "140554.640000", "140555.640000", "140556.640000", "140557.640000", "140558.640000", "140559.640000", "140600.640000", "140601.640000", "140602.640000", "140603.640000", "140604.640000", "140605.640000", "140606.640000", "140607.640000", "140608.640000", "140609.640000", "140610.640000", "140611.640000", "140612.640000", "140613.640000", "140614.640000", "140615.640000", "140616.640000", "140617.640000", "140618.640000", "140619.640000", "140620.640000", "140621.640000", "140622.640000", "140623.640000", "140624.640000", "140625.640000", "140626.640000", "140627.640000", "140628.640000", "140629.640000", "140630.640000", "140631.640000", "140632.640000", "140633.640000", "140634.640000", "140635.640000", "140636.640000", "140637.640000", "140638.640000", "140639.640000", "140640.640000", "140641.640000", "140642.640000", "140643.640000", "140644.640000", "140645.640000", "140646.640000", "140647.640000", "140648.640000", "140649.640000", "140650.640000", "140651.640000", "140652.640000", "140653.640000", "140654.640000", "140655.640000", "140656.640000", "140657.640000", "140658.640000", "140659.640000", "140700.640000", "140701.640000", "140702.640000", "140703.640000", "140704.640000", "140705.640000", "140706.640000", "140707.640000", "140708.640000", "140709.640000", "140710.640000", "140711.640000", "140712.640000", "140713.640000", "140714.640000", "140715.640000", "140716.640000", "140717.640000", "140718.640000", "140719.640000", "140720.640000", "140721.640000", "140722.640000", "140723.640000", "140724.640000", "140725.640000", "140726.640000", "140727.640000", "140728.640000", "140729.640000", "140730.640000", "140731.640000", "140732.640000", "140733.640000", "140734.640000", "140735.640000", "140736.640000", "140737.640000", "140738.640000", "140739.640000", "140740.640000", "140741.640000", "140742.640000", "140743.640000", "140744.640000", "140745.640000", "140746.640000", "140747.640000", "140748.640000", "140749.640000", "140750.640000", "140751.640000", "140752.640000", "140753.640000", "140754.640000", "140755.640000", "140756.640000", "140757.640000", "140758.640000", "140759.640000", "140800.640000", "140801.640000", "140802.640000", "140803.640000", "140804.640000", "140805.640000", "140806.640000", "140807.640000", "140808.640000", "140809.640000", "140810.640000", "140811.640000", "140812.640000", "140813.640000", "140814.640000", "140815.640000", "140816.640000", "140817.640000", "140818.640000", "140819.640000", "140820.640000", "140821.640000", "140822.640000", "140823.640000", "140824.640000", "140825.640000", "140826.640000", "140827.640000", "140828.640000", "140829.640000", "140830.640000", "140831.640000", "140832.640000", "140833.640000", "140834.640000", "140835.640000", "140836.640000", "140837.640000", "140838.640000", "140839.640000", "140840.640000", "140841.640000", "140842.640000", "140843.640000", "140844.640000", "140845.640000", "140846.640000", "140847.640000", "140848.640000", "140849.640000", "140850.640000", "140851.640000", "140852.640000", "140853.640000", "140854.640000", "140855.640000", "140856.640000", "140857.640000", "140858.640000", "140859.640000", "140900.640000", "140901.640000", "140902.640000", "140903.640000", "140904.640000", "140905.640000", "140906.640000", "140907.640000", "140908.640000", "140909.640000", "140910.640000", "140911.640000", "140912.640000", "140913.640000", "140914.640000", "140915.640000", "140916.640000", "140917.640000", "140918.640000", "140919.640000", "140920.640000", "140921.640000", "140922.640000", "140923.640000", "140924.640000", "140925.640000", "140926.640000", "140927.640000", "140928.640000", "140929.640000", "140930.640000", "140931.640000", "140932.640000", "140933.640000", "140934.640000", "140935.640000", "140936.640000", "140937.640000", "140938.640000", "140939.640000", "140940.640000", "140941.640000", "140942.640000", "140943.640000", "140944.640000", "140945.640000", "140946.640000", "140947.640000", "140948.640000", "140949.640000", "140950.640000", "140951.640000", "140952.640000", "140953.640000", "140954.640000", "140955.640000", "140956.640000", "140957.640000", "140958.640000", "140959.640000", "141000.640000", "141001.640000", "141002.640000", "141003.640000", "141004.640000", "141005.640000", "141006.640000", "141007.640000", "141008.640000", "141009.640000", "141010.640000", "141011.640000", "141012.640000", "141013.640000", "141014.640000", "141015.640000"],
      "ContentTime": ["140500.000000", "140500.003000", "140500.006000", "140500.024000", "140500.027000", "140500.030000", "140500.032000", "140500.035000", "140500.037000", "140500.040000", "140500.042000", "140500.045000", "140500.048000", "140500.050000", "140500.053000", "140500.060000", "140500.062000", "140500.065000", "140500.067000", "140500.070000", "140500.072000", "140500.075000", "140500.077000", "140500.080000", "140500.083000", "140500.085000", "140500.088000", "140500.090000", "140500.093000", "140500.095000", "140500.098000", "140500.101000", "140500.103000", "140500.106000", "140500.108000", "140500.111000", "140500.114000", "140500.116000", "140519.973000", "140519.975000", "140519.978000", "140519.980000", "140519.983000", "140519.985000", "140519.988000", "140519.990000", "140519.993000", "140519.995000", "140519.998000", "140520.000000", "140520.002000", "140520.005000", "140520.007000", "140520.010000", "140520.012000", "140520.015000", "140520.027000", "140520.030000", "140539.972000", "140539.975000", "140539.978000", "140539.980000", "140539.983000", "140539.986000", "140539.988000", "140539.990000", "140539.993000", "140539.996000", "140539.998000", "140540.001000", "140540.004000", "140540.007000", "140540.009000", "140540.012000", "140540.014000", "140540.017000", "140540.019000", "140540.022000", "140559.972000", "140559.975000", "140559.977000", "140559.980000", "140559.982000", "140559.985000", "140559.987000", "140559.990000", "140559.992000", "140559.995000", "140559.997000", "140600.000000", "140600.003000", "140600.005000", "140600.008000", "140600.010000", "140600.013000", "140600.015000", "140600.018000", "140600.020000", "140619.973000", "140619.975000", "140619.978000", "140619.980000", "140619.983000", "140619.985000", "140619.988000", "140619.990000", "140619.993000", "140619.995000", "140619.998000", "140620.001000", "140620.004000", "140620.006000", "140620.009000", "140620.011000", "140620.013000", "140620.016000", "140620.018000", "140620.021000", "140639.972000", "140639.975000", "140639.977000", "140639.980000", "140639.983000", "140639.985000", "140639.988000", "140639.990000", "140639.993000", "140639.995000", "140639.998000", "140640.001000", "140640.004000", "140640.006000", "140640.009000", "140640.011000", "140640.014000", "140640.017000", "140640.019000", "140640.022000", "140659.973000", "140659.975000", "140659.978000", "140659.980000", "140659.983000", "140659.985000", "140659.988000", "140659.990000", "140659.993000", "140659.995000", "140659.998000", "140700.001000", "140700.003000", "140700.006000", "140700.008000", "140700.011000", "140700.013000", "140700.016000", "140700.018000", "140700.021000", "140719.972000", "140719.975000", "140719.978000", "140719.980000", "140719.983000", "140719.986000", "140719.988000", "140719.991000", "140719.993000", "140719.996000", "140720.000000", "140720.002000", "140720.005000", "140720.008000", "140720.010000", "140720.013000", "140720.015000", "140720.018000", "140720.021000", "140720.023000", "140739.972000", "140739.975000", "140739.978000", "140739.980000", "140739.983000", "140739.985000", "140739.988000", "140739.990000", "140739.993000", "140739.995000", "140739.998000", "140740.000000", "140740.003000", "140740.005000", "140740.008000", "140740.010000", "140740.013000", "140740.015000", "140740.017000", "140740.026000", "140759.972000", "140759.975000", "140759.978000", "140759.980000", "140759.983000", "140759.985000", "140759.988000", "140759.990000", "140759.993000", "140759.995000", "140759.998000", "140800.002000", "140800.004000", "140800.007000", "140800.010000", "140800.013000", "140800.015000", "140800.018000", "140800.020000", "140800.023000", "140819.973000", "140819.975000", "140819.978000", "140819.980000", "140819.983000", "140819.985000", "140819.988000", "140819.990000", "140819.993000", "140819.995000", "140819.998000", "140820.001000", "140820.004000", "140820.006000", "140820.009000", "140820.011000", "140820.014000", "140820.016000", "140820.019000", "140820.021000", "140839.972000", "140839.975000", "140839.978000", "140839.980000", "140839.982000", "140839.985000", "140839.987000", "140839.990000", "140839.992000", "140839.995000", "140839.997000", "140840.001000", "140840.003000", "140840.006000", "140840.008000", "140840.011000", "140840.013000", "140840.016000", "140840.018000", "140840.021000", "140859.972000", "140859.975000", "140859.978000", "140859.980000", "140859.983000", "140859.996000", "140859.998000", "140900.002000", "140900.005000", "140900.007000", "140900.010000", "140900.012000", "140900.015000", "140900.017000", "140900.020000", "140900.022000", "140900.025000", "140900.028000", "140900.030000", "140900.033000", "140919.972000", "140919.975000", "140919.977000", "140919.980000", "140919.982000", "140919.985000", "140919.987000", "140919.990000", "140919.992000", "140919.995000", "140919.997000", "140920.001000", "140920.003000", "140920.006000", "140920.020000", "140920.023000", "140920.025000", "140920.028000", "140920.030000", "140920.033000", "140939.972000", "140939.975000", "140939.978000", "140939.981000", "140939.983000", "140939.986000", "140939.989000", "140939.991000", "140939.994000", "140939.996000", "140940.000000", "140940.002000", "140940.005000", "140940.008000", "140940.010000", "140940.013000", "140940.016000", "140940.018000", "140940.021000", "140940.023000", "140959.972000", "140959.975000", "140959.978000", "140959.980000", "140959.983000", "140959.985000", "140959.988000", "140959.990000", "140959.993000", "140959.995000", "140959.998000", "141000.001000", "141000.004000", "141000.006000", "141000.009000", "141000.011000", "141000.014000", "141000.016000", "141000.019000", "141000.021000", "141017.686000", "141017.689000", "141017.691000", "141017.694000", "141017.696000", "141017.699000", "141017.702000", "141017.705000", "141017.707000", "141017.710000", "141017.712000", "141017.715000", "141017.717000", "141017.720000", "141017.723000", "141017.725000", "141017.728000", "141017.730000"],
      "InstanceCreationTime": ["140500.000000", "140500.003000", "140500.006000", "140500.024000", "140500.027000", "140500.030000", "140500.032000", "140500.035000", "140500.037000", "140500.040000", "140500.042000", "140500.045000", "140500.048000", "140500.050000", "140500.053000", "140500.060000", "140500.062000", "140500.065000", "140500.067000", "140500.070000", "140500.072000", "140500.075000", "140500.077000", "140500.080000", "140500.083000", "140500.085000", "140500.088000", "140500.090000", "140500.093000", "140500.095000", "140500.098000", "140500.101000", "140500.103000", "140500.106000", "140500.108000", "140500.111000", "140500.114000", "140500.116000", "140519.973000", "140519.975000", "140519.978000", "140519.980000", "140519.983000", "140519.985000", "140519.988000", "140519.990000", "140519.993000", "140519.995000", "140519.998000", "140520.000000", "140520.002000", "140520.005000", "140520.007000", "140520.010000", "140520.012000", "140520.015000", "140520.027000", "140520.030000", "140539.972000", "140539.975000", "140539.978000", "140539.980000", "140539.983000", "140539.986000", "140539.988000", "140539.990000", "140539.993000", "140539.996000", "140539.998000", "140540.001000", "140540.004000", "140540.007000", "140540.009000", "140540.012000", "140540.014000", "140540.017000", "140540.019000", "140540.022000", "140559.972000", "140559.975000", "140559.977000", "140559.980000", "140559.982000", "140559.985000", "140559.987000", "140559.990000", "140559.992000", "140559.995000", "140559.997000", "140600.000000", "140600.003000", "140600.005000", "140600.008000", "140600.010000", "140600.013000", "140600.015000", "140600.018000", "140600.020000", "140619.973000", "140619.975000", "140619.978000", "140619.980000", "140619.983000", "140619.985000", "140619.988000", "140619.990000", "140619.993000", "140619.995000", "140619.998000", "140620.001000", "140620.004000", "140620.006000", "140620.009000", "140620.011000", "140620.013000", "140620.016000", "140620.018000", "140620.021000", "140639.972000", "140639.975000", "140639.977000", "140639.980000", "140639.983000", "140639.985000", "140639.988000", "140639.990000", "140639.993000", "140639.995000", "140639.998000", "140640.001000", "140640.004000", "140640.006000", "140640.009000", "140640.011000", "140640.014000", "140640.017000", "140640.019000", "140640.022000", "140659.973000", "140659.975000", "140659.978000", "140659.980000", "140659.983000", "140659.985000", "140659.988000", "140659.990000", "140659.993000", "140659.995000", "140659.998000", "140700.001000", "140700.003000", "140700.006000", "140700.008000", "140700.011000", "140700.013000", "140700.016000", "140700.018000", "140700.021000", "140719.972000", "140719.975000", "140719.978000", "140719.980000", "140719.983000", "140719.986000", "140719.988000", "140719.991000", "140719.993000", "140719.996000", "140720.000000", "140720.002000", "140720.005000", "140720.008000", "140720.010000", "140720.013000", "140720.015000", "140720.018000", "140720.021000", "140720.023000", "140739.972000", "140739.975000", "140739.978000", "140739.980000", "140739.983000", "140739.985000", "140739.988000", "140739.990000", "140739.993000", "140739.995000", "140739.998000", "140740.000000", "140740.003000", "140740.005000", "140740.008000", "140740.010000", "140740.013000", "140740.015000", "140740.017000", "140740.026000", "140759.972000", "140759.975000", "140759.978000", "140759.980000", "140759.983000", "140759.985000", "140759.988000", "140759.990000", "140759.993000", "140759.995000", "140759.998000", "140800.002000", "140800.004000", "140800.007000", "140800.010000", "140800.013000", "140800.015000", "140800.018000", "140800.020000", "140800.023000", "140819.973000", "140819.975000", "140819.978000", "140819.980000", "140819.983000", "140819.985000", "140819.988000", "140819.990000", "140819.993000", "140819.995000", "140819.998000", "140820.001000", "140820.004000", "140820.006000", "140820.009000", "140820.011000", "140820.014000", "140820.016000", "140820.019000", "140820.021000", "140839.972000", "140839.975000", "140839.978000", "140839.980000", "140839.982000", "140839.985000", "140839.987000", "140839.990000", "140839.992000", "140839.995000", "140839.997000", "140840.001000", "140840.003000", "140840.006000", "140840.008000", "140840.011000", "140840.013000", "140840.016000", "140840.018000", "140840.021000", "140859.972000", "140859.975000", "140859.978000", "140859.980000", "140859.983000", "140859.996000", "140859.998000", "140900.002000", "140900.005000", "140900.007000", "140900.010000", "140900.012000", "140900.015000", "140900.017000", "140900.020000", "140900.022000", "140900.025000", "140900.028000", "140900.030000", "140900.033000", "140919.972000", "140919.975000", "140919.977000", "140919.980000", "140919.982000", "140919.985000", "140919.987000", "140919.990000", "140919.992000", "140919.995000", "140919.997000", "140920.001000", "140920.003000", "140920.006000", "140920.020000", "140920.023000", "140920.025000", "140920.028000", "140920.030000", "140920.033000", "140939.972000", "140939.975000", "140939.978000", "140939.981000", "140939.983000", "140939.986000", "140939.989000", "140939.991000", "140939.994000", "140939.996000", "140940.000000", "140940.002000", "140940.005000", "140940.008000", "140940.010000", "140940.013000", "140940.016000", "140940.018000", "140940.021000", "140940.023000", "140959.972000", "140959.975000", "140959.978000", "140959.980000", "140959.983000", "140959.985000", "140959.988000", "140959.990000", "140959.993000", "140959.995000", "140959.998000", "141000.001000", "141000.004000", "141000.006000", "141000.009000", "141000.011000", "141000.014000", "141000.016000", "141000.019000", "141000.021000", "141017.686000", "141017.689000", "141017.691000", "141017.694000", "141017.696000", "141017.699000", "141017.702000", "141017.705000", "141017.707000", "141017.710000", "141017.712000", "141017.715000", "141017.717000", "141017.720000", "141017.723000", "141017.725000", "141017.728000", "141017.730000"],
      "InstanceNumber": [1, 2, 3, 4, 5, 6, 7, 8, 9, 10, 11, 12, 13, 14, 15, 16, 17, 18, 19, 20, 21, 22, 23, 24, 25, 26, 27, 28, 29, 30, 31, 32, 33, 34, 35, 36, 37, 38, 39, 40, 41, 42, 43, 44, 45, 46, 47, 48, 49, 50, 51, 52, 53, 54, 55, 56, 57, 58, 59, 60, 61, 62, 63, 64, 65, 66, 67, 68, 69, 70, 71, 72, 73, 74, 75, 76, 77, 78, 79, 80, 81, 82, 83, 84, 85, 86, 87, 88, 89, 90, 91, 92, 93, 94, 95, 96, 97, 98, 99, 100, 101, 102, 103, 104, 105, 106, 107, 108, 109, 110, 111, 112, 113, 114, 115, 116, 117, 118, 119, 120, 121, 122, 123, 124, 125, 126, 127, 128, 129, 130, 131, 132, 133, 134, 135, 136, 137, 138, 139, 140, 141, 142, 143, 144, 145, 146, 147, 148, 149, 150, 151, 152, 153, 154, 155, 156, 157, 158, 159, 160, 161, 162, 163, 164, 165, 166, 167, 168, 169, 170, 171, 172, 173, 174, 175, 176, 177, 178, 179, 180, 181, 182, 183, 184, 185, 186, 187, 188, 189, 190, 191, 192, 193, 194, 195, 196, 197, 198, 199, 200, 201, 202, 203, 204, 205, 206, 207, 208, 209, 210, 211, 212, 213, 214, 215, 216, 217, 218, 219, 220, 221, 222, 223, 224, 225, 226, 227, 228, 229, 230, 231, 232, 233, 234, 235, 236, 237, 238, 239, 240, 241, 242, 243, 244, 245, 246, 247, 248, 249, 250, 251, 252, 253, 254, 255, 256, 257, 258, 259, 260, 261, 262, 263, 264, 265, 266, 267, 268, 269, 270, 271, 272, 273, 274, 275, 276, 277, 278, 279, 280, 281, 282, 283, 284, 285, 286, 287, 288, 289, 290, 291, 292, 293, 294, 295, 296, 297, 298, 299, 300, 301, 302, 303, 304, 305, 306, 307, 308, 309, 310, 311, 312, 313, 314, 315, 316, 317, 318, 319, 320, 321, 322, 323, 324, 325, 326, 327, 328, 329, 330, 331, 332, 333, 334, 335, 336, 337, 338, 339, 340, 341, 342, 343, 344, 345, 346, 347, 348, 349, 350, 351, 352, 353, 354, 355, 356],
      "LargestImagePixelValue": [12622, 12033, 11761, 11750, 11783, 11664, 11380, 11244, 11218, 11344, 11470, 11710, 11677, 11521, 11386, 11609, 11570, 11387, 11385, 11615, 11495, 11188, 11782, 11604, 11502, 11769, 11836, 11562, 11343, 11567, 11556, 11480, 11770, 11607, 11520, 11419, 11707, 11611, 11511, 11874, 11762, 11578, 11843, 11728, 11574, 11459, 11595, 11686, 11518, 11720, 11613, 11532, 11454, 11842, 11672, 11691, 11732, 11722, 11553, 11626, 11636, 11771, 11745, 11741, 11747, 11643, 11642, 11452, 11509, 11794, 11747, 11635, 11715, 11999, 11958, 11923, 11953, 11780, 11670, 11916, 11837, 11663, 11694, 11906, 11843, 11986, 11870, 11921, 11969, 11903, 11789, 11789, 11701, 12040, 11768, 11665, 11899, 11802, 11664, 11483, 11817, 11629, 11434, 11695, 11640, 11974, 11953, 11721, 11409, 11714, 11606, 11438, 11654, 11761, 11603, 11347, 11634, 11711, 11728, 11757, 11808, 11796, 11595, 11617, 11803, 11496, 11452, 11550, 11588, 11554, 11535, 11427, 11691, 11704, 11597, 11624, 11740, 11650, 11536, 11332, 11631, 11629, 11472, 11896, 11795, 11653, 11932, 11567, 11565, 11965, 11822, 11538, 11512, 11780, 11676, 11382, 11348, 11481, 11341, 11408, 11793, 11835, 11934, 11688, 11776, 11660, 11355, 11705, 11587, 11523, 11848, 11676, 11451, 11515, 11554, 11523, 11677, 11540, 12073, 11911, 11888, 11630, 11836, 11905, 11721, 11631, 11609, 12020, 11821, 11900, 11824, 11463, 11687, 11669, 11538, 11717, 11975, 11909, 11599, 11493, 11763, 11699, 11701, 11561, 11497, 11745, 11645, 11608, 11476, 11581, 11629, 11495, 11483, 11557, 11739, 11691, 11299, 11581, 11458, 11620, 11525, 11454, 11416, 11481, 11488, 11794, 11630, 11802, 11724, 11642, 11464, 11428, 11453, 11674, 11850, 12111, 12015, 11811, 11724, 11703, 11669, 11744, 11599, 11692, 11628, 12008, 11937, 11724, 12089, 11817, 11716, 11412, 11676, 11632, 11522, 11464, 11548, 11742, 11461, 11704, 11624, 11741, 11677, 11674, 11665, 11922, 11908, 11478, 11545, 11518, 11648, 11423, 11998, 11971, 11875, 11678, 11592, 11592, 11411, 11888, 11881, 11478, 11503, 11462, 11769, 11912, 11876, 11865, 11656, 11776, 11739, 11908, 11849, 11960, 11759, 11816, 11599, 11921, 11702, 11938, 12019, 12110, 11932, 11847, 11758, 12090, 12052, 11703, 11687, 11920, 11597, 12130, 11931, 11800, 11786, 11971, 11737, 11736, 12109, 11994, 11678, 11761, 11926, 11874, 11685, 11891, 11823, 11820, 11651, 11711, 11915, 11935, 11883, 11838, 11730, 11738, 11756, 11804, 11792, 11835, 11857, 11800, 11795, 11738, 11971, 11876, 11885, 11896, 11800, 11849, 11753, 11737, 11857, 11916, 11681, 11707],
