{
  "AcquisitionMatrixPE": 106,
  "AcquisitionNumber": 1,
  "AcquisitionTime": "13:57:10.847500",
  "BandwidthPerPixelPhaseEncode": 16.846,
  "BaseResolution": 106,
  "BodyPartExamined": "BRAIN",
  "CoilCombinationMethod": "Sum of Squares",
  "ConsistencyInfo": "N4_VE11C_LATEST_20160120",
  "ConversionSoftware": "dcm2niix",
  "ConversionSoftwareVersion": "v1.0.20220720",
  "DerivedVendorReportedEchoSpacing": 0.000560012,
  "DeviceSerialNumber": "166108",
  "DwellTime": 1.8e-06,
  "EchoTime": 0.0352,
  "EchoTrainLength": 106,
  "EffectiveEchoSpacing": 0.000560012,
  "FlipAngle": 60,
  "HeudiconvVersion": "1.3.0",
  "ImageComments": "Unaliased MB4/PE3/LB",
  "ImageOrientationPatientDICOM": [1, 0, 0, 0, 0.91706, -0.398749],
  "ImageOrientationText": "Tra>Cor(-23.5)",
  "ImageType": [
    "ORIGINAL",
    "PRIMARY",
    "M",
    "MB",
    "ND",
    "MOSAIC"
],
  "ImagingFrequency": 123.244,
  "InPlanePhaseEncodingDirectionDICOM": "COL",
  "InstitutionAddress": "Bedford Way 26,London,London,GB,WC1H 0AP",
  "InstitutionName": "University College",
  "InstitutionalDepartmentName": "Department",
  "MRAcquisitionType": "2D",
  "MagneticFieldStrength": 3,
  "Manufacturer": "Siemens",
  "ManufacturersModelName": "Prisma",
  "MatrixCoilMode": "SENSE",
  "Modality": "MR",
  "MultibandAccelerationFactor": 4,
  "NonlinearGradientCorrection": false,
  "PartialFourier": 1,
  "PatientPosition": "HFS",
  "PercentPhaseFOV": 100,
  "PercentSampling": 100,
  "PhaseEncodingDirection": "j-",
  "PhaseEncodingSteps": 106,
  "PhaseResolution": 1,
  "PixelBandwidth": 2620,
  "ProcedureStepDescription": "Egor^MovieProject2",
  "ProtocolName": "func-bold_task-pRF_run-02",
  "PulseSequenceDetails": "%CustomerSeq%\\cmrr_mbep2d_bold",
  "ReceiveCoilActiveElements": "HEA;HEP",
  "ReceiveCoilName": "Head_32",
  "ReconMatrixPE": 106,
  "RepetitionTime": 1,
  "SAR": 0.0850007,
  "ScanOptions": "FS\\EXT",
  "ScanningSequence": "EP",
  "SequenceName": "epfid2d1_106",
  "SequenceVariant": "SK\\SS",
  "SeriesDescription": "func-bold_task-pRF_run-02",
  "SeriesNumber": 12,
  "ShimSetting": [-1526, 664, 7412, 282, -77, 189, 248, -41],
  "SliceThickness": 2,
  "SliceTiming": [0, 0.4075, 0.8175, 0.245, 0.6525, 0.0825, 0.49, 0.8975, 0.3275, 0.735, 0.1625, 0.5725, 0, 0.4075, 0.8175, 0.245, 0.6525, 0.0825, 0.49, 0.8975, 0.3275, 0.735, 0.1625, 0.5725, 0, 0.4075, 0.8175, 0.245, 0.6525, 0.0825, 0.49, 0.8975, 0.3275, 0.735, 0.1625, 0.5725, 0, 0.4075, 0.8175, 0.245, 0.6525, 0.0825, 0.49, 0.8975, 0.3275, 0.735, 0.1625, 0.5725],
  "SoftwareVersions": "syngo MR E11",
  "SpacingBetweenSlices": 2,
  "StationName": "AWP166108",
  "TaskName": "retinotopy",
  "TotalReadoutTime": 0.0588013,
  "TxRefAmp": 258.165,
  "WipMemBlock": "511ffa81-56cf-4e3f-bca7-2745103e66ff||Sequence: R016 ve11c/master r/e634e98; Dec 19 2017 11:00:25 by eja",
  "dcmmeta_affine": [
    [-2.0, 0.0, 0.0, 106.0],
    [0.0, 1.8341201543807983, -0.7974981069564819, -71.69810485839844],
    [0.0, 0.7974981069564819, 1.8341201543807983, -54.345218658447266],
    [0.0, 0.0, 0.0, 1.0]
],
  "dcmmeta_reorient_transform": [
    [0.0, -1.0, 0.0, 105.0],
    [1.0, 0.0, 0.0, 0.0],
    [0.0, 0.0, 1.0, 0.0],
    [0.0, 0.0, 0.0, 1.0]
],
  "dcmmeta_shape": [106, 106, 48, 356],
  "dcmmeta_slice_dim": 2,
  "dcmmeta_version": 0.6,
  "global": {
    "const": {
      "AcquisitionMatrix": [106, 0, 0, 106],
      "AngioFlag": "N",
      "BitsAllocated": 16,
      "BitsStored": 16,
      "BodyPartExamined": "BRAIN",
      "CardiacNumberOfImages": 1,
      "Columns": 742,
      "EchoNumbers": 1,
      "EchoTime": 35.2,
      "EchoTrainLength": 106,
      "FlipAngle": 60.0,
      "HighBit": 15,
      "ImageOrientationPatient": [1.0, 0.0, 0.0, 0.0, 0.91706007940825, -0.3987490573729],
      "ImagePositionPatient": [-742.0, -704.13472447451, 282.99648299711],
      "ImageType": [
        "ORIGINAL",
        "PRIMARY",
        "M",
        "MB",
        "ND",
        "MOSAIC"
],
      "ImagedNucleus": "1H",
      "ImagingFrequency": 123.243644,
      "InPlanePhaseEncodingDirection": "COL",
      "MRAcquisitionType": "2D",
      "MagneticFieldStrength": 3.0,
      "Manufacturer": "SIEMENS",
      "ManufacturerModelName": "Prisma",
      "Modality": "MR",
      "NominalInterval": 0,
      "NumberOfAverages": 1.0,
      "NumberOfPhaseEncodingSteps": 106,
      "PercentPhaseFieldOfView": 100.0,
      "PercentSampling": 100.0,
      "PerformedProcedureStepStartTime": "125809.001000",
      "PhotometricInterpretation": "MONOCHROME2",
      "PixelBandwidth": 2620.0,
      "PixelRepresentation": 0,
      "PixelSpacing": [2.0, 2.0],
      "ProtocolName": "func-bold_task-pRF_run-02",
      "RepetitionTime": 1000.0,
      "Rows": 742,
      "SAR": 0.08500073825773,
      "SamplesPerPixel": 1,
      "ScanOptions": [
        "FS",
        "EXT"
],
      "ScanningSequence": "EP",
      "SequenceName": "epfid2d1_106",
      "SequenceVariant": [
        "SK",
        "SS"
],
      "SeriesDescription": "func-bold_task-pRF_run-02",
      "SeriesNumber": 12,
      "SeriesTime": "135739.936000",
      "SliceLocation": -21.24828047812,
      "SliceThickness": 2.0,
      "SmallestImagePixelValue": 0,
      "SoftwareVersions": "syngo MR E11",
      "SpacingBetweenSlices": 2.0000000295374,
      "SpecificCharacterSet": "ISO_IR 100",
      "StudyID": "1",
      "StudyTime": "125808.946000",
      "TransmitCoilName": "Body",
      "VariableFlipAngleFlag": "N",
      "WindowCenterWidthExplanation": "Algo1",
      "dBdt": 0.0},
    "slices": {}
  },
  "time": {
    "samples": {
      "AcquisitionNumber": [1, 2, 3, 4, 5, 6, 7, 8, 9, 10, 11, 12, 13, 14, 15, 16, 17, 18, 19, 20, 21, 22, 23, 24, 25, 26, 27, 28, 29, 30, 31, 32, 33, 34, 35, 36, 37, 38, 39, 40, 41, 42, 43, 44, 45, 46, 47, 48, 49, 50, 51, 52, 53, 54, 55, 56, 57, 58, 59, 60, 61, 62, 63, 64, 65, 66, 67, 68, 69, 70, 71, 72, 73, 74, 75, 76, 77, 78, 79, 80, 81, 82, 83, 84, 85, 86, 87, 88, 89, 90, 91, 92, 93, 94, 95, 96, 97, 98, 99, 100, 101, 102, 103, 104, 105, 106, 107, 108, 109, 110, 111, 112, 113, 114, 115, 116, 117, 118, 119, 120, 121, 122, 123, 124, 125, 126, 127, 128, 129, 130, 131, 132, 133, 134, 135, 136, 137, 138, 139, 140, 141, 142, 143, 144, 145, 146, 147, 148, 149, 150, 151, 152, 153, 154, 155, 156, 157, 158, 159, 160, 161, 162, 163, 164, 165, 166, 167, 168, 169, 170, 171, 172, 173, 174, 175, 176, 177, 178, 179, 180, 181, 182, 183, 184, 185, 186, 187, 188, 189, 190, 191, 192, 193, 194, 195, 196, 197, 198, 199, 200, 201, 202, 203, 204, 205, 206, 207, 208, 209, 210, 211, 212, 213, 214, 215, 216, 217, 218, 219, 220, 221, 222, 223, 224, 225, 226, 227, 228, 229, 230, 231, 232, 233, 234, 235, 236, 237, 238, 239, 240, 241, 242, 243, 244, 245, 246, 247, 248, 249, 250, 251, 252, 253, 254, 255, 256, 257, 258, 259, 260, 261, 262, 263, 264, 265, 266, 267, 268, 269, 270, 271, 272, 273, 274, 275, 276, 277, 278, 279, 280, 281, 282, 283, 284, 285, 286, 287, 288, 289, 290, 291, 292, 293, 294, 295, 296, 297, 298, 299, 300, 301, 302, 303, 304, 305, 306, 307, 308, 309, 310, 311, 312, 313, 314, 315, 316, 317, 318, 319, 320, 321, 322, 323, 324, 325, 326, 327, 328, 329, 330, 331, 332, 333, 334, 335, 336, 337, 338, 339, 340, 341, 342, 343, 344, 345, 346, 347, 348, 349, 350, 351, 352, 353, 354, 355, 356],
      "AcquisitionTime": ["135710.847500", "135711.847500", "135712.847500", "135713.847500", "135714.847500", "135715.847500", "135716.847500", "135717.847500", "135718.847500", "135719.847500", "135720.847500", "135721.847500", "135722.847500", "135723.847500", "135724.847500", "135725.847500", "135726.847500", "135727.847500", "135728.847500", "135729.847500", "135730.847500", "135731.847500", "135732.847500", "135733.847500", "135734.847500", "135735.847500", "135736.847500", "135737.847500", "135738.847500", "135739.847500", "135740.847500", "135741.847500", "135742.847500", "135743.847500", "135744.847500", "135745.847500", "135746.847500", "135747.847500", "135748.847500", "135749.847500", "135750.847500", "135751.847500", "135752.847500", "135753.847500", "135754.847500", "135755.847500", "135756.847500", "135757.847500", "135758.847500", "135759.847500", "135800.847500", "135801.847500", "135802.847500", "135803.847500", "135804.847500", "135805.847500", "135806.847500", "135807.847500", "135808.847500", "135809.847500", "135810.847500", "135811.847500", "135812.847500", "135813.847500", "135814.847500", "135815.847500", "135816.847500", "135817.847500", "135818.847500", "135819.847500", "135820.847500", "135821.847500", "135822.847500", "135823.847500", "135824.847500", "135825.847500", "135826.847500", "135827.847500", "135828.847500", "135829.847500", "135830.847500", "135831.847500", "135832.847500", "135833.847500", "135834.847500", "135835.847500", "135836.847500", "135837.847500", "135838.847500", "135839.847500", "135840.847500", "135841.847500", "135842.847500", "135843.847500", "135844.847500", "135845.847500", "135846.847500", "135847.847500", "135848.847500", "135849.847500", "135850.847500", "135851.847500", "135852.847500", "135853.847500", "135854.847500", "135855.847500", "135856.847500", "135857.847500", "135858.847500", "135859.847500", "135900.847500", "135901.847500", "135902.847500", "135903.847500", "135904.847500", "135905.847500", "135906.847500", "135907.847500", "135908.847500", "135909.847500", "135910.847500", "135911.847500", "135912.847500", "135913.847500", "135914.847500", "135915.847500", "135916.847500", "135917.847500", "135918.847500", "135919.847500", "135920.847500", "135921.847500", "135922.847500", "135923.847500", "135924.847500", "135925.847500", "135926.847500", "135927.847500", "135928.847500", "135929.847500", "135930.847500", "135931.847500", "135932.847500", "135933.847500", "135934.847500", "135935.847500", "135936.847500", "135937.847500", "135938.847500", "135939.847500", "135940.847500", "135941.847500", "135942.847500", "135943.847500", "135944.847500", "135945.847500", "135946.847500", "135947.847500", "135948.847500", "135949.847500", "135950.847500", "135951.847500", "135952.847500", "135953.847500", "135954.847500", "135955.847500", "135956.847500", "135957.847500", "135958.847500", "135959.847500", "140000.847500", "140001.847500", "140002.847500", "140003.847500", "140004.847500", "140005.847500", "140006.847500", "140007.847500", "140008.847500", "140009.847500", "140010.847500", "140011.847500", "140012.847500", "140013.847500", "140014.847500", "140015.847500", "140016.847500", "140017.847500", "140018.847500", "140019.847500", "140020.847500", "140021.847500", "140022.847500", "140023.847500", "140024.847500", "140025.847500", "140026.847500", "140027.847500", "140028.847500", "140029.847500", "140030.847500", "140031.847500", "140032.847500", "140033.847500", "140034.847500", "140035.847500", "140036.847500", "140037.847500", "140038.847500", "140039.847500", "140040.847500", "140041.847500", "140042.847500", "140043.847500", "140044.847500", "140045.847500", "140046.847500", "140047.847500", "140048.847500", "140049.847500", "140050.847500", "140051.847500", "140052.847500", "140053.847500", "140054.847500", "140055.847500", "140056.847500", "140057.847500", "140058.847500", "140059.847500", "140100.847500", "140101.847500", "140102.847500", "140103.847500", "140104.847500", "140105.847500", "140106.847500", "140107.847500", "140108.847500", "140109.847500", "140110.847500", "140111.847500", "140112.847500", "140113.847500", "140114.847500", "140115.847500", "140116.847500", "140117.847500", "140118.847500", "140119.847500", "140120.847500", "140121.847500", "140122.847500", "140123.847500", "140124.847500", "140125.847500", "140126.847500", "140127.847500", "140128.847500", "140129.847500", "140130.847500", "140131.847500", "140132.847500", "140133.847500", "140134.847500", "140135.847500", "140136.847500", "140137.847500", "140138.847500", "140139.847500", "140140.847500", "140141.847500", "140142.847500", "140143.847500", "140144.847500", "140145.847500", "140146.847500", "140147.847500", "140148.847500", "140149.847500", "140150.847500", "140151.847500", "140152.847500", "140153.847500", "140154.847500", "140155.847500", "140156.847500", "140157.847500", "140158.847500", "140159.847500", "140200.847500", "140201.847500", "140202.847500", "140203.847500", "140204.847500", "140205.847500", "140206.847500", "140207.847500", "140208.847500", "140209.847500", "140210.847500", "140211.847500", "140212.847500", "140213.847500", "140214.847500", "140215.847500", "140216.847500", "140217.847500", "140218.847500", "140219.847500", "140220.847500", "140221.847500", "140222.847500", "140223.847500", "140224.847500", "140225.847500", "140226.847500", "140227.847500", "140228.847500", "140229.847500", "140230.847500", "140231.847500", "140232.847500", "140233.847500", "140234.847500", "140235.847500", "140236.847500", "140237.847500", "140238.847500", "140239.847500", "140240.847500", "140241.847500", "140242.847500", "140243.847500", "140244.847500", "140245.847500", "140246.847500", "140247.847500", "140248.847500", "140249.847500", "140250.847500", "140251.847500", "140252.847500", "140253.847500", "140254.847500", "140255.847500", "140256.847500", "140257.847500", "140258.847500", "140259.847500", "140300.847500", "140301.847500", "140302.847500", "140303.847500", "140304.847500", "140305.847500"],
      "ContentTime": ["135739.939000", "135739.941000", "135739.944000", "135739.946000", "135739.949000", "135739.951000", "135739.954000", "135739.956000", "135739.959000", "135739.968000", "135739.971000", "135739.973000", "135739.976000", "135739.978000", "135739.981000", "135739.983000", "135739.986000", "135739.988000", "135739.991000", "135739.993000", "135739.996000", "135739.998000", "135740.002000", "135740.004000", "135740.007000", "135740.009000", "135740.012000", "135759.908000", "135759.911000", "135759.925000", "135759.927000", "135759.930000", "135759.945000", "135759.947000", "135759.950000", "135759.952000", "135759.955000", "135759.957000", "135759.960000", "135759.962000", "135759.965000", "135759.967000", "135759.969000", "135759.972000", "135759.974000", "135759.977000", "135759.979000", "135819.908000", "135819.911000", "135819.913000", "135819.916000", "135819.919000", "135819.921000", "135819.924000", "135819.926000", "135819.929000", "135819.932000", "135819.934000", "135819.937000", "135819.939000", "135819.942000", "135819.944000", "135819.947000", "135819.949000", "135819.952000", "135819.957000", "135819.960000", "135839.908000", "135839.911000", "135839.914000", "135839.916000", "135839.919000", "135839.921000", "135839.924000", "135839.926000", "135839.928000", "135839.931000", "135839.934000", "135839.936000", "135839.939000", "135839.941000", "135839.943000", "135839.946000", "135839.948000", "135839.951000", "135839.956000", "135839.968000", "135859.908000", "135859.911000", "135859.913000", "135859.916000", "135859.919000", "135859.922000", "135859.924000", "135859.927000", "135859.929000", "135859.932000", "135859.935000", "135859.937000", "135859.940000", "135859.942000", "135859.945000", "135859.948000", "135859.950000", "135859.953000", "135859.955000", "135859.957000", "135919.908000", "135919.911000", "135919.914000", "135919.916000", "135919.919000", "135919.922000", "135919.924000", "135919.927000", "135919.929000", "135919.932000", "135919.934000", "135919.937000", "135919.939000", "135919.941000", "135919.944000", "135919.946000", "135919.949000", "135919.951000", "135919.954000", "135919.956000", "135939.908000", "135939.911000", "135939.913000", "135939.916000", "135939.919000", "135939.921000", "135939.924000", "135939.927000", "135939.929000", "135939.932000", "135939.934000", "135939.937000", "135939.939000", "135939.942000", "135939.944000", "135939.947000", "135939.949000", "135939.952000", "135939.954000", "135939.956000", "135959.908000", "135959.911000", "135959.914000", "135959.916000", "135959.919000", "135959.922000", "135959.924000", "135959.927000", "135959.930000", "135959.932000", "135959.935000", "135959.937000", "135959.940000", "135959.942000", "135959.945000", "135959.948000", "135959.950000", "135959.953000", "135959.956000", "135959.958000", "140019.908000", "140019.912000", "140019.914000", "140019.917000", "140019.920000", "140019.922000", "140019.925000", "140019.927000", "140019.930000", "140019.932000", "140019.935000", "140019.937000", "140019.940000", "140019.942000", "140019.945000", "140019.947000", "140019.949000", "140019.952000", "140019.954000", "140019.957000", "140039.908000", "140039.911000", "140039.914000", "140039.916000", "140039.919000", "140039.922000", "140039.924000", "140039.927000", "140039.929000", "140039.932000", "140039.935000", "140039.937000", "140039.940000", "140039.942000", "140039.945000", "140039.947000", "140039.950000", "140039.952000", "140039.955000", "140039.957000", "140059.908000", "140059.911000", "140059.914000", "140059.916000", "140059.919000", "140059.921000", "140059.924000", "140059.933000", "140059.936000", "140059.938000", "140059.941000", "140059.943000", "140059.946000", "140059.948000", "140059.951000", "140059.953000", "140059.955000", "140059.958000", "140059.960000", "140059.963000", "140119.908000", "140119.911000", "140119.913000", "140119.916000", "140119.919000", "140119.921000", "140119.924000", "140119.927000", "140119.929000", "140119.931000", "140119.934000", "140119.937000", "140119.939000", "140119.942000", "140119.944000", "140119.947000", "140119.949000", "140119.952000", "140119.954000", "140119.973000", "140139.908000", "140139.911000", "140139.914000", "140139.917000", "140139.920000", "140139.922000", "140139.925000", "140139.927000", "140139.930000", "140139.932000", "140139.935000", "140139.937000", "140139.940000", "140139.942000", "140139.945000", "140139.947000", "140139.950000", "140139.952000", "140139.955000", "140139.957000", "140159.908000", "140159.943000", "140159.946000", "140159.948000", "140159.951000", "140159.954000", "140159.956000", "140159.959000", "140159.961000", "140159.964000", "140159.966000", "140159.969000", "140159.971000", "140159.974000", "140159.976000", "140159.979000", "140159.981000", "140159.984000", "140159.987000", "140159.989000", "140219.910000", "140219.913000", "140219.916000", "140219.919000", "140219.921000", "140219.924000", "140219.926000", "140219.929000", "140219.931000", "140219.934000", "140219.936000", "140219.939000", "140219.941000", "140219.944000", "140219.946000", "140219.948000", "140219.951000", "140219.953000", "140219.956000", "140219.958000", "140239.908000", "140239.911000", "140239.914000", "140239.917000", "140239.920000", "140239.922000", "140239.925000", "140239.927000", "140239.930000", "140239.933000", "140239.935000", "140239.938000", "140239.940000", "140239.943000", "140239.945000", "140239.948000", "140239.951000", "140239.953000", "140239.955000", "140239.958000", "140259.908000", "140259.911000", "140259.914000", "140259.917000", "140259.920000", "140259.922000", "140259.925000", "140259.927000", "140259.930000", "140259.933000", "140259.936000", "140259.938000", "140259.941000", "140259.943000", "140259.946000", "140259.948000", "140259.951000", "140259.953000", "140259.956000", "140259.958000", "140307.961000", "140307.964000", "140307.966000", "140307.969000", "140307.972000", "140307.974000", "140307.977000", "140307.980000", "140307.982000"],
      "InstanceCreationTime": ["135739.939000", "135739.941000", "135739.944000", "135739.946000", "135739.949000", "135739.951000", "135739.954000", "135739.956000", "135739.959000", "135739.968000", "135739.971000", "135739.973000", "135739.976000", "135739.978000", "135739.981000", "135739.983000", "135739.986000", "135739.988000", "135739.991000", "135739.993000", "135739.996000", "135739.998000", "135740.002000", "135740.004000", "135740.007000", "135740.009000", "135740.012000", "135759.908000", "135759.911000", "135759.925000", "135759.927000", "135759.930000", "135759.945000", "135759.947000", "135759.950000", "135759.952000", "135759.955000", "135759.957000", "135759.960000", "135759.962000", "135759.965000", "135759.967000", "135759.969000", "135759.972000", "135759.974000", "135759.977000", "135759.979000", "135819.908000", "135819.911000", "135819.913000", "135819.916000", "135819.919000", "135819.921000", "135819.924000", "135819.926000", "135819.929000", "135819.932000", "135819.934000", "135819.937000", "135819.939000", "135819.942000", "135819.944000", "135819.947000", "135819.949000", "135819.952000", "135819.957000", "135819.960000", "135839.908000", "135839.911000", "135839.914000", "135839.916000", "135839.919000", "135839.921000", "135839.924000", "135839.926000", "135839.928000", "135839.931000", "135839.934000", "135839.936000", "135839.939000", "135839.941000", "135839.943000", "135839.946000", "135839.948000", "135839.951000", "135839.956000", "135839.968000", "135859.908000", "135859.911000", "135859.913000", "135859.916000", "135859.919000", "135859.922000", "135859.924000", "135859.927000", "135859.929000", "135859.932000", "135859.935000", "135859.937000", "135859.940000", "135859.942000", "135859.945000", "135859.948000", "135859.950000", "135859.953000", "135859.955000", "135859.957000", "135919.908000", "135919.911000", "135919.914000", "135919.916000", "135919.919000", "135919.922000", "135919.924000", "135919.927000", "135919.929000", "135919.932000", "135919.934000", "135919.937000", "135919.939000", "135919.941000", "135919.944000", "135919.946000", "135919.949000", "135919.951000", "135919.954000", "135919.956000", "135939.908000", "135939.911000", "135939.913000", "135939.916000", "135939.919000", "135939.921000", "135939.924000", "135939.927000", "135939.929000", "135939.932000", "135939.934000", "135939.937000", "135939.939000", "135939.942000", "135939.944000", "135939.947000", "135939.949000", "135939.952000", "135939.954000", "135939.956000", "135959.908000", "135959.911000", "135959.914000", "135959.916000", "135959.919000", "135959.922000", "135959.924000", "135959.927000", "135959.930000", "135959.932000", "135959.935000", "135959.937000", "135959.940000", "135959.942000", "135959.945000", "135959.948000", "135959.950000", "135959.953000", "135959.956000", "135959.958000", "140019.908000", "140019.912000", "140019.914000", "140019.917000", "140019.920000", "140019.922000", "140019.925000", "140019.927000", "140019.930000", "140019.932000", "140019.935000", "140019.937000", "140019.940000", "140019.942000", "140019.945000", "140019.947000", "140019.949000", "140019.952000", "140019.954000", "140019.957000", "140039.908000", "140039.911000", "140039.914000", "140039.916000", "140039.919000", "140039.922000", "140039.924000", "140039.927000", "140039.929000", "140039.932000", "140039.935000", "140039.937000", "140039.940000", "140039.942000", "140039.945000", "140039.947000", "140039.950000", "140039.952000", "140039.955000", "140039.957000", "140059.908000", "140059.911000", "140059.914000", "140059.916000", "140059.919000", "140059.921000", "140059.924000", "140059.933000", "140059.936000", "140059.938000", "140059.941000", "140059.943000", "140059.946000", "140059.948000", "140059.951000", "140059.953000", "140059.955000", "140059.958000", "140059.960000", "140059.963000", "140119.908000", "140119.911000", "140119.913000", "140119.916000", "140119.919000", "140119.921000", "140119.924000", "140119.927000", "140119.929000", "140119.931000", "140119.934000", "140119.937000", "140119.939000", "140119.942000", "140119.944000", "140119.947000", "140119.949000", "140119.952000", "140119.954000", "140119.973000", "140139.908000", "140139.911000", "140139.914000", "140139.917000", "140139.920000", "140139.922000", "140139.925000", "140139.927000", "140139.930000", "140139.932000", "140139.935000", "140139.937000", "140139.940000", "140139.942000", "140139.945000", "140139.947000", "140139.950000", "140139.952000", "140139.955000", "140139.957000", "140159.908000", "140159.943000", "140159.946000", "140159.948000", "140159.951000", "140159.954000", "140159.956000", "140159.959000", "140159.961000", "140159.964000", "140159.966000", "140159.969000", "140159.971000", "140159.974000", "140159.976000", "140159.979000", "140159.981000", "140159.984000", "140159.987000", "140159.989000", "140219.910000", "140219.913000", "140219.916000", "140219.919000", "140219.921000", "140219.924000", "140219.926000", "140219.929000", "140219.931000", "140219.934000", "140219.936000", "140219.939000", "140219.941000", "140219.944000", "140219.946000", "140219.948000", "140219.951000", "140219.953000", "140219.956000", "140219.958000", "140239.908000", "140239.911000", "140239.914000", "140239.917000", "140239.920000", "140239.922000", "140239.925000", "140239.927000", "140239.930000", "140239.933000", "140239.935000", "140239.938000", "140239.940000", "140239.943000", "140239.945000", "140239.948000", "140239.951000", "140239.953000", "140239.955000", "140239.958000", "140259.908000", "140259.911000", "140259.914000", "140259.917000", "140259.920000", "140259.922000", "140259.925000", "140259.927000", "140259.930000", "140259.933000", "140259.936000", "140259.938000", "140259.941000", "140259.943000", "140259.946000", "140259.948000", "140259.951000", "140259.953000", "140259.956000", "140259.958000", "140307.961000", "140307.964000", "140307.966000", "140307.969000", "140307.972000", "140307.974000", "140307.977000", "140307.980000", "140307.982000"],
      "InstanceNumber": [1, 2, 3, 4, 5, 6, 7, 8, 9, 10, 11, 12, 13, 14, 15, 16, 17, 18, 19, 20, 21, 22, 23, 24, 25, 26, 27, 28, 29, 30, 31, 32, 33, 34, 35, 36, 37, 38, 39, 40, 41, 42, 43, 44, 45, 46, 47, 48, 49, 50, 51, 52, 53, 54, 55, 56, 57, 58, 59, 60, 61, 62, 63, 64, 65, 66, 67, 68, 69, 70, 71, 72, 73, 74, 75, 76, 77, 78, 79, 80, 81, 82, 83, 84, 85, 86, 87, 88, 89, 90, 91, 92, 93, 94, 95, 96, 97, 98, 99, 100, 101, 102, 103, 104, 105, 106, 107, 108, 109, 110, 111, 112, 113, 114, 115, 116, 117, 118, 119, 120, 121, 122, 123, 124, 125, 126, 127, 128, 129, 130, 131, 132, 133, 134, 135, 136, 137, 138, 139, 140, 141, 142, 143, 144, 145, 146, 147, 148, 149, 150, 151, 152, 153, 154, 155, 156, 157, 158, 159, 160, 161, 162, 163, 164, 165, 166, 167, 168, 169, 170, 171, 172, 173, 174, 175, 176, 177, 178, 179, 180, 181, 182, 183, 184, 185, 186, 187, 188, 189, 190, 191, 192, 193, 194, 195, 196, 197, 198, 199, 200, 201, 202, 203, 204, 205, 206, 207, 208, 209, 210, 211, 212, 213, 214, 215, 216, 217, 218, 219, 220, 221, 222, 223, 224, 225, 226, 227, 228, 229, 230, 231, 232, 233, 234, 235, 236, 237, 238, 239, 240, 241, 242, 243, 244, 245, 246, 247, 248, 249, 250, 251, 252, 253, 254, 255, 256, 257, 258, 259, 260, 261, 262, 263, 264, 265, 266, 267, 268, 269, 270, 271, 272, 273, 274, 275, 276, 277, 278, 279, 280, 281, 282, 283, 284, 285, 286, 287, 288, 289, 290, 291, 292, 293, 294, 295, 296, 297, 298, 299, 300, 301, 302, 303, 304, 305, 306, 307, 308, 309, 310, 311, 312, 313, 314, 315, 316, 317, 318, 319, 320, 321, 322, 323, 324, 325, 326, 327, 328, 329, 330, 331, 332, 333, 334, 335, 336, 337, 338, 339, 340, 341, 342, 343, 344, 345, 346, 347, 348, 349, 350, 351, 352, 353, 354, 355, 356],
      "LargestImagePixelValue": [12306, 11794, 11681, 11676, 11401, 11282, 11417, 11590, 11379, 11659, 11544, 11359, 11485, 11408, 11261, 11509, 11420, 11301, 11147, 11381, 11491, 11506, 11440, 11587, 11418, 11277, 11296, 11493, 11534, 11562, 11705, 11490, 11456, 11648, 11864, 11601, 11804, 11187, 11675, 11647, 11481, 11889, 11878, 11900, 11492, 11747, 11736, 11583, 11647, 11782, 11785, 11696, 11420, 11568, 11905, 11741, 11854, 11896, 11923, 11436, 11499, 11812, 11777, 11719, 11769, 11593, 11853, 11763, 11627, 11785, 11705, 11836, 11932, 11889, 11670, 11619, 11874, 11731, 11826, 11848, 12106, 11844, 11666, 11713, 11669, 11654, 11864, 12010, 11865, 11827, 11712, 11818, 11816, 11847, 11899, 11747, 11813, 11879, 11604, 11453, 11322, 11501, 11709, 11540, 11577, 11663, 11763, 11370, 11364, 11566, 11492, 11528, 11642, 11638, 11410, 11907, 11930, 11841, 11749, 11908, 11666, 11642, 11830, 11768, 11674, 11705, 11379, 11644, 11615, 11728, 11612, 11186, 11371, 11420, 11282, 11544, 11434, 11306, 11420, 11575, 11424, 11387, 11912, 11816, 11847, 11583, 11729, 11645, 11556, 11802, 11757, 11901, 11600, 11707, 11894, 11945, 12200, 11906, 11858, 11840, 11955, 11995, 12114, 12175, 12002, 11957, 12064, 12140, 12114, 12222, 12138, 12168, 12007, 12042, 11949, 11978, 12070, 11927, 12126, 12095, 11875, 11835, 11961, 12064, 12099, 12203, 11998, 11938, 12036, 11814, 12058, 12193, 12130, 12060, 11852, 12130, 12088, 12135, 11987, 12042, 12068, 12065, 12165, 12051, 12008, 11982, 12125, 12089, 12106, 12079, 12056, 11998, 11985, 12055, 12090, 12230, 12056, 11992, 11980, 12173, 12204, 11989, 11915, 11931, 11879, 11996, 12147, 12135, 12328, 12125, 11900, 12164, 11933, 12044, 12219, 12099, 12082, 11991, 11966, 11974, 11907, 12093, 12082, 12041, 11911, 11873, 11913, 11928, 11941, 12137, 12235, 12131, 11790, 11896, 11923, 11866, 11937, 12226, 12100, 11889, 11837, 11962, 12079, 12064, 11985, 12097, 11917, 12036, 11770, 11792, 11936, 12050, 12000, 12014, 12042, 12227, 12120, 11975, 11970, 11934, 12010, 11803, 12078, 12132, 11987, 12220, 11943, 11975, 11994, 12127, 12097, 11974, 12078, 12132, 12026, 12025, 11973, 11990, 11990, 12082, 12109, 11969, 12162, 12028, 11942, 11985, 12079, 12106, 12048, 12008, 11927, 11971, 11966, 12019, 12074, 12049, 12165, 12049, 11973, 11986, 12030, 12104, 12110, 11984, 12090, 12225, 11848, 12014, 12172, 12018, 12054, 12247, 12047, 12028, 11858, 12004, 12016, 11909, 12090, 12175, 12224, 12074, 12121, 12148, 11974, 12005, 12031, 12177, 12028, 12166, 11834, 11853, 11961, 12215, 11982, 12009],
