{
  "AcquisitionMatrixPE": 106,
  "AcquisitionNumber": 1,
  "AcquisitionTime": "13:49:7.965000",
  "BandwidthPerPixelPhaseEncode": 16.846,
  "BaseResolution": 106,
  "BodyPartExamined": "BRAIN",
  "CoilCombinationMethod": "Sum of Squares",
  "ConsistencyInfo": "N4_VE11C_LATEST_20160120",
  "ConversionSoftware": "dcm2niix",
  "ConversionSoftwareVersion": "v1.0.20220720",
  "DerivedVendorReportedEchoSpacing": 0.000560012,
  "DeviceSerialNumber": "166108",
  "DwellTime": 1.8e-06,
  "EchoTime": 0.0352,
  "EchoTrainLength": 106,
  "EffectiveEchoSpacing": 0.000560012,
  "FlipAngle": 60,
  "HeudiconvVersion": "1.3.0",
  "ImageComments": "Unaliased MB4/PE3/LB",
  "ImageOrientationPatientDICOM": [1, 0, 0, 0, 0.91706, -0.398749],
  "ImageOrientationText": "Tra>Cor(-23.5)",
  "ImageType": [
    "ORIGINAL",
    "PRIMARY",
    "M",
    "MB",
    "ND",
    "MOSAIC"
],
  "ImagingFrequency": 123.244,
  "InPlanePhaseEncodingDirectionDICOM": "COL",
  "InstitutionAddress": "Bedford Way 26,London,London,GB,WC1H 0AP",
  "InstitutionName": "University College",
  "InstitutionalDepartmentName": "Department",
  "MRAcquisitionType": "2D",
  "MagneticFieldStrength": 3,
  "Manufacturer": "Siemens",
  "ManufacturersModelName": "Prisma",
  "MatrixCoilMode": "SENSE",
  "Modality": "MR",
  "MultibandAccelerationFactor": 4,
  "NonlinearGradientCorrection": false,
  "PartialFourier": 1,
  "PatientPosition": "HFS",
  "PercentPhaseFOV": 100,
  "PercentSampling": 100,
  "PhaseEncodingDirection": "j-",
  "PhaseEncodingSteps": 106,
  "PhaseResolution": 1,
  "PixelBandwidth": 2620,
  "ProcedureStepDescription": "Egor^MovieProject2",
  "ProtocolName": "func-bold_task-pRF_run-01",
  "PulseSequenceDetails": "%CustomerSeq%\\cmrr_mbep2d_bold",
  "ReceiveCoilActiveElements": "HEA;HEP",
  "ReceiveCoilName": "Head_32",
  "ReconMatrixPE": 106,
  "RepetitionTime": 1,
  "SAR": 0.0850007,
  "ScanOptions": "FS\\EXT",
  "ScanningSequence": "EP",
  "SequenceName": "epfid2d1_106",
  "SequenceVariant": "SK\\SS",
  "SeriesDescription": "func-bold_task-pRF_run-01",
  "SeriesNumber": 10,
  "ShimSetting": [-1526, 664, 7412, 282, -77, 189, 248, -41],
  "SliceThickness": 2,
  "SliceTiming": [0, 0.4075, 0.815, 0.245, 0.6525, 0.08, 0.49, 0.8975, 0.325, 0.735, 0.1625, 0.57, 0, 0.4075, 0.815, 0.245, 0.6525, 0.08, 0.49, 0.8975, 0.325, 0.735, 0.1625, 0.57, 0, 0.4075, 0.815, 0.245, 0.6525, 0.08, 0.49, 0.8975, 0.325, 0.735, 0.1625, 0.57, 0, 0.4075, 0.815, 0.245, 0.6525, 0.08, 0.49, 0.8975, 0.325, 0.735, 0.1625, 0.57],
  "SoftwareVersions": "syngo MR E11",
  "SpacingBetweenSlices": 2,
  "StationName": "AWP166108",
  "TaskName": "retinotopy",
  "TotalReadoutTime": 0.0588013,
  "TxRefAmp": 258.165,
  "WipMemBlock": "e49ff0a1-246f-4365-9d11-bdbabe21e83d||Sequence: R016 ve11c/master r/e634e98; Dec 19 2017 11:00:25 by eja",
  "dcmmeta_affine": [
    [-2.0, 0.0, 0.0, 106.0],
    [0.0, 1.8341201543807983, -0.7974981069564819, -71.69810485839844],
    [0.0, 0.7974981069564819, 1.8341201543807983, -54.345218658447266],
    [0.0, 0.0, 0.0, 1.0]
],
  "dcmmeta_reorient_transform": [
    [0.0, -1.0, 0.0, 105.0],
    [1.0, 0.0, 0.0, 0.0],
    [0.0, 0.0, 1.0, 0.0],
    [0.0, 0.0, 0.0, 1.0]
],
  "dcmmeta_shape": [106, 106, 48, 356],
  "dcmmeta_slice_dim": 2,
  "dcmmeta_version": 0.6,
  "global": {
    "const": {
      "AcquisitionMatrix": [106, 0, 0, 106],
      "AngioFlag": "N",
      "BitsAllocated": 16,
      "BitsStored": 16,
      "BodyPartExamined": "BRAIN",
      "CardiacNumberOfImages": 1,
      "Columns": 742,
      "EchoNumbers": 1,
      "EchoTime": 35.2,
      "EchoTrainLength": 106,
      "FlipAngle": 60.0,
      "HighBit": 15,
      "ImageOrientationPatient": [1.0, 0.0, 0.0, 0.0, 0.91706007940825, -0.3987490573729],
      "ImagePositionPatient": [-742.0, -704.13472447451, 282.99648299711],
      "ImageType": [
        "ORIGINAL",
        "PRIMARY",
        "M",
        "MB",
        "ND",
        "MOSAIC"
],
      "ImagedNucleus": "1H",
      "ImagingFrequency": 123.243638,
      "InPlanePhaseEncodingDirection": "COL",
      "MRAcquisitionType": "2D",
      "MagneticFieldStrength": 3.0,
      "Manufacturer": "SIEMENS",
      "ManufacturerModelName": "Prisma",
      "Modality": "MR",
      "NominalInterval": 0,
      "NumberOfAverages": 1.0,
      "NumberOfPhaseEncodingSteps": 106,
      "PercentPhaseFieldOfView": 100.0,
      "PercentSampling": 100.0,
      "PerformedProcedureStepStartTime": "125809.001000",
      "PhotometricInterpretation": "MONOCHROME2",
      "PixelBandwidth": 2620.0,
      "PixelRepresentation": 0,
      "PixelSpacing": [2.0, 2.0],
      "ProtocolName": "func-bold_task-pRF_run-01",
      "RepetitionTime": 1000.0,
      "Rows": 742,
      "SAR": 0.08500073825773,
      "SamplesPerPixel": 1,
      "ScanOptions": [
        "FS",
        "EXT"
],
      "ScanningSequence": "EP",
      "SequenceName": "epfid2d1_106",
      "SequenceVariant": [
        "SK",
        "SS"
],
      "SeriesDescription": "func-bold_task-pRF_run-01",
      "SeriesNumber": 10,
      "SeriesTime": "134940.875000",
      "SliceLocation": -21.24828047812,
      "SliceThickness": 2.0,
      "SmallestImagePixelValue": 0,
      "SoftwareVersions": "syngo MR E11",
      "SpacingBetweenSlices": 2.0000000295374,
      "SpecificCharacterSet": "ISO_IR 100",
      "StudyID": "1",
      "StudyTime": "125808.946000",
      "TransmitCoilName": "Body",
      "VariableFlipAngleFlag": "N",
      "WindowCenterWidthExplanation": "Algo1",
      "dBdt": 0.0},
    "slices": {}
  },
  "time": {
    "samples": {
      "AcquisitionNumber": [1, 2, 3, 4, 5, 6, 7, 8, 9, 10, 11, 12, 13, 14, 15, 16, 17, 18, 19, 20, 21, 22, 23, 24, 25, 26, 27, 28, 29, 30, 31, 32, 33, 34, 35, 36, 37, 38, 39, 40, 41, 42, 43, 44, 45, 46, 47, 48, 49, 50, 51, 52, 53, 54, 55, 56, 57, 58, 59, 60, 61, 62, 63, 64, 65, 66, 67, 68, 69, 70, 71, 72, 73, 74, 75, 76, 77, 78, 79, 80, 81, 82, 83, 84, 85, 86, 87, 88, 89, 90, 91, 92, 93, 94, 95, 96, 97, 98, 99, 100, 101, 102, 103, 104, 105, 106, 107, 108, 109, 110, 111, 112, 113, 114, 115, 116, 117, 118, 119, 120, 121, 122, 123, 124, 125, 126, 127, 128, 129, 130, 131, 132, 133, 134, 135, 136, 137, 138, 139, 140, 141, 142, 143, 144, 145, 146, 147, 148, 149, 150, 151, 152, 153, 154, 155, 156, 157, 158, 159, 160, 161, 162, 163, 164, 165, 166, 167, 168, 169, 170, 171, 172, 173, 174, 175, 176, 177, 178, 179, 180, 181, 182, 183, 184, 185, 186, 187, 188, 189, 190, 191, 192, 193, 194, 195, 196, 197, 198, 199, 200, 201, 202, 203, 204, 205, 206, 207, 208, 209, 210, 211, 212, 213, 214, 215, 216, 217, 218, 219, 220, 221, 222, 223, 224, 225, 226, 227, 228, 229, 230, 231, 232, 233, 234, 235, 236, 237, 238, 239, 240, 241, 242, 243, 244, 245, 246, 247, 248, 249, 250, 251, 252, 253, 254, 255, 256, 257, 258, 259, 260, 261, 262, 263, 264, 265, 266, 267, 268, 269, 270, 271, 272, 273, 274, 275, 276, 277, 278, 279, 280, 281, 282, 283, 284, 285, 286, 287, 288, 289, 290, 291, 292, 293, 294, 295, 296, 297, 298, 299, 300, 301, 302, 303, 304, 305, 306, 307, 308, 309, 310, 311, 312, 313, 314, 315, 316, 317, 318, 319, 320, 321, 322, 323, 324, 325, 326, 327, 328, 329, 330, 331, 332, 333, 334, 335, 336, 337, 338, 339, 340, 341, 342, 343, 344, 345, 346, 347, 348, 349, 350, 351, 352, 353, 354, 355, 356],
      "AcquisitionTime": ["134907.965000", "134908.965000", "134909.965000", "134910.965000", "134911.965000", "134912.965000", "134913.965000", "134914.965000", "134915.965000", "134916.965000", "134917.965000", "134918.965000", "134919.965000", "134920.965000", "134921.965000", "134922.965000", "134923.965000", "134924.965000", "134925.965000", "134926.965000", "134927.965000", "134928.965000", "134929.965000", "134930.965000", "134931.965000", "134932.965000", "134933.965000", "134934.965000", "134935.965000", "134936.965000", "134937.965000", "134938.965000", "134939.965000", "134940.965000", "134941.965000", "134942.965000", "134943.965000", "134944.965000", "134945.965000", "134946.965000", "134947.965000", "134948.965000", "134949.965000", "134950.965000", "134951.965000", "134952.965000", "134953.965000", "134954.965000", "134955.965000", "134956.965000", "134957.965000", "134958.965000", "134959.965000", "135000.965000", "135001.965000", "135002.965000", "135003.965000", "135004.965000", "135005.965000", "135006.965000", "135007.965000", "135008.965000", "135009.965000", "135010.965000", "135011.965000", "135012.965000", "135013.965000", "135014.965000", "135015.965000", "135016.965000", "135017.965000", "135018.965000", "135019.965000", "135020.965000", "135021.965000", "135022.965000", "135023.965000", "135024.965000", "135025.965000", "135026.965000", "135027.965000", "135028.965000", "135029.965000", "135030.965000", "135031.965000", "135032.965000", "135033.965000", "135034.965000", "135035.965000", "135036.965000", "135037.965000", "135038.965000", "135039.965000", "135040.965000", "135041.965000", "135042.965000", "135043.965000", "135044.965000", "135045.965000", "135046.965000", "135047.965000", "135048.965000", "135049.965000", "135050.965000", "135051.965000", "135052.965000", "135053.965000", "135054.965000", "135055.965000", "135056.965000", "135057.965000", "135058.965000", "135059.965000", "135100.965000", "135101.965000", "135102.965000", "135103.965000", "135104.965000", "135105.965000", "135106.965000", "135107.965000", "135108.965000", "135109.965000", "135110.965000", "135111.965000", "135112.965000", "135113.965000", "135114.965000", "135115.965000", "135116.965000", "135117.965000", "135118.965000", "135119.965000", "135120.965000", "135121.965000", "135122.965000", "135123.965000", "135124.965000", "135125.965000", "135126.965000", "135127.965000", "135128.965000", "135129.965000", "135130.965000", "135131.965000", "135132.965000", "135133.965000", "135134.965000", "135135.965000", "135136.965000", "135137.965000", "135138.965000", "135139.965000", "135140.965000", "135141.965000", "135142.965000", "135143.965000", "135144.965000", "135145.965000", "135146.965000", "135147.965000", "135148.965000", "135149.965000", "135150.965000", "135151.965000", "135152.965000", "135153.965000", "135154.965000", "135155.965000", "135156.965000", "135157.965000", "135158.965000", "135159.965000", "135200.965000", "135201.965000", "135202.965000", "135203.965000", "135204.965000", "135205.965000", "135206.965000", "135207.965000", "135208.965000", "135209.965000", "135210.965000", "135211.965000", "135212.965000", "135213.965000", "135214.965000", "135215.965000", "135216.965000", "135217.965000", "135218.965000", "135219.965000", "135220.965000", "135221.965000", "135222.965000", "135223.965000", "135224.965000", "135225.965000", "135226.965000", "135227.965000", "135228.965000", "135229.965000", "135230.965000", "135231.965000", "135232.965000", "135233.965000", "135234.965000", "135235.965000", "135236.965000", "135237.965000", "135238.965000", "135239.965000", "135240.965000", "135241.965000", "135242.965000", "135243.965000", "135244.965000", "135245.965000", "135246.965000", "135247.965000", "135248.965000", "135249.965000", "135250.965000", "135251.965000", "135252.965000", "135253.965000", "135254.965000", "135255.965000", "135256.965000", "135257.965000", "135258.965000", "135259.965000", "135300.965000", "135301.965000", "135302.965000", "135303.965000", "135304.965000", "135305.965000", "135306.965000", "135307.965000", "135308.965000", "135309.965000", "135310.965000", "135311.965000", "135312.965000", "135313.965000", "135314.965000", "135315.965000", "135316.965000", "135317.965000", "135318.965000", "135319.965000", "135320.965000", "135321.965000", "135322.965000", "135323.965000", "135324.965000", "135325.965000", "135326.965000", "135327.965000", "135328.965000", "135329.965000", "135330.965000", "135331.965000", "135332.965000", "135333.965000", "135334.965000", "135335.965000", "135336.965000", "135337.965000", "135338.965000", "135339.965000", "135340.965000", "135341.965000", "135342.965000", "135343.965000", "135344.965000", "135345.965000", "135346.965000", "135347.965000", "135348.965000", "135349.965000", "135350.965000", "135351.965000", "135352.965000", "135353.965000", "135354.965000", "135355.965000", "135356.965000", "135357.965000", "135358.965000", "135359.965000", "135400.965000", "135401.965000", "135402.965000", "135403.965000", "135404.965000", "135405.965000", "135406.965000", "135407.965000", "135408.965000", "135409.965000", "135410.965000", "135411.965000", "135412.965000", "135413.965000", "135414.965000", "135415.965000", "135416.965000", "135417.965000", "135418.965000", "135419.965000", "135420.965000", "135421.965000", "135422.965000", "135423.965000", "135424.965000", "135425.965000", "135426.965000", "135427.965000", "135428.965000", "135429.965000", "135430.965000", "135431.965000", "135432.965000", "135433.965000", "135434.965000", "135435.965000", "135436.965000", "135437.965000", "135438.965000", "135439.965000", "135440.965000", "135441.965000", "135442.965000", "135443.965000", "135444.965000", "135445.965000", "135446.965000", "135447.965000", "135448.965000", "135449.965000", "135450.965000", "135451.965000", "135452.965000", "135453.965000", "135454.965000", "135455.965000", "135456.965000", "135457.965000", "135458.965000", "135459.965000", "135500.965000", "135501.965000", "135502.965000"],
      "ContentTime": ["134940.877000", "134940.881000", "134940.883000", "134940.886000", "134940.888000", "134940.891000", "134940.893000", "134940.896000", "134940.907000", "134940.910000", "134940.912000", "134940.915000", "134940.917000", "134940.920000", "134940.922000", "134940.925000", "134940.927000", "134940.930000", "134940.938000", "134940.941000", "134940.943000", "134940.946000", "134940.948000", "134940.951000", "134940.953000", "134940.956000", "134940.958000", "134940.961000", "134940.963000", "134940.966000", "134940.968000", "134940.971000", "135000.848000", "135000.851000", "135000.854000", "135000.857000", "135000.859000", "135000.862000", "135000.865000", "135000.868000", "135000.871000", "135000.873000", "135000.876000", "135000.878000", "135000.881000", "135000.883000", "135000.886000", "135000.889000", "135000.892000", "135000.894000", "135000.897000", "135000.900000", "135020.848000", "135020.851000", "135020.853000", "135020.856000", "135020.859000", "135020.861000", "135020.864000", "135020.866000", "135020.869000", "135020.872000", "135020.874000", "135020.876000", "135020.879000", "135020.882000", "135020.884000", "135020.887000", "135020.889000", "135020.892000", "135020.894000", "135020.897000", "135040.848000", "135040.851000", "135040.854000", "135040.856000", "135040.859000", "135040.862000", "135040.865000", "135040.867000", "135040.877000", "135040.880000", "135040.883000", "135040.885000", "135040.888000", "135040.890000", "135040.893000", "135040.895000", "135040.898000", "135040.901000", "135040.903000", "135040.906000", "135100.848000", "135100.851000", "135100.853000", "135100.856000", "135100.859000", "135100.861000", "135100.874000", "135100.877000", "135100.879000", "135100.882000", "135100.884000", "135100.887000", "135100.889000", "135100.892000", "135100.894000", "135100.897000", "135100.899000", "135100.902000", "135100.904000", "135100.907000", "135120.849000", "135120.852000", "135120.855000", "135120.858000", "135120.861000", "135120.863000", "135120.866000", "135120.868000", "135120.871000", "135120.873000", "135120.876000", "135120.878000", "135120.881000", "135120.891000", "135120.893000", "135120.896000", "135120.898000", "135120.901000", "135120.903000", "135120.906000", "135140.849000", "135140.852000", "135140.855000", "135140.858000", "135140.861000", "135140.863000", "135140.866000", "135140.869000", "135140.872000", "135140.874000", "135140.877000", "135140.880000", "135140.883000", "135140.885000", "135140.888000", "135140.890000", "135140.893000", "135140.895000", "135140.898000", "135140.900000", "135200.849000", "135200.852000", "135200.855000", "135200.857000", "135200.860000", "135200.862000", "135200.865000", "135200.867000", "135200.870000", "135200.872000", "135200.875000", "135200.877000", "135200.880000", "135200.882000", "135200.885000", "135200.887000", "135200.890000", "135200.892000", "135200.895000", "135200.897000", "135220.848000", "135220.851000", "135220.854000", "135220.857000", "135220.859000", "135220.862000", "135220.865000", "135220.867000", "135220.870000", "135220.873000", "135220.876000", "135220.878000", "135220.892000", "135220.895000", "135220.898000", "135220.900000", "135220.903000", "135220.905000", "135220.908000", "135220.910000", "135240.848000", "135240.851000", "135240.854000", "135240.856000", "135240.859000", "135240.861000", "135240.864000", "135240.866000", "135240.869000", "135240.871000", "135240.874000", "135240.876000", "135240.878000", "135240.881000", "135240.883000", "135240.886000", "135240.888000", "135240.891000", "135240.893000", "135240.896000", "135300.849000", "135300.851000", "135300.854000", "135300.857000", "135300.859000", "135300.862000", "135300.864000", "135300.867000", "135300.870000", "135300.880000", "135300.883000", "135300.885000", "135300.888000", "135300.890000", "135300.893000", "135300.896000", "135300.898000", "135300.901000", "135300.903000", "135300.906000", "135320.848000", "135320.851000", "135320.854000", "135320.856000", "135320.859000", "135320.861000", "135320.864000", "135320.866000", "135320.869000", "135320.871000", "135320.874000", "135320.876000", "135320.879000", "135320.881000", "135320.884000", "135320.886000", "135320.889000", "135320.891000", "135320.894000", "135320.896000", "135340.849000", "135340.852000", "135340.855000", "135340.857000", "135340.860000", "135340.863000", "135340.865000", "135340.867000", "135340.870000", "135340.873000", "135340.875000", "135340.878000", "135340.881000", "135340.883000", "135340.886000", "135340.888000", "135340.891000", "135340.893000", "135340.896000", "135340.898000", "135400.849000", "135400.852000", "135400.855000", "135400.858000", "135400.861000", "135400.863000", "135400.866000", "135400.868000", "135400.871000", "135400.873000", "135400.876000", "135400.879000", "135400.881000", "135400.884000", "135400.887000", "135400.889000", "135400.892000", "135400.895000", "135400.897000", "135400.900000", "135420.849000", "135420.852000", "135420.855000", "135420.857000", "135420.859000", "135420.862000", "135420.864000", "135420.867000", "135420.869000", "135420.872000", "135420.874000", "135420.877000", "135420.880000", "135420.882000", "135420.885000", "135420.887000", "135420.889000", "135420.892000", "135420.895000", "135420.897000", "135440.849000", "135440.851000", "135440.854000", "135440.856000", "135440.859000", "135440.861000", "135440.864000", "135440.866000", "135440.869000", "135440.871000", "135440.874000", "135440.876000", "135440.879000", "135440.882000", "135440.884000", "135440.886000", "135440.889000", "135440.892000", "135440.894000", "135440.897000", "135500.849000", "135500.851000", "135500.854000", "135500.856000", "135500.859000", "135500.861000", "135500.864000", "135500.866000", "135500.869000", "135500.871000", "135500.874000", "135500.876000", "135500.879000", "135500.881000", "135500.884000", "135500.886000", "135500.889000", "135500.891000", "135500.894000", "135500.896000", "135504.438000", "135504.442000", "135504.445000", "135504.447000"],
      "InstanceCreationTime": ["134940.877000", "134940.881000", "134940.883000", "134940.886000", "134940.888000", "134940.891000", "134940.893000", "134940.896000", "134940.907000", "134940.910000", "134940.912000", "134940.915000", "134940.917000", "134940.920000", "134940.922000", "134940.925000", "134940.927000", "134940.930000", "134940.938000", "134940.941000", "134940.943000", "134940.946000", "134940.948000", "134940.951000", "134940.953000", "134940.956000", "134940.958000", "134940.961000", "134940.963000", "134940.966000", "134940.968000", "134940.971000", "135000.848000", "135000.851000", "135000.854000", "135000.857000", "135000.859000", "135000.862000", "135000.865000", "135000.868000", "135000.871000", "135000.873000", "135000.876000", "135000.878000", "135000.881000", "135000.883000", "135000.886000", "135000.889000", "135000.892000", "135000.894000", "135000.897000", "135000.900000", "135020.848000", "135020.851000", "135020.853000", "135020.856000", "135020.859000", "135020.861000", "135020.864000", "135020.866000", "135020.869000", "135020.872000", "135020.874000", "135020.876000", "135020.879000", "135020.882000", "135020.884000", "135020.887000", "135020.889000", "135020.892000", "135020.894000", "135020.897000", "135040.848000", "135040.851000", "135040.854000", "135040.856000", "135040.859000", "135040.862000", "135040.865000", "135040.867000", "135040.877000", "135040.880000", "135040.883000", "135040.885000", "135040.888000", "135040.890000", "135040.893000", "135040.895000", "135040.898000", "135040.901000", "135040.903000", "135040.906000", "135100.848000", "135100.851000", "135100.853000", "135100.856000", "135100.859000", "135100.861000", "135100.874000", "135100.877000", "135100.879000", "135100.882000", "135100.884000", "135100.887000", "135100.889000", "135100.892000", "135100.894000", "135100.897000", "135100.899000", "135100.902000", "135100.904000", "135100.907000", "135120.849000", "135120.852000", "135120.855000", "135120.858000", "135120.861000", "135120.863000", "135120.866000", "135120.868000", "135120.871000", "135120.873000", "135120.876000", "135120.878000", "135120.881000", "135120.891000", "135120.893000", "135120.896000", "135120.898000", "135120.901000", "135120.903000", "135120.906000", "135140.849000", "135140.852000", "135140.855000", "135140.858000", "135140.861000", "135140.863000", "135140.866000", "135140.869000", "135140.872000", "135140.874000", "135140.877000", "135140.880000", "135140.883000", "135140.885000", "135140.888000", "135140.890000", "135140.893000", "135140.895000", "135140.898000", "135140.900000", "135200.849000", "135200.852000", "135200.855000", "135200.857000", "135200.860000", "135200.862000", "135200.865000", "135200.867000", "135200.870000", "135200.872000", "135200.875000", "135200.877000", "135200.880000", "135200.882000", "135200.885000", "135200.887000", "135200.890000", "135200.892000", "135200.895000", "135200.897000", "135220.848000", "135220.851000", "135220.854000", "135220.857000", "135220.859000", "135220.862000", "135220.865000", "135220.867000", "135220.870000", "135220.873000", "135220.876000", "135220.878000", "135220.892000", "135220.895000", "135220.898000", "135220.900000", "135220.903000", "135220.905000", "135220.908000", "135220.910000", "135240.848000", "135240.851000", "135240.854000", "135240.856000", "135240.859000", "135240.861000", "135240.864000", "135240.866000", "135240.869000", "135240.871000", "135240.874000", "135240.876000", "135240.878000", "135240.881000", "135240.883000", "135240.886000", "135240.888000", "135240.891000", "135240.893000", "135240.896000", "135300.849000", "135300.851000", "135300.854000", "135300.857000", "135300.859000", "135300.862000", "135300.864000", "135300.867000", "135300.870000", "135300.880000", "135300.883000", "135300.885000", "135300.888000", "135300.890000", "135300.893000", "135300.896000", "135300.898000", "135300.901000", "135300.903000", "135300.906000", "135320.848000", "135320.851000", "135320.854000", "135320.856000", "135320.859000", "135320.861000", "135320.864000", "135320.866000", "135320.869000", "135320.871000", "135320.874000", "135320.876000", "135320.879000", "135320.881000", "135320.884000", "135320.886000", "135320.889000", "135320.891000", "135320.894000", "135320.896000", "135340.849000", "135340.852000", "135340.855000", "135340.857000", "135340.860000", "135340.863000", "135340.865000", "135340.867000", "135340.870000", "135340.873000", "135340.875000", "135340.878000", "135340.881000", "135340.883000", "135340.886000", "135340.888000", "135340.891000", "135340.893000", "135340.896000", "135340.898000", "135400.849000", "135400.852000", "135400.855000", "135400.858000", "135400.861000", "135400.863000", "135400.866000", "135400.868000", "135400.871000", "135400.873000", "135400.876000", "135400.879000", "135400.881000", "135400.884000", "135400.887000", "135400.889000", "135400.892000", "135400.895000", "135400.897000", "135400.900000", "135420.849000", "135420.852000", "135420.855000", "135420.857000", "135420.859000", "135420.862000", "135420.864000", "135420.867000", "135420.869000", "135420.872000", "135420.874000", "135420.877000", "135420.880000", "135420.882000", "135420.885000", "135420.887000", "135420.889000", "135420.892000", "135420.895000", "135420.897000", "135440.849000", "135440.851000", "135440.854000", "135440.856000", "135440.859000", "135440.861000", "135440.864000", "135440.866000", "135440.869000", "135440.871000", "135440.874000", "135440.876000", "135440.879000", "135440.882000", "135440.884000", "135440.886000", "135440.889000", "135440.892000", "135440.894000", "135440.897000", "135500.849000", "135500.851000", "135500.854000", "135500.856000", "135500.859000", "135500.861000", "135500.864000", "135500.866000", "135500.869000", "135500.871000", "135500.874000", "135500.876000", "135500.879000", "135500.881000", "135500.884000", "135500.886000", "135500.889000", "135500.891000", "135500.894000", "135500.896000", "135504.438000", "135504.442000", "135504.445000", "135504.447000"],
      "InstanceNumber": [1, 2, 3, 4, 5, 6, 7, 8, 9, 10, 11, 12, 13, 14, 15, 16, 17, 18, 19, 20, 21, 22, 23, 24, 25, 26, 27, 28, 29, 30, 31, 32, 33, 34, 35, 36, 37, 38, 39, 40, 41, 42, 43, 44, 45, 46, 47, 48, 49, 50, 51, 52, 53, 54, 55, 56, 57, 58, 59, 60, 61, 62, 63, 64, 65, 66, 67, 68, 69, 70, 71, 72, 73, 74, 75, 76, 77, 78, 79, 80, 81, 82, 83, 84, 85, 86, 87, 88, 89, 90, 91, 92, 93, 94, 95, 96, 97, 98, 99, 100, 101, 102, 103, 104, 105, 106, 107, 108, 109, 110, 111, 112, 113, 114, 115, 116, 117, 118, 119, 120, 121, 122, 123, 124, 125, 126, 127, 128, 129, 130, 131, 132, 133, 134, 135, 136, 137, 138, 139, 140, 141, 142, 143, 144, 145, 146, 147, 148, 149, 150, 151, 152, 153, 154, 155, 156, 157, 158, 159, 160, 161, 162, 163, 164, 165, 166, 167, 168, 169, 170, 171, 172, 173, 174, 175, 176, 177, 178, 179, 180, 181, 182, 183, 184, 185, 186, 187, 188, 189, 190, 191, 192, 193, 194, 195, 196, 197, 198, 199, 200, 201, 202, 203, 204, 205, 206, 207, 208, 209, 210, 211, 212, 213, 214, 215, 216, 217, 218, 219, 220, 221, 222, 223, 224, 225, 226, 227, 228, 229, 230, 231, 232, 233, 234, 235, 236, 237, 238, 239, 240, 241, 242, 243, 244, 245, 246, 247, 248, 249, 250, 251, 252, 253, 254, 255, 256, 257, 258, 259, 260, 261, 262, 263, 264, 265, 266, 267, 268, 269, 270, 271, 272, 273, 274, 275, 276, 277, 278, 279, 280, 281, 282, 283, 284, 285, 286, 287, 288, 289, 290, 291, 292, 293, 294, 295, 296, 297, 298, 299, 300, 301, 302, 303, 304, 305, 306, 307, 308, 309, 310, 311, 312, 313, 314, 315, 316, 317, 318, 319, 320, 321, 322, 323, 324, 325, 326, 327, 328, 329, 330, 331, 332, 333, 334, 335, 336, 337, 338, 339, 340, 341, 342, 343, 344, 345, 346, 347, 348, 349, 350, 351, 352, 353, 354, 355, 356],
      "LargestImagePixelValue": [13176, 12717, 12560, 12380, 12397, 12377, 12267, 12313, 12236, 12242, 12319, 12328, 12341, 12552, 12397, 12262, 12412, 12217, 12280, 12501, 12007, 12032, 12203, 12208, 12179, 12357, 12227, 12191, 12069, 11967, 12191, 11952, 12113, 12015, 12271, 12092, 12267, 12075, 12259, 12126, 11985, 12237, 12008, 12170, 11927, 12132, 11806, 11868, 11863, 11944, 12167, 12037, 12109, 11939, 12124, 11900, 11908, 11756, 11737, 11666, 11864, 11781, 11895, 11727, 11831, 11970, 11780, 12034, 11835, 11772, 12028, 11776, 11876, 11821, 11774, 11776, 11817, 11835, 11824, 11755, 11871, 11816, 11788, 11906, 11845, 11842, 11851, 11953, 11862, 11983, 11820, 11733, 11919, 11942, 11772, 11861, 11910, 11875, 11744, 11904, 11944, 11860, 11877, 11985, 12073, 11968, 11881, 11965, 11906, 11966, 12062, 11867, 11926, 11928, 11957, 11920, 11898, 11796, 11990, 11976, 12004, 12039, 12055, 12038, 12053, 11867, 12127, 11968, 11930, 12136, 11955, 11893, 11958, 12152, 12058, 12186, 12050, 12123, 12155, 12075, 12241, 11939, 12127, 12187, 12070, 11977, 12099, 12099, 12189, 12075, 11985, 11890, 12018, 11810, 11769, 11740, 11955, 11997, 11997, 11932, 11819, 11938, 12152, 12037, 12037, 12148, 11992, 11940, 12162, 12199, 11940, 11979, 12109, 11935, 12057, 12017, 11918, 11912, 12080, 12098, 12012, 12171, 11975, 11994, 12099, 12158, 12029, 12058, 12100, 11958, 12111, 12036, 12011, 12101, 12024, 11734, 11990, 11985, 11991, 12008, 12080, 12082, 12089, 11974, 12107, 11985, 12154, 11965, 11803, 11786, 11920, 11947, 11986, 12144, 11884, 11760, 11821, 12076, 12016, 11825, 12159, 11964, 11739, 11866, 12000, 11754, 11747, 11990, 11883, 11966, 11846, 12098, 11934, 11674, 11745, 11912, 11758, 11919, 12026, 11953, 11851, 11920, 12110, 11873, 11724, 12217, 12120, 12244, 11964, 12057, 12091, 11827, 11873, 12014, 11849, 11917, 12066, 11843, 11994, 11978, 11804, 11852, 11862, 11898, 11935, 11843, 12029, 12248, 11925, 12010, 12051, 11945, 11744, 11843, 11748, 11934, 12073, 11985, 11861, 11987, 12235, 12118, 11940, 12068, 11852, 11835, 11869, 11802, 11861, 12137, 11951, 11808, 11974, 11939, 11674, 12105, 11934, 11821, 11998, 11982, 11837, 11815, 12057, 11961, 11998, 12108, 12075, 11932, 11990, 12011, 11934, 11813, 11851, 11978, 11771, 11892, 12078, 11921, 12003, 12130, 12150, 11866, 11765, 12142, 11901, 11894, 11969, 11968, 12097, 11986, 11846, 12016, 12011, 11970, 11863, 12007, 11973, 12126, 11898, 12140, 12142, 11999, 11867, 12406, 12164, 11876, 11802, 11929, 11974, 11913, 12081, 12021, 11821, 11881, 11724, 11912],
