{
  "AcquisitionMatrixPE": 106,
  "AcquisitionNumber": 1,
  "AcquisitionTime": "13:35:59.837500",
  "BandwidthPerPixelPhaseEncode": 13.477,
  "BaseResolution": 106,
  "BodyPartExamined": "BRAIN",
  "CoilCombinationMethod": "Sum of Squares",
  "ConsistencyInfo": "N4_VE11C_LATEST_20160120",
  "ConversionSoftware": "dcm2niix",
  "ConversionSoftwareVersion": "v1.0.20220720",
  "DerivedVendorReportedEchoSpacing": 0.000700005,
  "DeviceSerialNumber": "166108",
  "DwellTime": 2.6e-06,
  "EchoTime": 0.03,
  "EchoTrainLength": 80,
  "EffectiveEchoSpacing": 0.000700005,
  "FlipAngle": 62,
  "HeudiconvVersion": "1.3.0",
  "ImageComments": "Unaliased MB4/PE3/LB",
  "ImageOrientationPatientDICOM": [1, 0, 0, 0, 0.993768, -0.111469],
  "ImageOrientationText": "Tra>Cor(-6.4)",
  "ImageType": [
    "ORIGINAL",
    "PRIMARY",
    "M",
    "MB",
    "ND",
    "MOSAIC"
],
  "ImagingFrequency": 123.244,
  "InPlanePhaseEncodingDirectionDICOM": "COL",
  "InstitutionAddress": "Bedford Way 26,London,London,GB,WC1H 0AP",
  "InstitutionName": "University College",
  "InstitutionalDepartmentName": "Department",
  "MRAcquisitionType": "2D",
  "MagneticFieldStrength": 3,
  "Manufacturer": "Siemens",
  "ManufacturersModelName": "Prisma",
  "MatrixCoilMode": "SENSE",
  "Modality": "MR",
  "MultibandAccelerationFactor": 4,
  "NonlinearGradientCorrection": false,
  "PartialFourier": 0.75,
  "PatientPosition": "HFS",
  "PercentPhaseFOV": 100,
  "PercentSampling": 100,
  "PhaseEncodingDirection": "j-",
  "PhaseEncodingSteps": 80,
  "PhaseResolution": 1,
  "PixelBandwidth": 1815,
  "ProcedureStepDescription": "Egor^MovieProject2",
  "ProtocolName": "func-bold_task-motor_run-02",
  "PulseSequenceDetails": "%CustomerSeq%\\cmrr_mbep2d_bold",
  "ReceiveCoilActiveElements": "HEA;HEP",
  "ReceiveCoilName": "Head_32",
  "ReconMatrixPE": 106,
  "RepetitionTime": 1,
  "SAR": 0.047453,
  "ScanOptions": "PFP\\FS\\EXT",
  "ScanningSequence": "EP",
  "SequenceName": "epfid2d1_106",
  "SequenceVariant": "SK\\SS",
  "SeriesDescription": "func-bold_task-motor_run-02",
  "SeriesNumber": 6,
  "ShimSetting": [-1513, 642, 7350, 64, -42, 158, 191, -38],
  "SliceThickness": 2,
  "SliceTiming": [0, 0.5325, 0.0875, 0.6225, 0.1775, 0.7125, 0.2675, 0.8, 0.355, 0.89, 0.445, 0, 0.5325, 0.0875, 0.6225, 0.1775, 0.7125, 0.2675, 0.8, 0.355, 0.89, 0.445, 0, 0.5325, 0.0875, 0.6225, 0.1775, 0.7125, 0.2675, 0.8, 0.355, 0.89, 0.445, 0, 0.5325, 0.0875, 0.6225, 0.1775, 0.7125, 0.2675, 0.8, 0.355, 0.89, 0.445],
  "SoftwareVersions": "syngo MR E11",
  "SpacingBetweenSlices": 2,
  "StationName": "AWP166108",
  "TaskName": "somatotopy",
  "TotalReadoutTime": 0.0735005,
  "TxRefAmp": 258.165,
  "WipMemBlock": "b9660ceb-d527-422d-b7a8-8d8ee4427ded||Sequence: R016 ve11c/master r/e634e98; Dec 19 2017 11:00:25 by eja",
  "dcmmeta_affine": [
    [-2.0, 0.0, 0.0, 106.0],
    [0.0, 1.987535834312439, -0.22293783724308014, -93.67677307128906],
    [0.0, 0.22293785214424133, 1.9875357151031494, -12.089849472045898],
    [0.0, 0.0, 0.0, 1.0]
],
  "dcmmeta_reorient_transform": [
    [0.0, -1.0, 0.0, 105.0],
    [1.0, 0.0, 0.0, 0.0],
    [0.0, 0.0, 1.0, 0.0],
    [0.0, 0.0, 0.0, 1.0]
],
  "dcmmeta_shape": [106, 106, 44, 469],
  "dcmmeta_slice_dim": 2,
  "dcmmeta_version": 0.6,
  "global": {
    "const": {
      "AcquisitionMatrix": [106, 0, 0, 106],
      "AngioFlag": "N",
      "BitsAllocated": 16,
      "BitsStored": 16,
      "BodyPartExamined": "BRAIN",
      "CardiacNumberOfImages": 1,
      "Columns": 742,
      "EchoNumbers": 1,
      "EchoTime": 30.0,
      "EchoTrainLength": 80,
      "FlipAngle": 62.0,
      "HighBit": 15,
      "ImageOrientationPatient": [1.0, 0.0, 0.0, 0.0, 0.99376791982449, -0.1114689262876],
      "ImagePositionPatient": [-742.0, -747.05088825324, 82.212862532269],
      "ImageType": [
        "ORIGINAL",
        "PRIMARY",
        "M",
        "MB",
        "ND",
        "MOSAIC"
],
      "ImagedNucleus": "1H",
      "ImagingFrequency": 123.243652,
      "InPlanePhaseEncodingDirection": "COL",
      "MRAcquisitionType": "2D",
      "MagneticFieldStrength": 3.0,
      "Manufacturer": "SIEMENS",
      "ManufacturerModelName": "Prisma",
      "Modality": "MR",
      "NominalInterval": 0,
      "NumberOfAverages": 1.0,
      "NumberOfPhaseEncodingSteps": 80,
      "PercentPhaseFieldOfView": 100.0,
      "PercentSampling": 100.0,
      "PerformedProcedureStepStartTime": "125809.001000",
      "PhotometricInterpretation": "MONOCHROME2",
      "PixelBandwidth": 1815.0,
      "PixelRepresentation": 0,
      "PixelSpacing": [2.0, 2.0],
      "ProtocolName": "func-bold_task-motor_run-02",
      "RepetitionTime": 1000.0,
      "Rows": 742,
      "SAR": 0.04745302229839,
      "SamplesPerPixel": 1,
      "ScanOptions": [
        "PFP",
        "FS",
        "EXT"
],
      "ScanningSequence": "EP",
      "SequenceName": "epfid2d1_106",
      "SequenceVariant": [
        "SK",
        "SS"
],
      "SeriesDescription": "func-bold_task-motor_run-02",
      "SeriesNumber": 6,
      "SeriesTime": "133639.942000",
      "SliceLocation": -1.5724550142618,
      "SliceThickness": 2.0,
      "SmallestImagePixelValue": 0,
      "SoftwareVersions": "syngo MR E11",
      "SpacingBetweenSlices": 1.9999999263202,
      "SpecificCharacterSet": "ISO_IR 100",
      "StudyID": "1",
      "StudyTime": "125808.946000",
      "TransmitCoilName": "Body",
      "VariableFlipAngleFlag": "N",
      "WindowCenterWidthExplanation": "Algo1",
      "dBdt": 0.0},
    "slices": {}
  },
  "time": {
    "samples": {
      "AcquisitionNumber": [1, 2, 3, 4, 5, 6, 7, 8, 9, 10, 11, 12, 13, 14, 15, 16, 17, 18, 19, 20, 21, 22, 23, 24, 25, 26, 27, 28, 29, 30, 31, 32, 33, 34, 35, 36, 37, 38, 39, 40, 41, 42, 43, 44, 45, 46, 47, 48, 49, 50, 51, 52, 53, 54, 55, 56, 57, 58, 59, 60, 61, 62, 63, 64, 65, 66, 67, 68, 69, 70, 71, 72, 73, 74, 75, 76, 77, 78, 79, 80, 81, 82, 83, 84, 85, 86, 87, 88, 89, 90, 91, 92, 93, 94, 95, 96, 97, 98, 99, 100, 101, 102, 103, 104, 105, 106, 107, 108, 109, 110, 111, 112, 113, 114, 115, 116, 117, 118, 119, 120, 121, 122, 123, 124, 125, 126, 127, 128, 129, 130, 131, 132, 133, 134, 135, 136, 137, 138, 139, 140, 141, 142, 143, 144, 145, 146, 147, 148, 149, 150, 151, 152, 153, 154, 155, 156, 157, 158, 159, 160, 161, 162, 163, 164, 165, 166, 167, 168, 169, 170, 171, 172, 173, 174, 175, 176, 177, 178, 179, 180, 181, 182, 183, 184, 185, 186, 187, 188, 189, 190, 191, 192, 193, 194, 195, 196, 197, 198, 199, 200, 201, 202, 203, 204, 205, 206, 207, 208, 209, 210, 211, 212, 213, 214, 215, 216, 217, 218, 219, 220, 221, 222, 223, 224, 225, 226, 227, 228, 229, 230, 231, 232, 233, 234, 235, 236, 237, 238, 239, 240, 241, 242, 243, 244, 245, 246, 247, 248, 249, 250, 251, 252, 253, 254, 255, 256, 257, 258, 259, 260, 261, 262, 263, 264, 265, 266, 267, 268, 269, 270, 271, 272, 273, 274, 275, 276, 277, 278, 279, 280, 281, 282, 283, 284, 285, 286, 287, 288, 289, 290, 291, 292, 293, 294, 295, 296, 297, 298, 299, 300, 301, 302, 303, 304, 305, 306, 307, 308, 309, 310, 311, 312, 313, 314, 315, 316, 317, 318, 319, 320, 321, 322, 323, 324, 325, 326, 327, 328, 329, 330, 331, 332, 333, 334, 335, 336, 337, 338, 339, 340, 341, 342, 343, 344, 345, 346, 347, 348, 349, 350, 351, 352, 353, 354, 355, 356, 357, 358, 359, 360, 361, 362, 363, 364, 365, 366, 367, 368, 369, 370, 371, 372, 373, 374, 375, 376, 377, 378, 379, 380, 381, 382, 383, 384, 385, 386, 387, 388, 389, 390, 391, 392, 393, 394, 395, 396, 397, 398, 399, 400, 401, 402, 403, 404, 405, 406, 407, 408, 409, 410, 411, 412, 413, 414, 415, 416, 417, 418, 419, 420, 421, 422, 423, 424, 425, 426, 427, 428, 429, 430, 431, 432, 433, 434, 435, 436, 437, 438, 439, 440, 441, 442, 443, 444, 445, 446, 447, 448, 449, 450, 451, 452, 453, 454, 455, 456, 457, 458, 459, 460, 461, 462, 463, 464, 465, 466, 467, 468, 469],
      "AcquisitionTime": ["133559.837500", "133600.837500", "133601.837500", "133602.837500", "133603.837500", "133604.837500", "133605.837500", "133606.837500", "133607.837500", "133608.837500", "133609.837500", "133610.837500", "133611.837500", "133612.837500", "133613.837500", "133614.837500", "133615.837500", "133616.837500", "133617.837500", "133618.837500", "133619.837500", "133620.837500", "133621.837500", "133622.837500", "133623.837500", "133624.837500", "133625.837500", "133626.837500", "133627.837500", "133628.837500", "133629.837500", "133630.837500", "133631.837500", "133632.837500", "133633.837500", "133634.837500", "133635.837500", "133636.837500", "133637.837500", "133638.837500", "133639.837500", "133640.837500", "133641.837500", "133642.837500", "133643.837500", "133644.837500", "133645.837500", "133646.837500", "133647.837500", "133648.837500", "133649.837500", "133650.837500", "133651.837500", "133652.837500", "133653.837500", "133654.837500", "133655.837500", "133656.837500", "133657.837500", "133658.837500", "133659.837500", "133700.837500", "133701.837500", "133702.837500", "133703.837500", "133704.837500", "133705.837500", "133706.837500", "133707.837500", "133708.837500", "133709.837500", "133710.837500", "133711.837500", "133712.837500", "133713.837500", "133714.837500", "133715.837500", "133716.837500", "133717.837500", "133718.837500", "133719.837500", "133720.837500", "133721.837500", "133722.837500", "133723.837500", "133724.837500", "133725.837500", "133726.837500", "133727.837500", "133728.837500", "133729.837500", "133730.837500", "133731.837500", "133732.837500", "133733.837500", "133734.837500", "133735.837500", "133736.837500", "133737.837500", "133738.837500", "133739.837500", "133740.837500", "133741.837500", "133742.837500", "133743.837500", "133744.837500", "133745.837500", "133746.837500", "133747.837500", "133748.837500", "133749.837500", "133750.837500", "133751.837500", "133752.837500", "133753.837500", "133754.837500", "133755.837500", "133756.837500", "133757.837500", "133758.837500", "133759.837500", "133800.837500", "133801.837500", "133802.837500", "133803.837500", "133804.837500", "133805.837500", "133806.837500", "133807.837500", "133808.837500", "133809.837500", "133810.837500", "133811.837500", "133812.837500", "133813.837500", "133814.837500", "133815.837500", "133816.837500", "133817.837500", "133818.837500", "133819.837500", "133820.837500", "133821.837500", "133822.837500", "133823.837500", "133824.837500", "133825.837500", "133826.837500", "133827.837500", "133828.837500", "133829.837500", "133830.837500", "133831.837500", "133832.837500", "133833.837500", "133834.837500", "133835.837500", "133836.837500", "133837.837500", "133838.837500", "133839.837500", "133840.837500", "133841.837500", "133842.837500", "133843.837500", "133844.837500", "133845.837500", "133846.837500", "133847.837500", "133848.837500", "133849.837500", "133850.837500", "133851.837500", "133852.837500", "133853.837500", "133854.837500", "133855.837500", "133856.837500", "133857.837500", "133858.837500", "133859.837500", "133900.837500", "133901.837500", "133902.837500", "133903.837500", "133904.837500", "133905.837500", "133906.837500", "133907.837500", "133908.837500", "133909.837500", "133910.837500", "133911.837500", "133912.837500", "133913.837500", "133914.837500", "133915.837500", "133916.837500", "133917.837500", "133918.837500", "133919.837500", "133920.837500", "133921.837500", "133922.837500", "133923.837500", "133924.837500", "133925.837500", "133926.837500", "133927.837500", "133928.837500", "133929.837500", "133930.837500", "133931.837500", "133932.837500", "133933.837500", "133934.837500", "133935.837500", "133936.837500", "133937.837500", "133938.837500", "133939.837500", "133940.837500", "133941.837500", "133942.837500", "133943.837500", "133944.837500", "133945.837500", "133946.837500", "133947.837500", "133948.837500", "133949.837500", "133950.837500", "133951.837500", "133952.837500", "133953.837500", "133954.837500", "133955.837500", "133956.837500", "133957.837500", "133958.837500", "133959.837500", "134000.837500", "134001.837500", "134002.837500", "134003.837500", "134004.837500", "134005.837500", "134006.837500", "134007.837500", "134008.837500", "134009.837500", "134010.837500", "134011.837500", "134012.837500", "134013.837500", "134014.837500", "134015.837500", "134016.837500", "134017.837500", "134018.837500", "134019.837500", "134020.837500", "134021.837500", "134022.837500", "134023.837500", "134024.837500", "134025.837500", "134026.837500", "134027.837500", "134028.837500", "134029.837500", "134030.837500", "134031.837500", "134032.837500", "134033.837500", "134034.837500", "134035.837500", "134036.837500", "134037.837500", "134038.837500", "134039.837500", "134040.837500", "134041.837500", "134042.837500", "134043.837500", "134044.837500", "134045.837500", "134046.837500", "134047.837500", "134048.837500", "134049.837500", "134050.837500", "134051.837500", "134052.837500", "134053.837500", "134054.837500", "134055.837500", "134056.837500", "134057.837500", "134058.837500", "134059.837500", "134100.837500", "134101.837500", "134102.837500", "134103.837500", "134104.837500", "134105.837500", "134106.837500", "134107.837500", "134108.837500", "134109.837500", "134110.837500", "134111.837500", "134112.837500", "134113.837500", "134114.837500", "134115.837500", "134116.837500", "134117.837500", "134118.837500", "134119.837500", "134120.837500", "134121.837500", "134122.837500", "134123.837500", "134124.837500", "134125.837500", "134126.837500", "134127.837500", "134128.837500", "134129.837500", "134130.837500", "134131.837500", "134132.837500", "134133.837500", "134134.837500", "134135.837500", "134136.837500", "134137.837500", "134138.837500", "134139.837500", "134140.837500", "134141.837500", "134142.837500", "134143.837500", "134144.837500", "134145.837500", "134146.837500", "134147.837500", "134148.837500", "134149.837500", "134150.837500", "134151.837500", "134152.837500", "134153.837500", "134154.837500", "134155.837500", "134156.837500", "134157.837500", "134158.837500", "134159.837500", "134200.837500", "134201.837500", "134202.837500", "134203.837500", "134204.837500", "134205.837500", "134206.837500", "134207.837500", "134208.837500", "134209.837500", "134210.837500", "134211.837500", "134212.837500", "134213.837500", "134214.837500", "134215.837500", "134216.837500", "134217.837500", "134218.837500", "134219.837500", "134220.837500", "134221.837500", "134222.837500", "134223.837500", "134224.837500", "134225.837500", "134226.837500", "134227.837500", "134228.837500", "134229.837500", "134230.837500", "134231.837500", "134232.837500", "134233.837500", "134234.837500", "134235.837500", "134236.837500", "134237.837500", "134238.837500", "134239.837500", "134240.837500", "134241.837500", "134242.837500", "134243.837500", "134244.837500", "134245.837500", "134246.837500", "134247.837500", "134248.837500", "134249.837500", "134250.837500", "134251.837500", "134252.837500", "134253.837500", "134254.837500", "134255.837500", "134256.837500", "134257.837500", "134258.837500", "134259.837500", "134300.837500", "134301.837500", "134302.837500", "134303.837500", "134304.837500", "134305.837500", "134306.837500", "134307.837500", "134308.837500", "134309.837500", "134310.837500", "134311.837500", "134312.837500", "134313.837500", "134314.837500", "134315.837500", "134316.837500", "134317.837500", "134318.837500", "134319.837500", "134320.837500", "134321.837500", "134322.837500", "134323.837500", "134324.837500", "134325.837500", "134326.837500", "134327.837500", "134328.837500", "134329.837500", "134330.837500", "134331.837500", "134332.837500", "134333.837500", "134334.837500", "134335.837500", "134336.837500", "134337.837500", "134338.837500", "134339.837500", "134340.837500", "134341.837500", "134342.837500", "134343.837500", "134344.837500", "134345.837500", "134346.837500", "134347.837500"],
      "ContentTime": ["133639.945000", "133639.948000", "133639.950000", "133639.953000", "133639.956000", "133639.958000", "133639.961000", "133639.963000", "133639.966000", "133639.968000", "133639.971000", "133639.973000", "133639.976000", "133639.978000", "133639.981000", "133639.983000", "133639.986000", "133639.988000", "133639.991000", "133639.993000", "133639.996000", "133639.998000", "133640.002000", "133640.004000", "133640.015000", "133640.025000", "133640.028000", "133640.030000", "133640.033000", "133640.035000", "133640.038000", "133640.041000", "133640.043000", "133640.046000", "133640.048000", "133640.051000", "133640.053000", "133640.056000", "133640.058000", "133659.908000", "133659.911000", "133659.914000", "133659.916000", "133659.930000", "133659.932000", "133659.935000", "133659.937000", "133659.940000", "133659.942000", "133659.945000", "133659.947000", "133659.950000", "133659.952000", "133659.954000", "133659.957000", "133659.959000", "133659.962000", "133659.964000", "133659.966000", "133719.907000", "133719.910000", "133719.913000", "133719.915000", "133719.918000", "133719.920000", "133719.923000", "133719.925000", "133719.928000", "133719.931000", "133719.933000", "133719.936000", "133719.938000", "133719.941000", "133719.943000", "133719.946000", "133719.949000", "133719.951000", "133719.954000", "133719.956000", "133739.908000", "133739.911000", "133739.914000", "133739.917000", "133739.919000", "133739.922000", "133739.924000", "133739.927000", "133739.929000", "133739.932000", "133739.934000", "133739.937000", "133739.939000", "133739.942000", "133739.944000", "133739.946000", "133739.949000", "133739.951000", "133739.954000", "133739.956000", "133759.908000", "133759.911000", "133759.913000", "133759.916000", "133759.918000", "133759.921000", "133759.923000", "133759.926000", "133759.928000", "133759.930000", "133759.933000", "133759.935000", "133759.938000", "133759.940000", "133759.943000", "133759.945000", "133759.947000", "133759.950000", "133759.952000", "133759.955000", "133819.908000", "133819.911000", "133819.914000", "133819.916000", "133819.919000", "133819.921000", "133819.924000", "133819.934000", "133819.937000", "133819.939000", "133819.942000", "133819.944000", "133819.947000", "133819.949000", "133819.952000", "133819.954000", "133819.957000", "133819.959000", "133819.962000", "133819.964000", "133839.908000", "133839.911000", "133839.913000", "133839.916000", "133839.918000", "133839.921000", "133839.923000", "133839.926000", "133839.928000", "133839.931000", "133839.933000", "133839.936000", "133839.938000", "133839.940000", "133839.943000", "133839.945000", "133839.948000", "133839.950000", "133839.953000", "133839.962000", "133859.908000", "133859.911000", "133859.913000", "133859.916000", "133859.918000", "133859.921000", "133859.923000", "133859.926000", "133859.928000", "133859.931000", "133859.933000", "133859.936000", "133859.938000", "133859.941000", "133859.943000", "133859.946000", "133859.948000", "133859.951000", "133859.954000", "133859.956000", "133919.908000", "133919.959000", "133919.962000", "133919.964000", "133919.967000", "133919.969000", "133919.972000", "133919.974000", "133919.976000", "133919.979000", "133919.981000", "133919.984000", "133919.986000", "133919.989000", "133919.991000", "133919.994000", "133919.996000", "133920.000000", "133920.002000", "133920.005000", "133939.907000", "133939.910000", "133939.913000", "133939.915000", "133939.918000", "133939.920000", "133939.923000", "133939.925000", "133939.928000", "133939.930000", "133939.933000", "133939.935000", "133939.938000", "133939.940000", "133939.943000", "133939.945000", "133939.948000", "133939.951000", "133939.953000", "133939.956000", "133959.908000", "133959.911000", "133959.914000", "133959.916000", "133959.918000", "133959.921000", "133959.923000", "133959.926000", "133959.928000", "133959.931000", "133959.934000", "133959.936000", "133959.938000", "133959.941000", "133959.943000", "133959.946000", "133959.948000", "133959.951000", "133959.958000", "133959.960000", "134019.908000", "134019.911000", "134019.914000", "134019.916000", "134019.919000", "134019.922000", "134019.924000", "134019.927000", "134019.930000", "134019.932000", "134019.935000", "134019.937000", "134019.940000", "134019.942000", "134019.945000", "134019.947000", "134019.949000", "134019.952000", "134019.954000", "134019.957000", "134039.908000", "134039.911000", "134039.914000", "134039.916000", "134039.919000", "134039.921000", "134039.924000", "134039.926000", "134039.929000", "134039.931000", "134039.942000", "134039.945000", "134039.947000", "134039.950000", "134039.952000", "134039.955000", "134039.957000", "134039.960000", "134039.962000", "134039.965000", "134059.908000", "134059.911000", "134059.914000", "134059.916000", "134059.919000", "134059.921000", "134059.924000", "134059.926000", "134059.929000", "134059.932000", "134059.934000", "134059.937000", "134059.939000", "134059.942000", "134059.953000", "134059.955000", "134059.970000", "134059.973000", "134059.976000", "134059.978000", "134119.909000", "134119.911000", "134119.914000", "134119.917000", "134119.929000", "134119.931000", "134119.934000", "134119.936000", "134119.938000", "134119.941000", "134119.943000", "134119.946000", "134119.948000", "134119.951000", "134119.953000", "134119.956000", "134119.958000", "134119.961000", "134119.963000", "134119.966000", "134139.908000", "134139.982000", "134139.984000", "134139.987000", "134139.989000", "134139.992000", "134139.994000", "134139.997000", "134139.999000", "134140.001000", "134140.004000", "134140.006000", "134140.009000", "134140.011000", "134140.014000", "134140.016000", "134140.019000", "134140.021000", "134140.024000", "134140.026000", "134159.907000", "134159.910000", "134159.913000", "134159.915000", "134159.918000", "134159.920000", "134159.923000", "134159.926000", "134159.928000", "134159.930000", "134159.933000", "134159.936000", "134159.938000", "134159.941000", "134159.943000", "134159.946000", "134159.948000", "134159.951000", "134159.953000", "134159.956000", "134219.908000", "134219.911000", "134219.914000", "134219.917000", "134219.919000", "134219.922000", "134219.924000", "134219.927000", "134219.929000", "134219.932000", "134219.934000", "134219.937000", "134219.939000", "134219.942000", "134219.944000", "134219.947000", "134219.957000", "134219.959000", "134219.962000", "134219.965000", "134239.909000", "134239.911000", "134239.914000", "134239.917000", "134239.919000", "134239.922000", "134239.924000", "134239.927000", "134239.929000", "134239.932000", "134239.935000", "134239.937000", "134239.940000", "134239.942000", "134239.945000", "134239.953000", "134239.956000", "134239.958000", "134239.961000", "134239.963000", "134259.908000", "134259.911000", "134259.913000", "134259.916000", "134259.918000", "134259.921000", "134259.923000", "134259.926000", "134259.928000", "134259.931000", "134259.933000", "134259.936000", "134259.938000", "134259.941000", "134259.944000", "134259.947000", "134259.949000", "134259.951000", "134259.954000", "134259.956000", "134319.908000", "134319.911000", "134319.914000", "134319.916000", "134319.925000", "134319.928000", "134319.931000", "134319.933000", "134319.936000", "134319.938000", "134319.941000", "134319.944000", "134319.947000", "134319.949000", "134319.952000", "134319.954000", "134319.957000", "134319.960000", "134319.962000", "134319.965000", "134339.909000", "134339.911000", "134339.921000", "134339.923000", "134339.926000", "134339.928000", "134339.931000", "134339.933000", "134339.936000", "134339.938000", "134339.941000", "134339.943000", "134339.946000", "134339.948000", "134339.965000", "134339.968000", "134339.970000", "134339.973000", "134339.975000", "134339.978000", "134349.579000", "134349.582000", "134349.585000", "134349.588000", "134349.590000", "134349.593000", "134349.595000", "134349.598000", "134349.601000", "134349.603000"],
