{
  "AcquisitionMatrixPE": 106,
  "AcquisitionNumber": 1,
  "AcquisitionTime": "13:57:18.427500",
  "BandwidthPerPixelPhaseEncode": 16.846,
  "BaseResolution": 106,
  "BodyPartExamined": "BRAIN",
  "CoilCombinationMethod": "Sum of Squares",
  "ConsistencyInfo": "N4_VE11C_LATEST_20160120",
  "ConversionSoftware": "dcm2niix",
  "ConversionSoftwareVersion": "v1.0.20220720",
  "DerivedVendorReportedEchoSpacing": 0.000560012,
  "DeviceSerialNumber": "166108",
  "DwellTime": 1.8e-06,
  "EchoTime": 0.0352,
  "EchoTrainLength": 106,
  "EffectiveEchoSpacing": 0.000560012,
  "FlipAngle": 60,
  "HeudiconvVersion": "1.3.0",
  "ImageComments": "Unaliased MB4/PE3/LB",
  "ImageOrientationPatientDICOM": [1, 0, 0, 0, 1, 0],
  "ImageOrientationText": "Tra",
  "ImageType": [
    "ORIGINAL",
    "PRIMARY",
    "M",
    "MB",
    "ND",
    "MOSAIC"
],
  "ImagingFrequency": 123.244,
  "InPlanePhaseEncodingDirectionDICOM": "COL",
  "InstitutionAddress": "Bedford Way 26,London,London,GB,WC1H 0AP",
  "InstitutionName": "University College",
  "InstitutionalDepartmentName": "Department",
  "MRAcquisitionType": "2D",
  "MagneticFieldStrength": 3,
  "Manufacturer": "Siemens",
  "ManufacturersModelName": "Prisma",
  "MatrixCoilMode": "SENSE",
  "Modality": "MR",
  "MultibandAccelerationFactor": 4,
  "NonlinearGradientCorrection": false,
  "PartialFourier": 1,
  "PatientPosition": "HFS",
  "PercentPhaseFOV": 100,
  "PercentSampling": 100,
  "PhaseEncodingDirection": "j-",
  "PhaseEncodingSteps": 106,
  "PhaseResolution": 1,
  "PixelBandwidth": 2620,
  "ProcedureStepDescription": "Egor^MovieProject2",
  "ProtocolName": "task-backtothefuture_run-1",
  "PulseSequenceDetails": "%CustomerSeq%\\cmrr_mbep2d_bold",
  "ReceiveCoilActiveElements": "HEA;HEP",
  "ReceiveCoilName": "Head_32",
  "ReconMatrixPE": 106,
  "RepetitionTime": 1.5,
  "SAR": 0.0768209,
  "ScanOptions": "FS\\EXT",
  "ScanningSequence": "EP",
  "SequenceName": "epfid2d1_106",
  "SequenceVariant": "SK\\SS",
  "SeriesDescription": "task-backtothefuture_run-1",
  "SeriesNumber": 3,
  "ShimSetting": [-1533, 673, 7369, 23, -91, 307, 129, -38],
  "SliceThickness": 2,
  "SliceTiming": [0, 1.07, 0.6575, 0.2475, 1.315, 0.905, 0.4925, 0.0825, 1.15, 0.74, 0.33, 1.3975, 0.9875, 0.575, 0.165, 1.2325, 0.8225, 0.41, 0, 1.07, 0.6575, 0.2475, 1.315, 0.905, 0.4925, 0.0825, 1.15, 0.74, 0.33, 1.3975, 0.9875, 0.575, 0.165, 1.2325, 0.8225, 0.41, 0, 1.07, 0.6575, 0.2475, 1.315, 0.905, 0.4925, 0.0825, 1.15, 0.74, 0.33, 1.3975, 0.9875, 0.575, 0.165, 1.2325, 0.8225, 0.41, 0, 1.07, 0.6575, 0.2475, 1.315, 0.905, 0.4925, 0.0825, 1.15, 0.74, 0.33, 1.3975, 0.9875, 0.575, 0.165, 1.2325, 0.8225, 0.41],
  "SoftwareVersions": "syngo MR E11",
  "SpacingBetweenSlices": 2,
  "StationName": "AWP166108",
  "TaskName": "backtothefuture",
  "TotalReadoutTime": 0.0588013,
  "TxRefAmp": 242.85,
  "WipMemBlock": "5e6e5d9d-92f9-4685-8d65-9a7a3cf5113c||Sequence: R016 ve11c/master r/e634e98; Dec 19 2017 11:00:25 by eja",
  "dcmmeta_affine": [
    [-2.0, 0.0, 0.0, 106.0],
    [0.0, 2.0, 0.0, -93.759033203125],
    [0.0, 0.0, 2.0, -63.77108383178711],
    [0.0, 0.0, 0.0, 1.0]
],
  "dcmmeta_reorient_transform": [
    [0.0, -1.0, 0.0, 105.0],
    [1.0, 0.0, 0.0, 0.0],
    [0.0, 0.0, 1.0, 0.0],
    [0.0, 0.0, 0.0, 1.0]
],
  "dcmmeta_shape": [106, 106, 72, 1360],
  "dcmmeta_slice_dim": 2,
  "dcmmeta_version": 0.6,
  "global": {
    "const": {
      "AcquisitionMatrix": [106, 0, 0, 106],
      "AngioFlag": "N",
      "BitsAllocated": 16,
      "BitsStored": 16,
      "BodyPartExamined": "BRAIN",
      "CardiacNumberOfImages": 1,
      "Columns": 954,
      "EchoNumbers": 1,
      "EchoTime": 35.2,
      "EchoTrainLength": 106,
      "FlipAngle": 60.0,
      "HighBit": 15,
      "ImageOrientationPatient": [1.0, 0.0, 0.0, 0.0, 1.0, 0.0],
      "ImagePositionPatient": [-954.0, -964.24096393585, -63.771083831787],
      "ImageType": [
        "ORIGINAL",
        "PRIMARY",
        "M",
        "MB",
        "ND",
        "MOSAIC"
],
      "ImagedNucleus": "1H",
      "ImagingFrequency": 123.24364,
      "InPlanePhaseEncodingDirection": "COL",
      "MRAcquisitionType": "2D",
      "MagneticFieldStrength": 3.0,
      "Manufacturer": "SIEMENS",
      "ManufacturerModelName": "Prisma",
      "Modality": "MR",
      "NominalInterval": 0,
      "NumberOfAverages": 1.0,
      "NumberOfPhaseEncodingSteps": 106,
      "PercentPhaseFieldOfView": 100.0,
      "PercentSampling": 100.0,
      "PerformedProcedureStepStartTime": "132905.661000",
      "PhotometricInterpretation": "MONOCHROME2",
      "PixelBandwidth": 2620.0,
      "PixelRepresentation": 0,
      "PixelSpacing": [2.0, 2.0],
      "ProtocolName": "task-backtothefuture_run-1",
      "RepetitionTime": 1500.0,
      "Rows": 954,
      "SAR": 0.0768209316625,
      "SamplesPerPixel": 1,
      "ScanOptions": [
        "FS",
        "EXT"
],
      "ScanningSequence": "EP",
      "SequenceName": "epfid2d1_106",
      "SequenceVariant": [
        "SK",
        "SS"
],
      "SeriesDescription": "task-backtothefuture_run-1",
      "SeriesNumber": 3,
      "SeriesTime": "135811.992000",
      "SliceLocation": -63.771083831787,
      "SliceThickness": 2.0,
      "SmallestImagePixelValue": 0,
      "SoftwareVersions": "syngo MR E11",
      "SpacingBetweenSlices": 1.9999999462719,
      "SpecificCharacterSet": "ISO_IR 100",
      "StudyID": "1",
      "StudyTime": "132905.185000",
      "TransmitCoilName": "Body",
      "VariableFlipAngleFlag": "N",
      "WindowCenterWidthExplanation": "Algo1",
      "dBdt": 0.0},
    "slices": {}
  },
  "time": {
    "samples": {
      "AcquisitionNumber": [1, 2, 3, 4, 5, 6, 7, 8, 9, 10, 11, 12, 13, 14, 15, 16, 17, 18, 19, 20, 21, 22, 23, 24, 25, 26, 27, 28, 29, 30, 31, 32, 33, 34, 35, 36, 37, 38, 39, 40, 41, 42, 43, 44, 45, 46, 47, 48, 49, 50, 51, 52, 53, 54, 55, 56, 57, 58, 59, 60, 61, 62, 63, 64, 65, 66, 67, 68, 69, 70, 71, 72, 73, 74, 75, 76, 77, 78, 79, 80, 81, 82, 83, 84, 85, 86, 87, 88, 89, 90, 91, 92, 93, 94, 95, 96, 97, 98, 99, 100, 101, 102, 103, 104, 105, 106, 107, 108, 109, 110, 111, 112, 113, 114, 115, 116, 117, 118, 119, 120, 121, 122, 123, 124, 125, 126, 127, 128, 129, 130, 131, 132, 133, 134, 135, 136, 137, 138, 139, 140, 141, 142, 143, 144, 145, 146, 147, 148, 149, 150, 151, 152, 153, 154, 155, 156, 157, 158, 159, 160, 161, 162, 163, 164, 165, 166, 167, 168, 169, 170, 171, 172, 173, 174, 175, 176, 177, 178, 179, 180, 181, 182, 183, 184, 185, 186, 187, 188, 189, 190, 191, 192, 193, 194, 195, 196, 197, 198, 199, 200, 201, 202, 203, 204, 205, 206, 207, 208, 209, 210, 211, 212, 213, 214, 215, 216, 217, 218, 219, 220, 221, 222, 223, 224, 225, 226, 227, 228, 229, 230, 231, 232, 233, 234, 235, 236, 237, 238, 239, 240, 241, 242, 243, 244, 245, 246, 247, 248, 249, 250, 251, 252, 253, 254, 255, 256, 257, 258, 259, 260, 261, 262, 263, 264, 265, 266, 267, 268, 269, 270, 271, 272, 273, 274, 275, 276, 277, 278, 279, 280, 281, 282, 283, 284, 285, 286, 287, 288, 289, 290, 291, 292, 293, 294, 295, 296, 297, 298, 299, 300, 301, 302, 303, 304, 305, 306, 307, 308, 309, 310, 311, 312, 313, 314, 315, 316, 317, 318, 319, 320, 321, 322, 323, 324, 325, 326, 327, 328, 329, 330, 331, 332, 333, 334, 335, 336, 337, 338, 339, 340, 341, 342, 343, 344, 345, 346, 347, 348, 349, 350, 351, 352, 353, 354, 355, 356, 357, 358, 359, 360, 361, 362, 363, 364, 365, 366, 367, 368, 369, 370, 371, 372, 373, 374, 375, 376, 377, 378, 379, 380, 381, 382, 383, 384, 385, 386, 387, 388, 389, 390, 391, 392, 393, 394, 395, 396, 397, 398, 399, 400, 401, 402, 403, 404, 405, 406, 407, 408, 409, 410, 411, 412, 413, 414, 415, 416, 417, 418, 419, 420, 421, 422, 423, 424, 425, 426, 427, 428, 429, 430, 431, 432, 433, 434, 435, 436, 437, 438, 439, 440, 441, 442, 443, 444, 445, 446, 447, 448, 449, 450, 451, 452, 453, 454, 455, 456, 457, 458, 459, 460, 461, 462, 463, 464, 465, 466, 467, 468, 469, 470, 471, 472, 473, 474, 475, 476, 477, 478, 479, 480, 481, 482, 483, 484, 485, 486, 487, 488, 489, 490, 491, 492, 493, 494, 495, 496, 497, 498, 499, 500, 501, 502, 503, 504, 505, 506, 507, 508, 509, 510, 511, 512, 513, 514, 515, 516, 517, 518, 519, 520, 521, 522, 523, 524, 525, 526, 527, 528, 529, 530, 531, 532, 533, 534, 535, 536, 537, 538, 539, 540, 541, 542, 543, 544, 545, 546, 547, 548, 549, 550, 551, 552, 553, 554, 555, 556, 557, 558, 559, 560, 561, 562, 563, 564, 565, 566, 567, 568, 569, 570, 571, 572, 573, 574, 575, 576, 577, 578, 579, 580, 581, 582, 583, 584, 585, 586, 587, 588, 589, 590, 591, 592, 593, 594, 595, 596, 597, 598, 599, 600, 601, 602, 603, 604, 605, 606, 607, 608, 609, 610, 611, 612, 613, 614, 615, 616, 617, 618, 619, 620, 621, 622, 623, 624, 625, 626, 627, 628, 629, 630, 631, 632, 633, 634, 635, 636, 637, 638, 639, 640, 641, 642, 643, 644, 645, 646, 647, 648, 649, 650, 651, 652, 653, 654, 655, 656, 657, 658, 659, 660, 661, 662, 663, 664, 665, 666, 667, 668, 669, 670, 671, 672, 673, 674, 675, 676, 677, 678, 679, 680, 681, 682, 683, 684, 685, 686, 687, 688, 689, 690, 691, 692, 693, 694, 695, 696, 697, 698, 699, 700, 701, 702, 703, 704, 705, 706, 707, 708, 709, 710, 711, 712, 713, 714, 715, 716, 717, 718, 719, 720, 721, 722, 723, 724, 725, 726, 727, 728, 729, 730, 731, 732, 733, 734, 735, 736, 737, 738, 739, 740, 741, 742, 743, 744, 745, 746, 747, 748, 749, 750, 751, 752, 753, 754, 755, 756, 757, 758, 759, 760, 761, 762, 763, 764, 765, 766, 767, 768, 769, 770, 771, 772, 773, 774, 775, 776, 777, 778, 779, 780, 781, 782, 783, 784, 785, 786, 787, 788, 789, 790, 791, 792, 793, 794, 795, 796, 797, 798, 799, 800, 801, 802, 803, 804, 805, 806, 807, 808, 809, 810, 811, 812, 813, 814, 815, 816, 817, 818, 819, 820, 821, 822, 823, 824, 825, 826, 827, 828, 829, 830, 831, 832, 833, 834, 835, 836, 837, 838, 839, 840, 841, 842, 843, 844, 845, 846, 847, 848, 849, 850, 851, 852, 853, 854, 855, 856, 857, 858, 859, 860, 861, 862, 863, 864, 865, 866, 867, 868, 869, 870, 871, 872, 873, 874, 875, 876, 877, 878, 879, 880, 881, 882, 883, 884, 885, 886, 887, 888, 889, 890, 891, 892, 893, 894, 895, 896, 897, 898, 899, 900, 901, 902, 903, 904, 905, 906, 907, 908, 909, 910, 911, 912, 913, 914, 915, 916, 917, 918, 919, 920, 921, 922, 923, 924, 925, 926, 927, 928, 929, 930, 931, 932, 933, 934, 935, 936, 937, 938, 939, 940, 941, 942, 943, 944, 945, 946, 947, 948, 949, 950, 951, 952, 953, 954, 955, 956, 957, 958, 959, 960, 961, 962, 963, 964, 965, 966, 967, 968, 969, 970, 971, 972, 973, 974, 975, 976, 977, 978, 979, 980, 981, 982, 983, 984, 985, 986, 987, 988, 989, 990, 991, 992, 993, 994, 995, 996, 997, 998, 999, 1000, 1001, 1002, 1003, 1004, 1005, 1006, 1007, 1008, 1009, 1010, 1011, 1012, 1013, 1014, 1015, 1016, 1017, 1018, 1019, 1020, 1021, 1022, 1023, 1024, 1025, 1026, 1027, 1028, 1029, 1030, 1031, 1032, 1033, 1034, 1035, 1036, 1037, 1038, 1039, 1040, 1041, 1042, 1043, 1044, 1045, 1046, 1047, 1048, 1049, 1050, 1051, 1052, 1053, 1054, 1055, 1056, 1057, 1058, 1059, 1060, 1061, 1062, 1063, 1064, 1065, 1066, 1067, 1068, 1069, 1070, 1071, 1072, 1073, 1074, 1075, 1076, 1077, 1078, 1079, 1080, 1081, 1082, 1083, 1084, 1085, 1086, 1087, 1088, 1089, 1090, 1091, 1092, 1093, 1094, 1095, 1096, 1097, 1098, 1099, 1100, 1101, 1102, 1103, 1104, 1105, 1106, 1107, 1108, 1109, 1110, 1111, 1112, 1113, 1114, 1115, 1116, 1117, 1118, 1119, 1120, 1121, 1122, 1123, 1124, 1125, 1126, 1127, 1128, 1129, 1130, 1131, 1132, 1133, 1134, 1135, 1136, 1137, 1138, 1139, 1140, 1141, 1142, 1143, 1144, 1145, 1146, 1147, 1148, 1149, 1150, 1151, 1152, 1153, 1154, 1155, 1156, 1157, 1158, 1159, 1160, 1161, 1162, 1163, 1164, 1165, 1166, 1167, 1168, 1169, 1170, 1171, 1172, 1173, 1174, 1175, 1176, 1177, 1178, 1179, 1180, 1181, 1182, 1183, 1184, 1185, 1186, 1187, 1188, 1189, 1190, 1191, 1192, 1193, 1194, 1195, 1196, 1197, 1198, 1199, 1200, 1201, 1202, 1203, 1204, 1205, 1206, 1207, 1208, 1209, 1210, 1211, 1212, 1213, 1214, 1215, 1216, 1217, 1218, 1219, 1220, 1221, 1222, 1223, 1224, 1225, 1226, 1227, 1228, 1229, 1230, 1231, 1232, 1233, 1234, 1235, 1236, 1237, 1238, 1239, 1240, 1241, 1242, 1243, 1244, 1245, 1246, 1247, 1248, 1249, 1250, 1251, 1252, 1253, 1254, 1255, 1256, 1257, 1258, 1259, 1260, 1261, 1262, 1263, 1264, 1265, 1266, 1267, 1268, 1269, 1270, 1271, 1272, 1273, 1274, 1275, 1276, 1277, 1278, 1279, 1280, 1281, 1282, 1283, 1284, 1285, 1286, 1287, 1288, 1289, 1290, 1291, 1292, 1293, 1294, 1295, 1296, 1297, 1298, 1299, 1300, 1301, 1302, 1303, 1304, 1305, 1306, 1307, 1308, 1309, 1310, 1311, 1312, 1313, 1314, 1315, 1316, 1317, 1318, 1319, 1320, 1321, 1322, 1323, 1324, 1325, 1326, 1327, 1328, 1329, 1330, 1331, 1332, 1333, 1334, 1335, 1336, 1337, 1338, 1339, 1340, 1341, 1342, 1343, 1344, 1345, 1346, 1347, 1348, 1349, 1350, 1351, 1352, 1353, 1354, 1355, 1356, 1357, 1358, 1359, 1360],
      "AcquisitionTime": ["135718.427500", "135719.927500", "135721.427500", "135722.927500", "135724.427500", "135725.927500", "135727.427500", "135728.927500", "135730.427500", "135731.927500", "135733.427500", "135734.927500", "135736.427500", "135737.927500", "135739.427500", "135740.927500", "135742.427500", "135743.927500", "135745.427500", "135746.927500", "135748.427500", "135749.927500", "135751.427500", "135752.927500", "135754.427500", "135755.927500", "135757.427500", "135758.927500", "135800.427500", "135801.927500", "135803.427500", "135804.927500", "135806.427500", "135807.927500", "135809.427500", "135810.927500", "135812.427500", "135813.927500", "135815.427500", "135816.927500", "135818.427500", "135819.927500", "135821.427500", "135822.927500", "135824.427500", "135825.927500", "135827.427500", "135828.927500", "135830.427500", "135831.927500", "135833.427500", "135834.927500", "135836.427500", "135837.927500", "135839.427500", "135840.927500", "135842.427500", "135843.927500", "135845.427500", "135846.927500", "135848.427500", "135849.927500", "135851.427500", "135852.927500", "135854.427500", "135855.927500", "135857.427500", "135858.927500", "135900.427500", "135901.927500", "135903.427500", "135904.927500", "135906.427500", "135907.927500", "135909.427500", "135910.927500", "135912.427500", "135913.927500", "135915.427500", "135916.927500", "135918.427500", "135919.927500", "135921.427500", "135922.927500", "135924.427500", "135925.927500", "135927.427500", "135928.927500", "135930.427500", "135931.927500", "135933.427500", "135934.927500", "135936.427500", "135937.927500", "135939.427500", "135940.927500", "135942.427500", "135943.927500", "135945.427500", "135946.927500", "135948.427500", "135949.927500", "135951.427500", "135952.927500", "135954.427500", "135955.927500", "135957.427500", "135958.927500", "140000.427500", "140001.927500", "140003.427500", "140004.927500", "140006.427500", "140007.927500", "140009.427500", "140010.927500", "140012.427500", "140013.927500", "140015.427500", "140016.927500", "140018.427500", "140019.927500", "140021.427500", "140022.927500", "140024.427500", "140025.927500", "140027.427500", "140028.927500", "140030.427500", "140031.927500", "140033.427500", "140034.927500", "140036.427500", "140037.927500", "140039.427500", "140040.927500", "140042.427500", "140043.927500", "140045.427500", "140046.927500", "140048.427500", "140049.927500", "140051.427500", "140052.927500", "140054.427500", "140055.927500", "140057.427500", "140058.927500", "140100.427500", "140101.927500", "140103.427500", "140104.927500", "140106.427500", "140107.927500", "140109.427500", "140110.927500", "140112.427500", "140113.927500", "140115.427500", "140116.927500", "140118.427500", "140119.927500", "140121.427500", "140122.927500", "140124.427500", "140125.927500", "140127.427500", "140128.927500", "140130.427500", "140131.927500", "140133.427500", "140134.927500", "140136.427500", "140137.927500", "140139.427500", "140140.927500", "140142.427500", "140143.927500", "140145.427500", "140146.927500", "140148.427500", "140149.927500", "140151.427500", "140152.927500", "140154.427500", "140155.927500", "140157.427500", "140158.927500", "140200.427500", "140201.927500", "140203.427500", "140204.927500", "140206.427500", "140207.927500", "140209.427500", "140210.927500", "140212.427500", "140213.927500", "140215.427500", "140216.927500", "140218.427500", "140219.927500", "140221.427500", "140222.927500", "140224.427500", "140225.927500", "140227.427500", "140228.927500", "140230.427500", "140231.927500", "140233.427500", "140234.927500", "140236.427500", "140237.927500", "140239.427500", "140240.927500", "140242.427500", "140243.927500", "140245.427500", "140246.927500", "140248.427500", "140249.927500", "140251.427500", "140252.927500", "140254.427500", "140255.927500", "140257.427500", "140258.927500", "140300.427500", "140301.927500", "140303.427500", "140304.927500", "140306.427500", "140307.927500", "140309.427500", "140310.927500", "140312.427500", "140313.927500", "140315.427500", "140316.927500", "140318.427500", "140319.927500", "140321.427500", "140322.927500", "140324.427500", "140325.927500", "140327.427500", "140328.927500", "140330.427500", "140331.927500", "140333.427500", "140334.927500", "140336.427500", "140337.927500", "140339.427500", "140340.927500", "140342.427500", "140343.927500", "140345.427500", "140346.927500", "140348.427500", "140349.927500", "140351.427500", "140352.927500", "140354.427500", "140355.927500", "140357.427500", "140358.927500", "140400.427500", "140401.927500", "140403.427500", "140404.927500", "140406.427500", "140407.927500", "140409.427500", "140410.927500", "140412.427500", "140413.927500", "140415.427500", "140416.927500", "140418.427500", "140419.927500", "140421.427500", "140422.927500", "140424.427500", "140425.927500", "140427.427500", "140428.927500", "140430.427500", "140431.927500", "140433.427500", "140434.927500", "140436.427500", "140437.927500", "140439.427500", "140440.927500", "140442.427500", "140443.927500", "140445.427500", "140446.927500", "140448.427500", "140449.927500", "140451.427500", "140452.927500", "140454.427500", "140455.927500", "140457.427500", "140458.927500", "140500.427500", "140501.927500", "140503.427500", "140504.927500", "140506.427500", "140507.927500", "140509.427500", "140510.927500", "140512.427500", "140513.927500", "140515.427500", "140516.927500", "140518.427500", "140519.927500", "140521.427500", "140522.927500", "140524.427500", "140525.927500", "140527.427500", "140528.927500", "140530.427500", "140531.927500", "140533.427500", "140534.927500", "140536.427500", "140537.927500", "140539.427500", "140540.927500", "140542.427500", "140543.927500", "140545.427500", "140546.927500", "140548.427500", "140549.927500", "140551.427500", "140552.927500", "140554.427500", "140555.927500", "140557.427500", "140558.927500", "140600.427500", "140601.927500", "140603.427500", "140604.927500", "140606.427500", "140607.927500", "140609.427500", "140610.927500", "140612.427500", "140613.927500", "140615.427500", "140616.927500", "140618.427500", "140619.927500", "140621.427500", "140622.927500", "140624.427500", "140625.927500", "140627.427500", "140628.927500", "140630.427500", "140631.927500", "140633.427500", "140634.927500", "140636.427500", "140637.927500", "140639.427500", "140640.927500", "140642.427500", "140643.927500", "140645.427500", "140646.927500", "140648.427500", "140649.927500", "140651.427500", "140652.927500", "140654.427500", "140655.927500", "140657.427500", "140658.927500", "140700.427500", "140701.927500", "140703.427500", "140704.927500", "140706.427500", "140707.927500", "140709.427500", "140710.927500", "140712.427500", "140713.927500", "140715.427500", "140716.927500", "140718.427500", "140719.927500", "140721.427500", "140722.927500", "140724.427500", "140725.927500", "140727.427500", "140728.927500", "140730.427500", "140731.927500", "140733.427500", "140734.927500", "140736.427500", "140737.927500", "140739.427500", "140740.927500", "140742.427500", "140743.927500", "140745.427500", "140746.927500", "140748.427500", "140749.927500", "140751.427500", "140752.927500", "140754.427500", "140755.927500", "140757.427500", "140758.927500", "140800.427500", "140801.927500", "140803.427500", "140804.927500", "140806.427500", "140807.927500", "140809.427500", "140810.927500", "140812.427500", "140813.927500", "140815.427500", "140816.927500", "140818.427500", "140819.927500", "140821.427500", "140822.927500", "140824.427500", "140825.927500", "140827.427500", "140828.927500", "140830.427500", "140831.927500", "140833.427500", "140834.927500", "140836.427500", "140837.927500", "140839.427500", "140840.927500", "140842.427500", "140843.927500", "140845.427500", "140846.927500", "140848.427500", "140849.927500", "140851.427500", "140852.927500", "140854.427500", "140855.927500", "140857.427500", "140858.927500", "140900.427500", "140901.927500", "140903.427500", "140904.927500", "140906.427500", "140907.927500", "140909.427500", "140910.927500", "140912.427500", "140913.927500", "140915.427500", "140916.927500", "140918.427500", "140919.927500", "140921.427500", "140922.927500", "140924.427500", "140925.927500", "140927.427500", "140928.927500", "140930.427500", "140931.927500", "140933.427500", "140934.927500", "140936.427500", "140937.927500", "140939.427500", "140940.927500", "140942.427500", "140943.927500", "140945.427500", "140946.927500", "140948.427500", "140949.927500", "140951.427500", "140952.927500", "140954.427500", "140955.927500", "140957.427500", "140958.927500", "141000.427500", "141001.927500", "141003.427500", "141004.927500", "141006.427500", "141007.927500", "141009.427500", "141010.927500", "141012.427500", "141013.927500", "141015.427500", "141016.927500", "141018.427500", "141019.927500", "141021.427500", "141022.927500", "141024.427500", "141025.927500", "141027.427500", "141028.927500", "141030.427500", "141031.927500", "141033.427500", "141034.927500", "141036.427500", "141037.927500", "141039.427500", "141040.927500", "141042.427500", "141043.927500", "141045.427500", "141046.927500", "141048.427500", "141049.927500", "141051.427500", "141052.927500", "141054.427500", "141055.927500", "141057.427500", "141058.927500", "141100.427500", "141101.927500", "141103.427500", "141104.927500", "141106.427500", "141107.927500", "141109.427500", "141110.927500", "141112.427500", "141113.927500", "141115.427500", "141116.927500", "141118.427500", "141119.927500", "141121.427500", "141122.927500", "141124.427500", "141125.927500", "141127.427500", "141128.927500", "141130.427500", "141131.927500", "141133.427500", "141134.927500", "141136.427500", "141137.927500", "141139.427500", "141140.927500", "141142.427500", "141143.927500", "141145.427500", "141146.927500", "141148.427500", "141149.927500", "141151.427500", "141152.927500", "141154.427500", "141155.927500", "141157.427500", "141158.927500", "141200.427500", "141201.927500", "141203.427500", "141204.927500", "141206.427500", "141207.927500", "141209.427500", "141210.927500", "141212.427500", "141213.927500", "141215.427500", "141216.927500", "141218.427500", "141219.927500", "141221.427500", "141222.927500", "141224.427500", "141225.927500", "141227.427500", "141228.927500", "141230.427500", "141231.927500", "141233.427500", "141234.927500", "141236.427500", "141237.927500", "141239.427500", "141240.927500", "141242.427500", "141243.927500", "141245.427500", "141246.927500", "141248.427500", "141249.927500", "141251.427500", "141252.927500", "141254.427500", "141255.927500", "141257.427500", "141258.927500", "141300.427500", "141301.927500", "141303.427500", "141304.927500", "141306.427500", "141307.927500", "141309.427500", "141310.927500", "141312.427500", "141313.927500", "141315.427500", "141316.927500", "141318.427500", "141319.927500", "141321.427500", "141322.927500", "141324.427500", "141325.927500", "141327.427500", "141328.927500", "141330.427500", "141331.927500", "141333.427500", "141334.927500", "141336.427500", "141337.927500", "141339.427500", "141340.927500", "141342.427500", "141343.927500", "141345.427500", "141346.927500", "141348.427500", "141349.927500", "141351.427500", "141352.927500", "141354.427500", "141355.927500", "141357.427500", "141358.927500", "141400.427500", "141401.927500", "141403.427500", "141404.927500", "141406.427500", "141407.927500", "141409.427500", "141410.927500", "141412.427500", "141413.927500", "141415.427500", "141416.927500", "141418.427500", "141419.927500", "141421.427500", "141422.927500", "141424.427500", "141425.927500", "141427.427500", "141428.927500", "141430.427500", "141431.927500", "141433.427500", "141434.927500", "141436.427500", "141437.927500", "141439.427500", "141440.927500", "141442.427500", "141443.927500", "141445.427500", "141446.927500", "141448.427500", "141449.927500", "141451.427500", "141452.927500", "141454.427500", "141455.927500", "141457.427500", "141458.927500", "141500.427500", "141501.927500", "141503.427500", "141504.927500", "141506.427500", "141507.927500", "141509.427500", "141510.927500", "141512.427500", "141513.927500", "141515.427500", "141516.927500", "141518.427500", "141519.927500", "141521.427500", "141522.927500", "141524.427500", "141525.927500", "141527.427500", "141528.927500", "141530.427500", "141531.927500", "141533.427500", "141534.927500", "141536.427500", "141537.927500", "141539.427500", "141540.927500", "141542.427500", "141543.927500", "141545.427500", "141546.927500", "141548.427500", "141549.927500", "141551.427500", "141552.927500", "141554.427500", "141555.927500", "141557.427500", "141558.927500", "141600.427500", "141601.927500", "141603.427500", "141604.927500", "141606.427500", "141607.927500", "141609.427500", "141610.927500", "141612.427500", "141613.927500", "141615.427500", "141616.927500", "141618.427500", "141619.927500", "141621.427500", "141622.927500", "141624.427500", "141625.927500", "141627.427500", "141628.927500", "141630.427500", "141631.927500", "141633.427500", "141634.927500", "141636.427500", "141637.927500", "141639.427500", "141640.927500", "141642.427500", "141643.927500", "141645.427500", "141646.927500", "141648.427500", "141649.927500", "141651.427500", "141652.927500", "141654.427500", "141655.927500", "141657.427500", "141658.927500", "141700.427500", "141701.927500", "141703.427500", "141704.927500", "141706.427500", "141707.927500", "141709.427500", "141710.927500", "141712.427500", "141713.927500", "141715.427500", "141716.927500", "141718.427500", "141719.927500", "141721.427500", "141722.927500", "141724.427500", "141725.927500", "141727.427500", "141728.927500", "141730.427500", "141731.927500", "141733.427500", "141734.927500", "141736.427500", "141737.927500", "141739.427500", "141740.927500", "141742.427500", "141743.927500", "141745.427500", "141746.927500", "141748.427500", "141749.927500", "141751.427500", "141752.927500", "141754.427500", "141755.927500", "141757.427500", "141758.927500", "141800.427500", "141801.927500", "141803.427500", "141804.927500", "141806.427500", "141807.927500", "141809.427500", "141810.927500", "141812.427500", "141813.927500", "141815.427500", "141816.927500", "141818.427500", "141819.927500", "141821.427500", "141822.927500", "141824.427500", "141825.927500", "141827.427500", "141828.927500", "141830.427500", "141831.927500", "141833.427500", "141834.927500", "141836.427500", "141837.927500", "141839.427500", "141840.927500", "141842.427500", "141843.927500", "141845.427500", "141846.927500", "141848.427500", "141849.927500", "141851.427500", "141852.927500", "141854.427500", "141855.927500", "141857.427500", "141858.927500", "141900.427500", "141901.927500", "141903.427500", "141904.927500", "141906.427500", "141907.927500", "141909.427500", "141910.927500", "141912.427500", "141913.927500", "141915.427500", "141916.927500", "141918.427500", "141919.927500", "141921.427500", "141922.927500", "141924.427500", "141925.927500", "141927.427500", "141928.927500", "141930.427500", "141931.927500", "141933.427500", "141934.927500", "141936.427500", "141937.927500", "141939.427500", "141940.927500", "141942.427500", "141943.927500", "141945.427500", "141946.927500", "141948.427500", "141949.927500", "141951.427500", "141952.927500", "141954.427500", "141955.927500", "141957.427500", "141958.927500", "142000.427500", "142001.927500", "142003.427500", "142004.927500", "142006.427500", "142007.927500", "142009.427500", "142010.927500", "142012.427500", "142013.927500", "142015.427500", "142016.927500", "142018.427500", "142019.927500", "142021.427500", "142022.927500", "142024.427500", "142025.927500", "142027.427500", "142028.927500", "142030.427500", "142031.927500", "142033.427500", "142034.927500", "142036.427500", "142037.927500", "142039.427500", "142040.927500", "142042.427500", "142043.927500", "142045.427500", "142046.927500", "142048.427500", "142049.927500", "142051.427500", "142052.927500", "142054.427500", "142055.927500", "142057.427500", "142058.927500", "142100.427500", "142101.927500", "142103.427500", "142104.927500", "142106.427500", "142107.927500", "142109.427500", "142110.927500", "142112.427500", "142113.927500", "142115.427500", "142116.927500", "142118.427500", "142119.927500", "142121.427500", "142122.927500", "142124.427500", "142125.927500", "142127.427500", "142128.927500", "142130.427500", "142131.927500", "142133.427500", "142134.927500", "142136.427500", "142137.927500", "142139.427500", "142140.927500", "142142.427500", "142143.927500", "142145.427500", "142146.927500", "142148.427500", "142149.927500", "142151.427500", "142152.927500", "142154.427500", "142155.927500", "142157.427500", "142158.927500", "142200.427500", "142201.927500", "142203.427500", "142204.927500", "142206.427500", "142207.927500", "142209.427500", "142210.927500", "142212.427500", "142213.927500", "142215.427500", "142216.927500", "142218.427500", "142219.927500", "142221.427500", "142222.927500", "142224.427500", "142225.927500", "142227.427500", "142228.927500", "142230.427500", "142231.927500", "142233.427500", "142234.927500", "142236.427500", "142237.927500", "142239.427500", "142240.927500", "142242.427500", "142243.927500", "142