{
  "AcquisitionMatrixPE": 106,
  "AcquisitionNumber": 1,
  "AcquisitionTime": "15:39:55.322500",
  "BandwidthPerPixelPhaseEncode": 16.846,
  "BaseResolution": 106,
  "BodyPartExamined": "BRAIN",
  "CoilCombinationMethod": "Sum of Squares",
  "ConsistencyInfo": "N4_VE11C_LATEST_20160120",
  "ConversionSoftware": "dcm2niix",
  "ConversionSoftwareVersion": "v1.0.20220720",
  "DerivedVendorReportedEchoSpacing": 0.000560012,
  "DeviceSerialNumber": "166108",
  "DwellTime": 1.8e-06,
  "EchoTime": 0.0352,
  "EchoTrainLength": 106,
  "EffectiveEchoSpacing": 0.000560012,
  "FlipAngle": 60,
  "HeudiconvVersion": "1.3.0",
  "ImageComments": "Unaliased MB4/PE3/LB",
  "ImageOrientationPatientDICOM": [1, 0, 0, 0, 1, 0],
  "ImageOrientationText": "Tra",
  "ImageType": [
    "ORIGINAL",
    "PRIMARY",
    "M",
    "MB",
    "ND",
    "MOSAIC"
],
  "ImagingFrequency": 123.244,
  "InPlanePhaseEncodingDirectionDICOM": "COL",
  "InstitutionAddress": "Bedford Way 26,London,London,GB,WC1H 0AP",
  "InstitutionName": "University College",
  "InstitutionalDepartmentName": "Department",
  "MRAcquisitionType": "2D",
  "MagneticFieldStrength": 3,
  "Manufacturer": "Siemens",
  "ManufacturersModelName": "Prisma",
  "MatrixCoilMode": "SENSE",
  "Modality": "MR",
  "MultibandAccelerationFactor": 4,
  "NonlinearGradientCorrection": false,
  "PartialFourier": 1,
  "PatientPosition": "HFS",
  "PercentPhaseFOV": 100,
  "PercentSampling": 100,
  "PhaseEncodingDirection": "j-",
  "PhaseEncodingSteps": 106,
  "PhaseResolution": 1,
  "PixelBandwidth": 2620,
  "ProcedureStepDescription": "Egor^MovieProject2",
  "ProtocolName": "task-backtothefuture_run-2",
  "PulseSequenceDetails": "%CustomerSeq%\\cmrr_mbep2d_bold",
  "ReceiveCoilActiveElements": "HEA;HEP",
  "ReceiveCoilName": "Head_32",
  "ReconMatrixPE": 106,
  "RepetitionTime": 1.5,
  "SAR": 0.0844764,
  "ScanOptions": "FS\\EXT",
  "ScanningSequence": "EP",
  "SequenceName": "epfid2d1_106",
  "SequenceVariant": "SK\\SS",
  "SeriesDescription": "task-backtothefuture_run-2",
  "SeriesNumber": 7,
  "ShimSetting": [-1524, 684, 7355, 198, -45, 158, 129, -39],
  "SliceThickness": 2,
  "SliceTiming": [0, 1.0675, 0.6575, 0.245, 1.315, 0.9025, 0.4925, 0.0825, 1.15, 0.74, 0.3275, 1.3975, 0.985, 0.575, 0.1625, 1.2325, 0.8225, 0.41, 0, 1.0675, 0.6575, 0.245, 1.315, 0.9025, 0.4925, 0.0825, 1.15, 0.74, 0.3275, 1.3975, 0.985, 0.575, 0.1625, 1.2325, 0.8225, 0.41, 0, 1.0675, 0.6575, 0.245, 1.315, 0.9025, 0.4925, 0.0825, 1.15, 0.74, 0.3275, 1.3975, 0.985, 0.575, 0.1625, 1.2325, 0.8225, 0.41, 0, 1.0675, 0.6575, 0.245, 1.315, 0.9025, 0.4925, 0.0825, 1.15, 0.74, 0.3275, 1.3975, 0.985, 0.575, 0.1625, 1.2325, 0.8225, 0.41],
  "SoftwareVersions": "syngo MR E11",
  "SpacingBetweenSlices": 2,
  "StationName": "AWP166108",
  "TaskName": "backtothefuture",
  "TotalReadoutTime": 0.0588013,
  "TxRefAmp": 253.389,
  "WipMemBlock": "43222d0a-fcee-4634-b6fb-f981e5d9ee2b||Sequence: R016 ve11c/master r/e634e98; Dec 19 2017 11:00:25 by eja",
  "dcmmeta_affine": [
    [-2.0, 0.0, 0.0, 106.0],
    [0.0, 2.0, 0.0, -92.55421447753906],
    [0.0, 0.0, 2.0, -57.14457702636719],
    [0.0, 0.0, 0.0, 1.0]
],
  "dcmmeta_reorient_transform": [
    [0.0, -1.0, 0.0, 105.0],
    [1.0, 0.0, 0.0, 0.0],
    [0.0, 0.0, 1.0, 0.0],
    [0.0, 0.0, 0.0, 1.0]
],
  "dcmmeta_shape": [106, 106, 72, 1522],
  "dcmmeta_slice_dim": 2,
  "dcmmeta_version": 0.6,
  "global": {
    "const": {
      "AcquisitionMatrix": [106, 0, 0, 106],
      "AngioFlag": "N",
      "BitsAllocated": 16,
      "BitsStored": 16,
      "BodyPartExamined": "BRAIN",
      "CardiacNumberOfImages": 1,
      "Columns": 954,
      "EchoNumbers": 1,
      "EchoTime": 35.2,
      "EchoTrainLength": 106,
      "FlipAngle": 60.0,
      "HighBit": 15,
      "ImageOrientationPatient": [1.0, 0.0, 0.0, 0.0, 1.0, 0.0],
      "ImagePositionPatient": [-954.0, -965.44578266144, -57.144577026367],
      "ImageType": [
        "ORIGINAL",
        "PRIMARY",
        "M",
        "MB",
        "ND",
        "MOSAIC"
],
      "ImagedNucleus": "1H",
      "ImagingFrequency": 123.24369,
      "InPlanePhaseEncodingDirection": "COL",
      "MRAcquisitionType": "2D",
      "MagneticFieldStrength": 3.0,
      "Manufacturer": "SIEMENS",
      "ManufacturerModelName": "Prisma",
      "Modality": "MR",
      "NominalInterval": 0,
      "NumberOfAverages": 1.0,
      "NumberOfPhaseEncodingSteps": 106,
      "PercentPhaseFieldOfView": 100.0,
      "PercentSampling": 100.0,
      "PerformedProcedureStepStartTime": "143752.132000",
      "PhotometricInterpretation": "MONOCHROME2",
      "PixelBandwidth": 2620.0,
      "PixelRepresentation": 0,
      "PixelSpacing": [2.0, 2.0],
      "ProtocolName": "task-backtothefuture_run-2",
      "RepetitionTime": 1500.0,
      "Rows": 954,
      "SAR": 0.08447638536017,
      "SamplesPerPixel": 1,
      "ScanOptions": [
        "FS",
        "EXT"
],
      "ScanningSequence": "EP",
      "SequenceName": "epfid2d1_106",
      "SequenceVariant": [
        "SK",
        "SS"
],
      "SeriesDescription": "task-backtothefuture_run-2",
      "SeriesNumber": 7,
      "SeriesTime": "154048.933000",
      "SliceLocation": -57.144577026367,
      "SliceThickness": 2.0,
      "SmallestImagePixelValue": 0,
      "SoftwareVersions": "syngo MR E11",
      "SpacingBetweenSlices": 2.0,
      "SpecificCharacterSet": "ISO_IR 100",
      "StudyID": "1",
      "StudyTime": "143752.055000",
      "TransmitCoilName": "Body",
      "VariableFlipAngleFlag": "N",
      "WindowCenterWidthExplanation": "Algo1",
      "dBdt": 0.0},
    "slices": {}
  },
  "time": {
    "samples": {
      "AcquisitionNumber": [1, 2, 3, 4, 5, 6, 7, 8, 9, 10, 11, 12, 13, 14, 15, 16, 17, 18, 19, 20, 21, 22, 23, 24, 25, 26, 27, 28, 29, 30, 31, 32, 33, 34, 35, 36, 37, 38, 39, 40, 41, 42, 43, 44, 45, 46, 47, 48, 49, 50, 51, 52, 53, 54, 55, 56, 57, 58, 59, 60, 61, 62, 63, 64, 65, 66, 67, 68, 69, 70, 71, 72, 73, 74, 75, 76, 77, 78, 79, 80, 81, 82, 83, 84, 85, 86, 87, 88, 89, 90, 91, 92, 93, 94, 95, 96, 97, 98, 99, 100, 101, 102, 103, 104, 105, 106, 107, 108, 109, 110, 111, 112, 113, 114, 115, 116, 117, 118, 119, 120, 121, 122, 123, 124, 125, 126, 127, 128, 129, 130, 131, 132, 133, 134, 135, 136, 137, 138, 139, 140, 141, 142, 143, 144, 145, 146, 147, 148, 149, 150, 151, 152, 153, 154, 155, 156, 157, 158, 159, 160, 161, 162, 163, 164, 165, 166, 167, 168, 169, 170, 171, 172, 173, 174, 175, 176, 177, 178, 179, 180, 181, 182, 183, 184, 185, 186, 187, 188, 189, 190, 191, 192, 193, 194, 195, 196, 197, 198, 199, 200, 201, 202, 203, 204, 205, 206, 207, 208, 209, 210, 211, 212, 213, 214, 215, 216, 217, 218, 219, 220, 221, 222, 223, 224, 225, 226, 227, 228, 229, 230, 231, 232, 233, 234, 235, 236, 237, 238, 239, 240, 241, 242, 243, 244, 245, 246, 247, 248, 249, 250, 251, 252, 253, 254, 255, 256, 257, 258, 259, 260, 261, 262, 263, 264, 265, 266, 267, 268, 269, 270, 271, 272, 273, 274, 275, 276, 277, 278, 279, 280, 281, 282, 283, 284, 285, 286, 287, 288, 289, 290, 291, 292, 293, 294, 295, 296, 297, 298, 299, 300, 301, 302, 303, 304, 305, 306, 307, 308, 309, 310, 311, 312, 313, 314, 315, 316, 317, 318, 319, 320, 321, 322, 323, 324, 325, 326, 327, 328, 329, 330, 331, 332, 333, 334, 335, 336, 337, 338, 339, 340, 341, 342, 343, 344, 345, 346, 347, 348, 349, 350, 351, 352, 353, 354, 355, 356, 357, 358, 359, 360, 361, 362, 363, 364, 365, 366, 367, 368, 369, 370, 371, 372, 373, 374, 375, 376, 377, 378, 379, 380, 381, 382, 383, 384, 385, 386, 387, 388, 389, 390, 391, 392, 393, 394, 395, 396, 397, 398, 399, 400, 401, 402, 403, 404, 405, 406, 407, 408, 409, 410, 411, 412, 413, 414, 415, 416, 417, 418, 419, 420, 421, 422, 423, 424, 425, 426, 427, 428, 429, 430, 431, 432, 433, 434, 435, 436, 437, 438, 439, 440, 441, 442, 443, 444, 445, 446, 447, 448, 449, 450, 451, 452, 453, 454, 455, 456, 457, 458, 459, 460, 461, 462, 463, 464, 465, 466, 467, 468, 469, 470, 471, 472, 473, 474, 475, 476, 477, 478, 479, 480, 481, 482, 483, 484, 485, 486, 487, 488, 489, 490, 491, 492, 493, 494, 495, 496, 497, 498, 499, 500, 501, 502, 503, 504, 505, 506, 507, 508, 509, 510, 511, 512, 513, 514, 515, 516, 517, 518, 519, 520, 521, 522, 523, 524, 525, 526, 527, 528, 529, 530, 531, 532, 533, 534, 535, 536, 537, 538, 539, 540, 541, 542, 543, 544, 545, 546, 547, 548, 549, 550, 551, 552, 553, 554, 555, 556, 557, 558, 559, 560, 561, 562, 563, 564, 565, 566, 567, 568, 569, 570, 571, 572, 573, 574, 575, 576, 577, 578, 579, 580, 581, 582, 583, 584, 585, 586, 587, 588, 589, 590, 591, 592, 593, 594, 595, 596, 597, 598, 599, 600, 601, 602, 603, 604, 605, 606, 607, 608, 609, 610, 611, 612, 613, 614, 615, 616, 617, 618, 619, 620, 621, 622, 623, 624, 625, 626, 627, 628, 629, 630, 631, 632, 633, 634, 635, 636, 637, 638, 639, 640, 641, 642, 643, 644, 645, 646, 647, 648, 649, 650, 651, 652, 653, 654, 655, 656, 657, 658, 659, 660, 661, 662, 663, 664, 665, 666, 667, 668, 669, 670, 671, 672, 673, 674, 675, 676, 677, 678, 679, 680, 681, 682, 683, 684, 685, 686, 687, 688, 689, 690, 691, 692, 693, 694, 695, 696, 697, 698, 699, 700, 701, 702, 703, 704, 705, 706, 707, 708, 709, 710, 711, 712, 713, 714, 715, 716, 717, 718, 719, 720, 721, 722, 723, 724, 725, 726, 727, 728, 729, 730, 731, 732, 733, 734, 735, 736, 737, 738, 739, 740, 741, 742, 743, 744, 745, 746, 747, 748, 749, 750, 751, 752, 753, 754, 755, 756, 757, 758, 759, 760, 761, 762, 763, 764, 765, 766, 767, 768, 769, 770, 771, 772, 773, 774, 775, 776, 777, 778, 779, 780, 781, 782, 783, 784, 785, 786, 787, 788, 789, 790, 791, 792, 793, 794, 795, 796, 797, 798, 799, 800, 801, 802, 803, 804, 805, 806, 807, 808, 809, 810, 811, 812, 813, 814, 815, 816, 817, 818, 819, 820, 821, 822, 823, 824, 825, 826, 827, 828, 829, 830, 831, 832, 833, 834, 835, 836, 837, 838, 839, 840, 841, 842, 843, 844, 845, 846, 847, 848, 849, 850, 851, 852, 853, 854, 855, 856, 857, 858, 859, 860, 861, 862, 863, 864, 865, 866, 867, 868, 869, 870, 871, 872, 873, 874, 875, 876, 877, 878, 879, 880, 881, 882, 883, 884, 885, 886, 887, 888, 889, 890, 891, 892, 893, 894, 895, 896, 897, 898, 899, 900, 901, 902, 903, 904, 905, 906, 907, 908, 909, 910, 911, 912, 913, 914, 915, 916, 917, 918, 919, 920, 921, 922, 923, 924, 925, 926, 927, 928, 929, 930, 931, 932, 933, 934, 935, 936, 937, 938, 939, 940, 941, 942, 943, 944, 945, 946, 947, 948, 949, 950, 951, 952, 953, 954, 955, 956, 957, 958, 959, 960, 961, 962, 963, 964, 965, 966, 967, 968, 969, 970, 971, 972, 973, 974, 975, 976, 977, 978, 979, 980, 981, 982, 983, 984, 985, 986, 987, 988, 989, 990, 991, 992, 993, 994, 995, 996, 997, 998, 999, 1000, 1001, 1002, 1003, 1004, 1005, 1006, 1007, 1008, 1009, 1010, 1011, 1012, 1013, 1014, 1015, 1016, 1017, 1018, 1019, 1020, 1021, 1022, 1023, 1024, 1025, 1026, 1027, 1028, 1029, 1030, 1031, 1032, 1033, 1034, 1035, 1036, 1037, 1038, 1039, 1040, 1041, 1042, 1043, 1044, 1045, 1046, 1047, 1048, 1049, 1050, 1051, 1052, 1053, 1054, 1055, 1056, 1057, 1058, 1059, 1060, 1061, 1062, 1063, 1064, 1065, 1066, 1067, 1068, 1069, 1070, 1071, 1072, 1073, 1074, 1075, 1076, 1077, 1078, 1079, 1080, 1081, 1082, 1083, 1084, 1085, 1086, 1087, 1088, 1089, 1090, 1091, 1092, 1093, 1094, 1095, 1096, 1097, 1098, 1099, 1100, 1101, 1102, 1103, 1104, 1105, 1106, 1107, 1108, 1109, 1110, 1111, 1112, 1113, 1114, 1115, 1116, 1117, 1118, 1119, 1120, 1121, 1122, 1123, 1124, 1125, 1126, 1127, 1128, 1129, 1130, 1131, 1132, 1133, 1134, 1135, 1136, 1137, 1138, 1139, 1140, 1141, 1142, 1143, 1144, 1145, 1146, 1147, 1148, 1149, 1150, 1151, 1152, 1153, 1154, 1155, 1156, 1157, 1158, 1159, 1160, 1161, 1162, 1163, 1164, 1165, 1166, 1167, 1168, 1169, 1170, 1171, 1172, 1173, 1174, 1175, 1176, 1177, 1178, 1179, 1180, 1181, 1182, 1183, 1184, 1185, 1186, 1187, 1188, 1189, 1190, 1191, 1192, 1193, 1194, 1195, 1196, 1197, 1198, 1199, 1200, 1201, 1202, 1203, 1204, 1205, 1206, 1207, 1208, 1209, 1210, 1211, 1212, 1213, 1214, 1215, 1216, 1217, 1218, 1219, 1220, 1221, 1222, 1223, 1224, 1225, 1226, 1227, 1228, 1229, 1230, 1231, 1232, 1233, 1234, 1235, 1236, 1237, 1238, 1239, 1240, 1241, 1242, 1243, 1244, 1245, 1246, 1247, 1248, 1249, 1250, 1251, 1252, 1253, 1254, 1255, 1256, 1257, 1258, 1259, 1260, 1261, 1262, 1263, 1264, 1265, 1266, 1267, 1268, 1269, 1270, 1271, 1272, 1273, 1274, 1275, 1276, 1277, 1278, 1279, 1280, 1281, 1282, 1283, 1284, 1285, 1286, 1287, 1288, 1289, 1290, 1291, 1292, 1293, 1294, 1295, 1296, 1297, 1298, 1299, 1300, 1301, 1302, 1303, 1304, 1305, 1306, 1307, 1308, 1309, 1310, 1311, 1312, 1313, 1314, 1315, 1316, 1317, 1318, 1319, 1320, 1321, 1322, 1323, 1324, 1325, 1326, 1327, 1328, 1329, 1330, 1331, 1332, 1333, 1334, 1335, 1336, 1337, 1338, 1339, 1340, 1341, 1342, 1343, 1344, 1345, 1346, 1347, 1348, 1349, 1350, 1351, 1352, 1353, 1354, 1355, 1356, 1357, 1358, 1359, 1360, 1361, 1362, 1363, 1364, 1365, 1366, 1367, 1368, 1369, 1370, 1371, 1372, 1373, 1374, 1375, 1376, 1377, 1378, 1379, 1380, 1381, 1382, 1383, 1384, 1385, 1386, 1387, 1388, 1389, 1390, 1391, 1392, 1393, 1394, 1395, 1396, 1397, 1398, 1399, 1400, 1401, 1402, 1403, 1404, 1405, 1406, 1407, 1408, 1409, 1410, 1411, 1412, 1413, 1414, 1415, 1416, 1417, 1418, 1419, 1420, 1421, 1422, 1423, 1424, 1425, 1426, 1427, 1428, 1429, 1430, 1431, 1432, 1433, 1434, 1435, 1436, 1437, 1438, 1439, 1440, 1441, 1442, 1443, 1444, 1445, 1446, 1447, 1448, 1449, 1450, 1451, 1452, 1453, 1454, 1455, 1456, 1457, 1458, 1459, 1460, 1461, 1462, 1463, 1464, 1465, 1466, 1467, 1468, 1469, 1470, 1471, 1472, 1473, 1474, 1475, 1476, 1477, 1478, 1479, 1480, 1481, 1482, 1483, 1484, 1485, 1486, 1487, 1488, 1489, 1490, 1491, 1492, 1493, 1494, 1495, 1496, 1497, 1498, 1499, 1500, 1501, 1502, 1503, 1504, 1505, 1506, 1507, 1508, 1509, 1510, 1511, 1512, 1513, 1514, 1515, 1516, 1517, 1518, 1519, 1520, 1521, 1522],
      "AcquisitionTime": ["153955.322500", "153956.822500", "153958.322500", "153959.822500", "154001.322500", "154002.822500", "154004.322500", "154005.822500", "154007.322500", "154008.822500", "154010.322500", "154011.822500", "154013.322500", "154014.822500", "154016.322500", "154017.822500", "154019.322500", "154020.822500", "154022.322500", "154023.822500", "154025.322500", "154026.822500", "154028.322500", "154029.822500", "154031.322500", "154032.822500", "154034.322500", "154035.822500", "154037.322500", "154038.822500", "154040.322500", "154041.822500", "154043.322500", "154044.822500", "154046.322500", "154047.822500", "154049.322500", "154050.822500", "154052.322500", "154053.822500", "154055.322500", "154056.822500", "154058.322500", "154059.822500", "154101.322500", "154102.822500", "154104.322500", "154105.822500", "154107.322500", "154108.822500", "154110.322500", "154111.822500", "154113.322500", "154114.822500", "154116.322500", "154117.822500", "154119.322500", "154120.822500", "154122.322500", "154123.822500", "154125.322500", "154126.822500", "154128.322500", "154129.822500", "154131.322500", "154132.822500", "154134.322500", "154135.822500", "154137.322500", "154138.822500", "154140.322500", "154141.822500", "154143.322500", "154144.822500", "154146.322500", "154147.822500", "154149.322500", "154150.822500", "154152.322500", "154153.822500", "154155.322500", "154156.822500", "154158.322500", "154159.822500", "154201.322500", "154202.822500", "154204.322500", "154205.822500", "154207.322500", "154208.822500", "154210.322500", "154211.822500", "154213.322500", "154214.822500", "154216.322500", "154217.822500", "154219.322500", "154220.822500", "154222.322500", "154223.822500", "154225.322500", "154226.822500", "154228.322500", "154229.822500", "154231.322500", "154232.822500", "154234.322500", "154235.822500", "154237.322500", "154238.822500", "154240.322500", "154241.822500", "154243.322500", "154244.822500", "154246.322500", "154247.822500", "154249.322500", "154250.822500", "154252.322500", "154253.822500", "154255.322500", "154256.822500", "154258.322500", "154259.822500", "154301.322500", "154302.822500", "154304.322500", "154305.822500", "154307.322500", "154308.822500", "154310.322500", "154311.822500", "154313.322500", "154314.822500", "154316.322500", "154317.822500", "154319.322500", "154320.822500", "154322.322500", "154323.822500", "154325.322500", "154326.822500", "154328.322500", "154329.822500", "154331.322500", "154332.822500", "154334.322500", "154335.822500", "154337.322500", "154338.822500", "154340.322500", "154341.822500", "154343.322500", "154344.822500", "154346.322500", "154347.822500", "154349.322500", "154350.822500", "154352.322500", "154353.822500", "154355.322500", "154356.822500", "154358.322500", "154359.822500", "154401.322500", "154402.822500", "154404.322500", "154405.822500", "154407.322500", "154408.822500", "154410.322500", "154411.822500", "154413.322500", "154414.822500", "154416.322500", "154417.822500", "154419.322500", "154420.822500", "154422.322500", "154423.822500", "154425.322500", "154426.822500", "154428.322500", "154429.822500", "154431.322500", "154432.822500", "154434.322500", "154435.822500", "154437.322500", "154438.822500", "154440.322500", "154441.822500", "154443.322500", "154444.822500", "154446.322500", "154447.822500", "154449.322500", "154450.822500", "154452.322500", "154453.822500", "154455.322500", "154456.822500", "154458.322500", "154459.822500", "154501.322500", "154502.822500", "154504.322500", "154505.822500", "154507.322500", "154508.822500", "154510.322500", "154511.822500", "154513.322500", "154514.822500", "154516.322500", "154517.822500", "154519.322500", "154520.822500", "154522.322500", "154523.822500", "154525.322500", "154526.822500", "154528.322500", "154529.822500", "154531.322500", "154532.822500", "154534.322500", "154535.822500", "154537.322500", "154538.822500", "154540.322500", "154541.822500", "154543.322500", "154544.822500", "154546.322500", "154547.822500", "154549.322500", "154550.822500", "154552.322500", "154553.822500", "154555.322500", "154556.822500", "154558.322500", "154559.822500", "154601.322500", "154602.822500", "154604.322500", "154605.822500", "154607.322500", "154608.822500", "154610.322500", "154611.822500", "154613.322500", "154614.822500", "154616.322500", "154617.822500", "154619.322500", "154620.822500", "154622.322500", "154623.822500", "154625.322500", "154626.822500", "154628.322500", "154629.822500", "154631.322500", "154632.822500", "154634.322500", "154635.822500", "154637.322500", "154638.822500", "154640.322500", "154641.822500", "154643.322500", "154644.822500", "154646.322500", "154647.822500", "154649.322500", "154650.822500", "154652.322500", "154653.822500", "154655.322500", "154656.822500", "154658.322500", "154659.822500", "154701.322500", "154702.822500", "154704.322500", "154705.822500", "154707.322500", "154708.822500", "154710.322500", "154711.822500", "154713.322500", "154714.822500", "154716.322500", "154717.822500", "154719.322500", "154720.822500", "154722.322500", "154723.822500", "154725.322500", "154726.822500", "154728.322500", "154729.822500", "154731.322500", "154732.822500", "154734.322500", "154735.822500", "154737.322500", "154738.822500", "154740.322500", "154741.822500", "154743.322500", "154744.822500", "154746.322500", "154747.822500", "154749.322500", "154750.822500", "154752.322500", "154753.822500", "154755.322500", "154756.822500", "154758.322500", "154759.822500", "154801.322500", "154802.822500", "154804.322500", "154805.822500", "154807.322500", "154808.822500", "154810.322500", "154811.822500", "154813.322500", "154814.822500", "154816.322500", "154817.822500", "154819.322500", "154820.822500", "154822.322500", "154823.822500", "154825.322500", "154826.822500", "154828.322500", "154829.822500", "154831.322500", "154832.822500", "154834.322500", "154835.822500", "154837.322500", "154838.822500", "154840.322500", "154841.822500", "154843.322500", "154844.822500", "154846.322500", "154847.822500", "154849.322500", "154850.822500", "154852.322500", "154853.822500", "154855.322500", "154856.822500", "154858.322500", "154859.822500", "154901.322500", "154902.822500", "154904.322500", "154905.822500", "154907.322500", "154908.822500", "154910.322500", "154911.822500", "154913.322500", "154914.822500", "154916.322500", "154917.822500", "154919.322500", "154920.822500", "154922.322500", "154923.822500", "154925.322500", "154926.822500", "154928.322500", "154929.822500", "154931.322500", "154932.822500", "154934.322500", "154935.822500", "154937.322500", "154938.822500", "154940.322500", "154941.822500", "154943.322500", "154944.822500", "154946.322500", "154947.822500", "154949.322500", "154950.822500", "154952.322500", "154953.822500", "154955.322500", "154956.822500", "154958.322500", "154959.822500", "155001.322500", "155002.822500", "155004.322500", "155005.822500", "155007.322500", "155008.822500", "155010.322500", "155011.822500", "155013.322500", "155014.822500", "155016.322500", "155017.822500", "155019.322500", "155020.822500", "155022.322500", "155023.822500", "155025.322500", "155026.822500", "155028.322500", "155029.822500", "155031.322500", "155032.822500", "155034.322500", "155035.822500", "155037.322500", "155038.822500", "155040.322500", "155041.822500", "155043.322500", "155044.822500", "155046.322500", "155047.822500", "155049.322500", "155050.822500", "155052.322500", "155053.822500", "155055.322500", "155056.822500", "155058.322500", "155059.822500", "155101.322500", "155102.822500", "155104.322500", "155105.822500", "155107.322500", "155108.822500", "155110.322500", "155111.822500", "155113.322500", "155114.822500", "155116.322500", "155117.822500", "155119.322500", "155120.822500", "155122.322500", "155123.822500", "155125.322500", "155126.822500", "155128.322500", "155129.822500", "155131.322500", "155132.822500", "155134.322500", "155135.822500", "155137.322500", "155138.822500", "155140.322500", "155141.822500", "155143.322500", "155144.822500", "155146.322500", "155147.822500", "155149.322500", "155150.822500", "155152.322500", "155153.822500", "155155.322500", "155156.822500", "155158.322500", "155159.822500", "155201.322500", "155202.822500", "155204.322500", "155205.822500", "155207.322500", "155208.822500", "155210.322500", "155211.822500", "155213.322500", "155214.822500", "155216.322500", "155217.822500", "155219.322500", "155220.822500", "155222.322500", "155223.822500", "155225.322500", "155226.822500", "155228.322500", "155229.822500", "155231.322500", "155232.822500", "155234.322500", "155235.822500", "155237.322500", "155238.822500", "155240.322500", "155241.822500", "155243.322500", "155244.822500", "155246.322500", "155247.822500", "155249.322500", "155250.822500", "155252.322500", "155253.822500", "155255.322500", "155256.822500", "155258.322500", "155259.822500", "155301.322500", "155302.822500", "155304.322500", "155305.822500", "155307.322500", "155308.822500", "155310.322500", "155311.822500", "155313.322500", "155314.822500", "155316.322500", "155317.822500", "155319.322500", "155320.822500", "155322.322500", "155323.822500", "155325.322500", "155326.822500", "155328.322500", "155329.822500", "155331.322500", "155332.822500", "155334.322500", "155335.822500", "155337.322500", "155338.822500", "155340.322500", "155341.822500", "155343.322500", "155344.822500", "155346.322500", "155347.822500", "155349.322500", "155350.822500", "155352.322500", "155353.822500", "155355.322500", "155356.822500", "155358.322500", "155359.822500", "155401.322500", "155402.822500", "155404.322500", "155405.822500", "155407.322500", "155408.822500", "155410.322500", "155411.822500", "155413.322500", "155414.822500", "155416.322500", "155417.822500", "155419.322500", "155420.822500", "155422.322500", "155423.822500", "155425.322500", "155426.822500", "155428.322500", "155429.822500", "155431.322500", "155432.822500", "155434.322500", "155435.822500", "155437.322500", "155438.822500", "155440.322500", "155441.822500", "155443.322500", "155444.822500", "155446.322500", "155447.822500", "155449.322500", "155450.822500", "155452.322500", "155453.822500", "155455.322500", "155456.822500", "155458.322500", "155459.822500", "155501.322500", "155502.822500", "155504.322500", "155505.822500", "155507.322500", "155508.822500", "155510.322500", "155511.822500", "155513.322500", "155514.822500", "155516.322500", "155517.822500", "155519.322500", "155520.822500", "155522.322500", "155523.822500", "155525.322500", "155526.822500", "155528.322500", "155529.822500", "155531.322500", "155532.822500", "155534.322500", "155535.822500", "155537.322500", "155538.822500", "155540.322500", "155541.822500", "155543.322500", "155544.822500", "155546.322500", "155547.822500", "155549.322500", "155550.822500", "155552.322500", "155553.822500", "155555.322500", "155556.822500", "155558.322500", "155559.822500", "155601.322500", "155602.822500", "155604.322500", "155605.822500", "155607.322500", "155608.822500", "155610.322500", "155611.822500", "155613.322500", "155614.822500", "155616.322500", "155617.822500", "155619.322500", "155620.822500", "155622.322500", "155623.822500", "155625.322500", "155626.822500", "155628.322500", "155629.822500", "155631.322500", "155632.822500", "155634.322500", "155635.822500", "155637.322500", "155638.822500", "155640.322500", "155641.822500", "155643.322500", "155644.822500", "155646.322500", "155647.822500", "155649.322500", "155650.822500", "155652.322500", "155653.822500", "155655.322500", "155656.822500", "155658.322500", "155659.822500", "155701.322500", "155702.822500", "155704.322500", "155705.822500", "155707.322500", "155708.822500", "155710.322500", "155711.822500", "155713.322500", "155714.822500", "155716.322500", "155717.822500", "155719.322500", "155720.822500", "155722.322500", "155723.822500", "155725.322500", "155726.822500", "155728.322500", "155729.822500", "155731.322500", "155732.822500", "155734.322500", "155735.822500", "155737.322500", "155738.822500", "155740.322500", "155741.822500", "155743.322500", "155744.822500", "155746.322500", "155747.822500", "155749.322500", "155750.822500", "155752.322500", "155753.822500", "155755.322500", "155756.822500", "155758.322500", "155759.822500", "155801.322500", "155802.822500", "155804.322500", "155805.822500", "155807.322500", "155808.822500", "155810.322500", "155811.822500", "155813.322500", "155814.822500", "155816.322500", "155817.822500", "155819.322500", "155820.822500", "155822.322500", "155823.822500", "155825.322500", "155826.822500", "155828.322500", "155829.822500", "155831.322500", "155832.822500", "155834.322500", "155835.822500", "155837.322500", "155838.822500", "155840.322500", "155841.822500", "155843.322500", "155844.822500", "155846.322500", "155847.822500", "155849.322500", "155850.822500", "155852.322500", "155853.822500", "155855.322500", "155856.822500", "155858.322500", "155859.822500", "155901.322500", "155902.822500", "155904.322500", "155905.822500", "155907.322500", "155908.822500", "155910.322500", "155911.822500", "155913.322500", "155914.822500", "155916.322500", "155917.822500", "155919.322500", "155920.822500", "155922.322500", "155923.822500", "155925.322500", "155926.822500", "155928.322500", "155929.822500", "155931.322500", "155932.822500", "155934.322500", "155935.822500", "155937.322500", "155938.822500", "155940.322500", "155941.822500", "155943.322500", "155944.822500", "155946.322500", "155947.822500", "155949.322500", "155950.822500", "155952.322500", "155953.822500", "155955.322500", "155956.822500", "155958.322500", "155959.822500", "160001.322500", "160002.822500", "160004.322500", "160005.822500", "160007.322500", "160008.822500", "160010.322500", "160011.822500", "160013.322500", "160014.822500", "160016.322500", "160017.822500", "160019.322500", "160020.822500", "160022.322500", "160023.822500", "160025.322500", "160026.822500", "160028.322500", "160029.822500", "160031.322500", "160032.822500", "160034.322500", "160035.822500", "160037.322500", "160038.822500", "160040.322500", "160041.822500", "160043.322500", "160044.822500", "160046.322500", "160047.822500", "160049.322500", "160050.822500", "160052.322500", "160053.822500", "160055.322500", "160056.822500", "160058.322500", "160059.822500", "160101.322500", "160102.822500", "160104.322500", "160105.822500", "160107.322500", "160108.822500", "160110.322500", "160111.822500", "160113.322500", "160114.822500", "160116.322500", "160117.822500", "160119.322500", "160120.822500", "160122.322500", "160123.822500", "160125.322500", "160126.822500", "160128.322500", "160129.822500", "160131.322500", "160132.822500", "160134.322500", "160135.822500", "160137.322500", "160138.822500", "160140.322500", "160141.822500", "160143.322500", "160144.822500", "160146.322500", "160147.822500", "160149.322500", "160150.822500", "160152.322500", "160153.822500", "160155.322500", "160156.822500", "160158.322500", "160159.822500", "160201.322500", "160202.822500", "160204.322500", "160205.822500", "160207.322500", "160208.822500", "160210.322500", "160211.822500", "160213.322500", "160214.822500", "160216.322500", "160217.822500", "160219.322500", "160220.822500", "160222.322500", "160223.822500", "160225.322500", "160226.822500", "160228.322500", "160229.822500", "160231.322500", "160232.822500", "160234.322500", "160235.822500", "160237.322500", "160238.822500", "160240.322500", "160241.822500", "160243.322500", "160244.822500", "160246.322500", "160247.822500", "160249.322500", "160250.822500", "160252.322500", "160253.822500", "160255.322500", "160256.822500", "160258.322500", "160259.822500", "160301.322500", "160302.822500", "160304.322500", "160305.822500", "160307.322500", "160308.822500", "160310.322500", "160311.822500", "160313.322500", "160314.822500", "160316.322500", "160317.822500", "160319.322500", "160320.822500", "160322.322500", "160323.822500", "160325.322500", "160326.822500", "160328.322500", "160329.822500", "160331.322500", "160332.822500", "160334.322500", "160335.822500", "160337.322500", "160338.822500", "160340.322500", "160341.822500", "160343.322500", "160344.822500", "160346.322500", "160347.822500", "160349.322500", "160350.822500", "160352.322500", "160353.822500", "160355.3