{
  "AcquisitionMatrixPE": 106,
  "AcquisitionNumber": 1,
  "AcquisitionTime": "14:10:16.747500",
  "BandwidthPerPixelPhaseEncode": 16.846,
  "BaseResolution": 106,
  "BodyPartExamined": "BRAIN",
  "CoilCombinationMethod": "Sum of Squares",
  "ConsistencyInfo": "N4_VE11C_LATEST_20160120",
  "ConversionSoftware": "dcm2niix",
  "ConversionSoftwareVersion": "v1.0.20220720",
  "DerivedVendorReportedEchoSpacing": 0.000560012,
  "DeviceSerialNumber": "166108",
  "DwellTime": 1.8e-06,
  "EchoTime": 0.0352,
  "EchoTrainLength": 106,
  "EffectiveEchoSpacing": 0.000560012,
  "FlipAngle": 60,
  "HeudiconvVersion": "1.3.0",
  "ImageComments": "Unaliased MB4/PE3/LB",
  "ImageOrientationPatientDICOM": [1, 0, 0, 0, 1, 0],
  "ImageOrientationText": "Tra",
  "ImageType": [
    "ORIGINAL",
    "PRIMARY",
    "M",
    "MB",
    "ND",
    "MOSAIC"
],
  "ImagingFrequency": 123.244,
  "InPlanePhaseEncodingDirectionDICOM": "COL",
  "InstitutionAddress": "Bedford Way 26,London,London,GB,WC1H 0AP",
  "InstitutionName": "University College",
  "InstitutionalDepartmentName": "Department",
  "MRAcquisitionType": "2D",
  "MagneticFieldStrength": 3,
  "Manufacturer": "Siemens",
  "ManufacturersModelName": "Prisma",
  "MatrixCoilMode": "SENSE",
  "Modality": "MR",
  "MultibandAccelerationFactor": 4,
  "NonlinearGradientCorrection": false,
  "PartialFourier": 1,
  "PatientPosition": "HFS",
  "PercentPhaseFOV": 100,
  "PercentSampling": 100,
  "PhaseEncodingDirection": "j-",
  "PhaseEncodingSteps": 106,
  "PhaseResolution": 1,
  "PixelBandwidth": 2620,
  "ProcedureStepDescription": "Egor^MovieProject2",
  "ProtocolName": "task-backtothefuture_run-2",
  "PulseSequenceDetails": "%CustomerSeq%\\cmrr_mbep2d_bold",
  "ReceiveCoilActiveElements": "HEA;HEP",
  "ReceiveCoilName": "Head_32",
  "ReconMatrixPE": 106,
  "RepetitionTime": 1.5,
  "SAR": 0.0869521,
  "ScanOptions": "FS\\EXT",
  "ScanningSequence": "EP",
  "SequenceName": "epfid2d1_106",
  "SequenceVariant": "SK\\SS",
  "SeriesDescription": "task-backtothefuture_run-2",
  "SeriesNumber": 7,
  "ShimSetting": [-1498, 594, 7402, 147, 106, 5, 173, -88],
  "SliceThickness": 2,
  "SliceTiming": [0, 1.07, 0.6575, 0.2475, 1.315, 0.905, 0.495, 0.0825, 1.1525, 0.74, 0.33, 1.3975, 0.9875, 0.575, 0.165, 1.235, 0.8225, 0.4125, 0, 1.07, 0.6575, 0.2475, 1.315, 0.905, 0.495, 0.0825, 1.1525, 0.74, 0.33, 1.3975, 0.9875, 0.575, 0.165, 1.235, 0.8225, 0.4125, 0, 1.07, 0.6575, 0.2475, 1.315, 0.905, 0.495, 0.0825, 1.1525, 0.74, 0.33, 1.3975, 0.9875, 0.575, 0.165, 1.235, 0.8225, 0.4125, 0, 1.07, 0.6575, 0.2475, 1.315, 0.905, 0.495, 0.0825, 1.1525, 0.74, 0.33, 1.3975, 0.9875, 0.575, 0.165, 1.235, 0.8225, 0.4125],
  "SoftwareVersions": "syngo MR E11",
  "SpacingBetweenSlices": 2,
  "StationName": "AWP166108",
  "TaskName": "backtothefuture",
  "TotalReadoutTime": 0.0588013,
  "TxRefAmp": 220.642,
  "WipMemBlock": "ae822cb3-44ef-40ad-a5db-1385a7a5e844||Sequence: R016 ve11c/master r/e634e98; Dec 19 2017 11:00:25 by eja",
  "dcmmeta_affine": [
    [-2.0, 0.0, 0.0, 106.0],
    [0.0, 2.0, 0.0, -91.9518051147461],
    [0.0, 0.0, 2.0, -60.1566276550293],
    [0.0, 0.0, 0.0, 1.0]
],
  "dcmmeta_reorient_transform": [
    [0.0, -1.0, 0.0, 105.0],
    [1.0, 0.0, 0.0, 0.0],
    [0.0, 0.0, 1.0, 0.0],
    [0.0, 0.0, 0.0, 1.0]
],
  "dcmmeta_shape": [106, 106, 72, 1522],
  "dcmmeta_slice_dim": 2,
  "dcmmeta_version": 0.6,
  "global": {
    "const": {
      "AcquisitionMatrix": [106, 0, 0, 106],
      "AngioFlag": "N",
      "BitsAllocated": 16,
      "BitsStored": 16,
      "BodyPartExamined": "BRAIN",
      "CardiacNumberOfImages": 1,
      "Columns": 954,
      "EchoNumbers": 1,
      "EchoTime": 35.2,
      "EchoTrainLength": 106,
      "FlipAngle": 60.0,
      "HighBit": 15,
      "ImageOrientationPatient": [1.0, 0.0, 0.0, 0.0, 1.0, 0.0],
      "ImagePositionPatient": [-954.0, -966.04819297791, -60.156627655029],
      "ImageType": [
        "ORIGINAL",
        "PRIMARY",
        "M",
        "MB",
        "ND",
        "MOSAIC"
],
      "ImagedNucleus": "1H",
      "ImagingFrequency": 123.243657,
      "InPlanePhaseEncodingDirection": "COL",
      "MRAcquisitionType": "2D",
      "MagneticFieldStrength": 3.0,
      "Manufacturer": "SIEMENS",
      "ManufacturerModelName": "Prisma",
      "Modality": "MR",
      "NominalInterval": 0,
      "NumberOfAverages": 1.0,
      "NumberOfPhaseEncodingSteps": 106,
      "PercentPhaseFieldOfView": 100.0,
      "PercentSampling": 100.0,
      "PerformedProcedureStepStartTime": "130010.912000",
      "PhotometricInterpretation": "MONOCHROME2",
      "PixelBandwidth": 2620.0,
      "PixelRepresentation": 0,
      "PixelSpacing": [2.0, 2.0],
      "ProtocolName": "task-backtothefuture_run-2",
      "RepetitionTime": 1500.0,
      "Rows": 954,
      "SAR": 0.08695210490888,
      "SamplesPerPixel": 1,
      "ScanOptions": [
        "FS",
        "EXT"
],
      "ScanningSequence": "EP",
      "SequenceName": "epfid2d1_106",
      "SequenceVariant": [
        "SK",
        "SS"
],
      "SeriesDescription": "task-backtothefuture_run-2",
      "SeriesNumber": 7,
      "SeriesTime": "141114.416000",
      "SliceLocation": -60.156627655029,
      "SliceThickness": 2.0,
      "SmallestImagePixelValue": 0,
      "SoftwareVersions": "syngo MR E11",
      "SpacingBetweenSlices": 2.0000000537281,
      "SpecificCharacterSet": "ISO_IR 100",
      "StudyID": "1",
      "StudyTime": "130010.853000",
      "TransmitCoilName": "Body",
      "VariableFlipAngleFlag": "N",
      "WindowCenterWidthExplanation": "Algo1",
      "dBdt": 0.0},
    "slices": {}
  },
  "time": {
    "samples": {
      "AcquisitionNumber": [1, 2, 3, 4, 5, 6, 7, 8, 9, 10, 11, 12, 13, 14, 15, 16, 17, 18, 19, 20, 21, 22, 23, 24, 25, 26, 27, 28, 29, 30, 31, 32, 33, 34, 35, 36, 37, 38, 39, 40, 41, 42, 43, 44, 45, 46, 47, 48, 49, 50, 51, 52, 53, 54, 55, 56, 57, 58, 59, 60, 61, 62, 63, 64, 65, 66, 67, 68, 69, 70, 71, 72, 73, 74, 75, 76, 77, 78, 79, 80, 81, 82, 83, 84, 85, 86, 87, 88, 89, 90, 91, 92, 93, 94, 95, 96, 97, 98, 99, 100, 101, 102, 103, 104, 105, 106, 107, 108, 109, 110, 111, 112, 113, 114, 115, 116, 117, 118, 119, 120, 121, 122, 123, 124, 125, 126, 127, 128, 129, 130, 131, 132, 133, 134, 135, 136, 137, 138, 139, 140, 141, 142, 143, 144, 145, 146, 147, 148, 149, 150, 151, 152, 153, 154, 155, 156, 157, 158, 159, 160, 161, 162, 163, 164, 165, 166, 167, 168, 169, 170, 171, 172, 173, 174, 175, 176, 177, 178, 179, 180, 181, 182, 183, 184, 185, 186, 187, 188, 189, 190, 191, 192, 193, 194, 195, 196, 197, 198, 199, 200, 201, 202, 203, 204, 205, 206, 207, 208, 209, 210, 211, 212, 213, 214, 215, 216, 217, 218, 219, 220, 221, 222, 223, 224, 225, 226, 227, 228, 229, 230, 231, 232, 233, 234, 235, 236, 237, 238, 239, 240, 241, 242, 243, 244, 245, 246, 247, 248, 249, 250, 251, 252, 253, 254, 255, 256, 257, 258, 259, 260, 261, 262, 263, 264, 265, 266, 267, 268, 269, 270, 271, 272, 273, 274, 275, 276, 277, 278, 279, 280, 281, 282, 283, 284, 285, 286, 287, 288, 289, 290, 291, 292, 293, 294, 295, 296, 297, 298, 299, 300, 301, 302, 303, 304, 305, 306, 307, 308, 309, 310, 311, 312, 313, 314, 315, 316, 317, 318, 319, 320, 321, 322, 323, 324, 325, 326, 327, 328, 329, 330, 331, 332, 333, 334, 335, 336, 337, 338, 339, 340, 341, 342, 343, 344, 345, 346, 347, 348, 349, 350, 351, 352, 353, 354, 355, 356, 357, 358, 359, 360, 361, 362, 363, 364, 365, 366, 367, 368, 369, 370, 371, 372, 373, 374, 375, 376, 377, 378, 379, 380, 381, 382, 383, 384, 385, 386, 387, 388, 389, 390, 391, 392, 393, 394, 395, 396, 397, 398, 399, 400, 401, 402, 403, 404, 405, 406, 407, 408, 409, 410, 411, 412, 413, 414, 415, 416, 417, 418, 419, 420, 421, 422, 423, 424, 425, 426, 427, 428, 429, 430, 431, 432, 433, 434, 435, 436, 437, 438, 439, 440, 441, 442, 443, 444, 445, 446, 447, 448, 449, 450, 451, 452, 453, 454, 455, 456, 457, 458, 459, 460, 461, 462, 463, 464, 465, 466, 467, 468, 469, 470, 471, 472, 473, 474, 475, 476, 477, 478, 479, 480, 481, 482, 483, 484, 485, 486, 487, 488, 489, 490, 491, 492, 493, 494, 495, 496, 497, 498, 499, 500, 501, 502, 503, 504, 505, 506, 507, 508, 509, 510, 511, 512, 513, 514, 515, 516, 517, 518, 519, 520, 521, 522, 523, 524, 525, 526, 527, 528, 529, 530, 531, 532, 533, 534, 535, 536, 537, 538, 539, 540, 541, 542, 543, 544, 545, 546, 547, 548, 549, 550, 551, 552, 553, 554, 555, 556, 557, 558, 559, 560, 561, 562, 563, 564, 565, 566, 567, 568, 569, 570, 571, 572, 573, 574, 575, 576, 577, 578, 579, 580, 581, 582, 583, 584, 585, 586, 587, 588, 589, 590, 591, 592, 593, 594, 595, 596, 597, 598, 599, 600, 601, 602, 603, 604, 605, 606, 607, 608, 609, 610, 611, 612, 613, 614, 615, 616, 617, 618, 619, 620, 621, 622, 623, 624, 625, 626, 627, 628, 629, 630, 631, 632, 633, 634, 635, 636, 637, 638, 639, 640, 641, 642, 643, 644, 645, 646, 647, 648, 649, 650, 651, 652, 653, 654, 655, 656, 657, 658, 659, 660, 661, 662, 663, 664, 665, 666, 667, 668, 669, 670, 671, 672, 673, 674, 675, 676, 677, 678, 679, 680, 681, 682, 683, 684, 685, 686, 687, 688, 689, 690, 691, 692, 693, 694, 695, 696, 697, 698, 699, 700, 701, 702, 703, 704, 705, 706, 707, 708, 709, 710, 711, 712, 713, 714, 715, 716, 717, 718, 719, 720, 721, 722, 723, 724, 725, 726, 727, 728, 729, 730, 731, 732, 733, 734, 735, 736, 737, 738, 739, 740, 741, 742, 743, 744, 745, 746, 747, 748, 749, 750, 751, 752, 753, 754, 755, 756, 757, 758, 759, 760, 761, 762, 763, 764, 765, 766, 767, 768, 769, 770, 771, 772, 773, 774, 775, 776, 777, 778, 779, 780, 781, 782, 783, 784, 785, 786, 787, 788, 789, 790, 791, 792, 793, 794, 795, 796, 797, 798, 799, 800, 801, 802, 803, 804, 805, 806, 807, 808, 809, 810, 811, 812, 813, 814, 815, 816, 817, 818, 819, 820, 821, 822, 823, 824, 825, 826, 827, 828, 829, 830, 831, 832, 833, 834, 835, 836, 837, 838, 839, 840, 841, 842, 843, 844, 845, 846, 847, 848, 849, 850, 851, 852, 853, 854, 855, 856, 857, 858, 859, 860, 861, 862, 863, 864, 865, 866, 867, 868, 869, 870, 871, 872, 873, 874, 875, 876, 877, 878, 879, 880, 881, 882, 883, 884, 885, 886, 887, 888, 889, 890, 891, 892, 893, 894, 895, 896, 897, 898, 899, 900, 901, 902, 903, 904, 905, 906, 907, 908, 909, 910, 911, 912, 913, 914, 915, 916, 917, 918, 919, 920, 921, 922, 923, 924, 925, 926, 927, 928, 929, 930, 931, 932, 933, 934, 935, 936, 937, 938, 939, 940, 941, 942, 943, 944, 945, 946, 947, 948, 949, 950, 951, 952, 953, 954, 955, 956, 957, 958, 959, 960, 961, 962, 963, 964, 965, 966, 967, 968, 969, 970, 971, 972, 973, 974, 975, 976, 977, 978, 979, 980, 981, 982, 983, 984, 985, 986, 987, 988, 989, 990, 991, 992, 993, 994, 995, 996, 997, 998, 999, 1000, 1001, 1002, 1003, 1004, 1005, 1006, 1007, 1008, 1009, 1010, 1011, 1012, 1013, 1014, 1015, 1016, 1017, 1018, 1019, 1020, 1021, 1022, 1023, 1024, 1025, 1026, 1027, 1028, 1029, 1030, 1031, 1032, 1033, 1034, 1035, 1036, 1037, 1038, 1039, 1040, 1041, 1042, 1043, 1044, 1045, 1046, 1047, 1048, 1049, 1050, 1051, 1052, 1053, 1054, 1055, 1056, 1057, 1058, 1059, 1060, 1061, 1062, 1063, 1064, 1065, 1066, 1067, 1068, 1069, 1070, 1071, 1072, 1073, 1074, 1075, 1076, 1077, 1078, 1079, 1080, 1081, 1082, 1083, 1084, 1085, 1086, 1087, 1088, 1089, 1090, 1091, 1092, 1093, 1094, 1095, 1096, 1097, 1098, 1099, 1100, 1101, 1102, 1103, 1104, 1105, 1106, 1107, 1108, 1109, 1110, 1111, 1112, 1113, 1114, 1115, 1116, 1117, 1118, 1119, 1120, 1121, 1122, 1123, 1124, 1125, 1126, 1127, 1128, 1129, 1130, 1131, 1132, 1133, 1134, 1135, 1136, 1137, 1138, 1139, 1140, 1141, 1142, 1143, 1144, 1145, 1146, 1147, 1148, 1149, 1150, 1151, 1152, 1153, 1154, 1155, 1156, 1157, 1158, 1159, 1160, 1161, 1162, 1163, 1164, 1165, 1166, 1167, 1168, 1169, 1170, 1171, 1172, 1173, 1174, 1175, 1176, 1177, 1178, 1179, 1180, 1181, 1182, 1183, 1184, 1185, 1186, 1187, 1188, 1189, 1190, 1191, 1192, 1193, 1194, 1195, 1196, 1197, 1198, 1199, 1200, 1201, 1202, 1203, 1204, 1205, 1206, 1207, 1208, 1209, 1210, 1211, 1212, 1213, 1214, 1215, 1216, 1217, 1218, 1219, 1220, 1221, 1222, 1223, 1224, 1225, 1226, 1227, 1228, 1229, 1230, 1231, 1232, 1233, 1234, 1235, 1236, 1237, 1238, 1239, 1240, 1241, 1242, 1243, 1244, 1245, 1246, 1247, 1248, 1249, 1250, 1251, 1252, 1253, 1254, 1255, 1256, 1257, 1258, 1259, 1260, 1261, 1262, 1263, 1264, 1265, 1266, 1267, 1268, 1269, 1270, 1271, 1272, 1273, 1274, 1275, 1276, 1277, 1278, 1279, 1280, 1281, 1282, 1283, 1284, 1285, 1286, 1287, 1288, 1289, 1290, 1291, 1292, 1293, 1294, 1295, 1296, 1297, 1298, 1299, 1300, 1301, 1302, 1303, 1304, 1305, 1306, 1307, 1308, 1309, 1310, 1311, 1312, 1313, 1314, 1315, 1316, 1317, 1318, 1319, 1320, 1321, 1322, 1323, 1324, 1325, 1326, 1327, 1328, 1329, 1330, 1331, 1332, 1333, 1334, 1335, 1336, 1337, 1338, 1339, 1340, 1341, 1342, 1343, 1344, 1345, 1346, 1347, 1348, 1349, 1350, 1351, 1352, 1353, 1354, 1355, 1356, 1357, 1358, 1359, 1360, 1361, 1362, 1363, 1364, 1365, 1366, 1367, 1368, 1369, 1370, 1371, 1372, 1373, 1374, 1375, 1376, 1377, 1378, 1379, 1380, 1381, 1382, 1383, 1384, 1385, 1386, 1387, 1388, 1389, 1390, 1391, 1392, 1393, 1394, 1395, 1396, 1397, 1398, 1399, 1400, 1401, 1402, 1403, 1404, 1405, 1406, 1407, 1408, 1409, 1410, 1411, 1412, 1413, 1414, 1415, 1416, 1417, 1418, 1419, 1420, 1421, 1422, 1423, 1424, 1425, 1426, 1427, 1428, 1429, 1430, 1431, 1432, 1433, 1434, 1435, 1436, 1437, 1438, 1439, 1440, 1441, 1442, 1443, 1444, 1445, 1446, 1447, 1448, 1449, 1450, 1451, 1452, 1453, 1454, 1455, 1456, 1457, 1458, 1459, 1460, 1461, 1462, 1463, 1464, 1465, 1466, 1467, 1468, 1469, 1470, 1471, 1472, 1473, 1474, 1475, 1476, 1477, 1478, 1479, 1480, 1481, 1482, 1483, 1484, 1485, 1486, 1487, 1488, 1489, 1490, 1491, 1492, 1493, 1494, 1495, 1496, 1497, 1498, 1499, 1500, 1501, 1502, 1503, 1504, 1505, 1506, 1507, 1508, 1509, 1510, 1511, 1512, 1513, 1514, 1515, 1516, 1517, 1518, 1519, 1520, 1521, 1522],
      "AcquisitionTime": ["141016.747500", "141018.247500", "141019.747500", "141021.247500", "141022.747500", "141024.247500", "141025.747500", "141027.247500", "141028.747500", "141030.247500", "141031.747500", "141033.247500", "141034.747500", "141036.247500", "141037.747500", "141039.247500", "141040.747500", "141042.247500", "141043.747500", "141045.247500", "141046.747500", "141048.247500", "141049.747500", "141051.247500", "141052.747500", "141054.247500", "141055.747500", "141057.247500", "141058.747500", "141100.247500", "141101.747500", "141103.247500", "141104.747500", "141106.247500", "141107.747500", "141109.247500", "141110.747500", "141112.247500", "141113.747500", "141115.247500", "141116.747500", "141118.247500", "141119.747500", "141121.247500", "141122.747500", "141124.247500", "141125.747500", "141127.247500", "141128.747500", "141130.247500", "141131.747500", "141133.247500", "141134.747500", "141136.247500", "141137.747500", "141139.247500", "141140.747500", "141142.247500", "141143.747500", "141145.247500", "141146.747500", "141148.247500", "141149.747500", "141151.247500", "141152.747500", "141154.247500", "141155.747500", "141157.247500", "141158.747500", "141200.247500", "141201.747500", "141203.247500", "141204.747500", "141206.247500", "141207.747500", "141209.247500", "141210.747500", "141212.247500", "141213.747500", "141215.247500", "141216.747500", "141218.247500", "141219.747500", "141221.247500", "141222.747500", "141224.247500", "141225.747500", "141227.247500", "141228.747500", "141230.247500", "141231.747500", "141233.247500", "141234.747500", "141236.247500", "141237.747500", "141239.247500", "141240.747500", "141242.247500", "141243.747500", "141245.247500", "141246.747500", "141248.247500", "141249.747500", "141251.247500", "141252.747500", "141254.247500", "141255.747500", "141257.247500", "141258.747500", "141300.247500", "141301.747500", "141303.247500", "141304.747500", "141306.247500", "141307.747500", "141309.247500", "141310.747500", "141312.247500", "141313.747500", "141315.247500", "141316.747500", "141318.247500", "141319.747500", "141321.247500", "141322.747500", "141324.247500", "141325.747500", "141327.247500", "141328.747500", "141330.247500", "141331.747500", "141333.247500", "141334.747500", "141336.247500", "141337.747500", "141339.247500", "141340.747500", "141342.247500", "141343.747500", "141345.247500", "141346.747500", "141348.247500", "141349.747500", "141351.247500", "141352.747500", "141354.247500", "141355.747500", "141357.247500", "141358.747500", "141400.247500", "141401.747500", "141403.247500", "141404.747500", "141406.247500", "141407.747500", "141409.247500", "141410.747500", "141412.247500", "141413.747500", "141415.247500", "141416.747500", "141418.247500", "141419.747500", "141421.247500", "141422.747500", "141424.247500", "141425.747500", "141427.247500", "141428.747500", "141430.247500", "141431.747500", "141433.247500", "141434.747500", "141436.247500", "141437.747500", "141439.247500", "141440.747500", "141442.247500", "141443.747500", "141445.247500", "141446.747500", "141448.247500", "141449.747500", "141451.247500", "141452.747500", "141454.247500", "141455.747500", "141457.247500", "141458.747500", "141500.247500", "141501.747500", "141503.247500", "141504.747500", "141506.247500", "141507.747500", "141509.247500", "141510.747500", "141512.247500", "141513.747500", "141515.247500", "141516.747500", "141518.247500", "141519.747500", "141521.247500", "141522.747500", "141524.247500", "141525.747500", "141527.247500", "141528.747500", "141530.247500", "141531.747500", "141533.247500", "141534.747500", "141536.247500", "141537.747500", "141539.247500", "141540.747500", "141542.247500", "141543.747500", "141545.247500", "141546.747500", "141548.247500", "141549.747500", "141551.247500", "141552.747500", "141554.247500", "141555.747500", "141557.247500", "141558.747500", "141600.247500", "141601.747500", "141603.247500", "141604.747500", "141606.247500", "141607.747500", "141609.247500", "141610.747500", "141612.247500", "141613.747500", "141615.247500", "141616.747500", "141618.247500", "141619.747500", "141621.247500", "141622.747500", "141624.247500", "141625.747500", "141627.247500", "141628.747500", "141630.247500", "141631.747500", "141633.247500", "141634.747500", "141636.247500", "141637.747500", "141639.247500", "141640.747500", "141642.247500", "141643.747500", "141645.247500", "141646.747500", "141648.247500", "141649.747500", "141651.247500", "141652.747500", "141654.247500", "141655.747500", "141657.247500", "141658.747500", "141700.247500", "141701.747500", "141703.247500", "141704.747500", "141706.247500", "141707.747500", "141709.247500", "141710.747500", "141712.247500", "141713.747500", "141715.247500", "141716.747500", "141718.247500", "141719.747500", "141721.247500", "141722.747500", "141724.247500", "141725.747500", "141727.247500", "141728.747500", "141730.247500", "141731.747500", "141733.247500", "141734.747500", "141736.247500", "141737.747500", "141739.247500", "141740.747500", "141742.247500", "141743.747500", "141745.247500", "141746.747500", "141748.247500", "141749.747500", "141751.247500", "141752.747500", "141754.247500", "141755.747500", "141757.247500", "141758.747500", "141800.247500", "141801.747500", "141803.247500", "141804.747500", "141806.247500", "141807.747500", "141809.247500", "141810.747500", "141812.247500", "141813.747500", "141815.247500", "141816.747500", "141818.247500", "141819.747500", "141821.247500", "141822.747500", "141824.247500", "141825.747500", "141827.247500", "141828.747500", "141830.247500", "141831.747500", "141833.247500", "141834.747500", "141836.247500", "141837.747500", "141839.247500", "141840.747500", "141842.247500", "141843.747500", "141845.247500", "141846.747500", "141848.247500", "141849.747500", "141851.247500", "141852.747500", "141854.247500", "141855.747500", "141857.247500", "141858.747500", "141900.247500", "141901.747500", "141903.247500", "141904.747500", "141906.247500", "141907.747500", "141909.247500", "141910.747500", "141912.247500", "141913.747500", "141915.247500", "141916.747500", "141918.247500", "141919.747500", "141921.247500", "141922.747500", "141924.247500", "141925.747500", "141927.247500", "141928.747500", "141930.247500", "141931.747500", "141933.247500", "141934.747500", "141936.247500", "141937.747500", "141939.247500", "141940.747500", "141942.247500", "141943.747500", "141945.247500", "141946.747500", "141948.247500", "141949.747500", "141951.247500", "141952.747500", "141954.247500", "141955.747500", "141957.247500", "141958.747500", "142000.247500", "142001.747500", "142003.247500", "142004.747500", "142006.247500", "142007.747500", "142009.247500", "142010.747500", "142012.247500", "142013.747500", "142015.247500", "142016.747500", "142018.247500", "142019.747500", "142021.247500", "142022.747500", "142024.247500", "142025.747500", "142027.247500", "142028.747500", "142030.247500", "142031.747500", "142033.247500", "142034.747500", "142036.247500", "142037.747500", "142039.247500", "142040.747500", "142042.247500", "142043.747500", "142045.247500", "142046.747500", "142048.247500", "142049.747500", "142051.247500", "142052.747500", "142054.247500", "142055.747500", "142057.247500", "142058.747500", "142100.247500", "142101.747500", "142103.247500", "142104.747500", "142106.247500", "142107.747500", "142109.247500", "142110.747500", "142112.247500", "142113.747500", "142115.247500", "142116.747500", "142118.247500", "142119.747500", "142121.247500", "142122.747500", "142124.247500", "142125.747500", "142127.247500", "142128.747500", "142130.247500", "142131.747500", "142133.247500", "142134.747500", "142136.247500", "142137.747500", "142139.247500", "142140.747500", "142142.247500", "142143.747500", "142145.247500", "142146.747500", "142148.247500", "142149.747500", "142151.247500", "142152.747500", "142154.247500", "142155.747500", "142157.247500", "142158.747500", "142200.247500", "142201.747500", "142203.247500", "142204.747500", "142206.247500", "142207.747500", "142209.247500", "142210.747500", "142212.247500", "142213.747500", "142215.247500", "142216.747500", "142218.247500", "142219.747500", "142221.247500", "142222.747500", "142224.247500", "142225.747500", "142227.247500", "142228.747500", "142230.247500", "142231.747500", "142233.247500", "142234.747500", "142236.247500", "142237.747500", "142239.247500", "142240.747500", "142242.247500", "142243.747500", "142245.247500", "142246.747500", "142248.247500", "142249.747500", "142251.247500", "142252.747500", "142254.247500", "142255.747500", "142257.247500", "142258.747500", "142300.247500", "142301.747500", "142303.247500", "142304.747500", "142306.247500", "142307.747500", "142309.247500", "142310.747500", "142312.247500", "142313.747500", "142315.247500", "142316.747500", "142318.247500", "142319.747500", "142321.247500", "142322.747500", "142324.247500", "142325.747500", "142327.247500", "142328.747500", "142330.247500", "142331.747500", "142333.247500", "142334.747500", "142336.247500", "142337.747500", "142339.247500", "142340.747500", "142342.247500", "142343.747500", "142345.247500", "142346.747500", "142348.247500", "142349.747500", "142351.247500", "142352.747500", "142354.247500", "142355.747500", "142357.247500", "142358.747500", "142400.247500", "142401.747500", "142403.247500", "142404.747500", "142406.247500", "142407.747500", "142409.247500", "142410.747500", "142412.247500", "142413.747500", "142415.247500", "142416.747500", "142418.247500", "142419.747500", "142421.247500", "142422.747500", "142424.247500", "142425.747500", "142427.247500", "142428.747500", "142430.247500", "142431.747500", "142433.247500", "142434.747500", "142436.247500", "142437.747500", "142439.247500", "142440.747500", "142442.247500", "142443.747500", "142445.247500", "142446.747500", "142448.247500", "142449.747500", "142451.247500", "142452.747500", "142454.247500", "142455.747500", "142457.247500", "142458.747500", "142500.247500", "142501.747500", "142503.247500", "142504.747500", "142506.247500", "142507.747500", "142509.247500", "142510.747500", "142512.247500", "142513.747500", "142515.247500", "142516.747500", "142518.247500", "142519.747500", "142521.247500", "142522.747500", "142524.247500", "142525.747500", "142527.247500", "142528.747500", "142530.247500", "142531.747500", "142533.247500", "142534.747500", "142536.247500", "142537.747500", "142539.247500", "142540.747500", "142542.247500", "142543.747500", "142545.247500", "142546.747500", "142548.247500", "142549.747500", "142551.247500", "142552.747500", "142554.247500", "142555.747500", "142557.247500", "142558.747500", "142600.247500", "142601.747500", "142603.247500", "142604.747500", "142606.247500", "142607.747500", "142609.247500", "142610.747500", "142612.247500", "142613.747500", "142615.247500", "142616.747500", "142618.247500", "142619.747500", "142621.247500", "142622.747500", "142624.247500", "142625.747500", "142627.247500", "142628.747500", "142630.247500", "142631.747500", "142633.247500", "142634.747500", "142636.247500", "142637.747500", "142639.247500", "142640.747500", "142642.247500", "142643.747500", "142645.247500", "142646.747500", "142648.247500", "142649.747500", "142651.247500", "142652.747500", "142654.247500", "142655.747500", "142657.247500", "142658.747500", "142700.247500", "142701.747500", "142703.247500", "142704.747500", "142706.247500", "142707.747500", "142709.247500", "142710.747500", "142712.247500", "142713.747500", "142715.247500", "142716.747500", "142718.247500", "142719.747500", "142721.247500", "142722.747500", "142724.247500", "142725.747500", "142727.247500", "142728.747500", "142730.247500", "142731.747500", "142733.247500", "142734.747500", "142736.247500", "142737.747500", "142739.247500", "142740.747500", "142742.247500", "142743.747500", "142745.247500", "142746.747500", "142748.247500", "142749.747500", "142751.247500", "142752.747500", "142754.247500", "142755.747500", "142757.247500", "142758.747500", "142800.247500", "142801.747500", "142803.247500", "142804.747500", "142806.247500", "142807.747500", "142809.247500", "142810.747500", "142812.247500", "142813.747500", "142815.247500", "142816.747500", "142818.247500", "142819.747500", "142821.247500", "142822.747500", "142824.247500", "142825.747500", "142827.247500", "142828.747500", "142830.247500", "142831.747500", "142833.247500", "142834.747500", "142836.247500", "142837.747500", "142839.247500", "142840.747500", "142842.247500", "142843.747500", "142845.247500", "142846.747500", "142848.247500", "142849.747500", "142851.247500", "142852.747500", "142854.247500", "142855.747500", "142857.247500", "142858.747500", "142900.247500", "142901.747500", "142903.247500", "142904.747500", "142906.247500", "142907.747500", "142909.247500", "142910.747500", "142912.247500", "142913.747500", "142915.247500", "142916.747500", "142918.247500", "142919.747500", "142921.247500", "142922.747500", "142924.247500", "142925.747500", "142927.247500", "142928.747500", "142930.247500", "142931.747500", "142933.247500", "142934.747500", "142936.247500", "142937.747500", "142939.247500", "142940.747500", "142942.247500", "142943.747500", "142945.247500", "142946.747500", "142948.247500", "142949.747500", "142951.247500", "142952.747500", "142954.247500", "142955.747500", "142957.247500", "142958.747500", "143000.247500", "143001.747500", "143003.247500", "143004.747500", "143006.247500", "143007.747500", "143009.247500", "143010.747500", "143012.247500", "143013.747500", "143015.247500", "143016.747500", "143018.247500", "143019.747500", "143021.247500", "143022.747500", "143024.247500", "143025.747500", "143027.247500", "143028.747500", "143030.247500", "143031.747500", "143033.247500", "143034.747500", "143036.247500", "143037.747500", "143039.247500", "143040.747500", "143042.247500", "143043.747500", "143045.247500", "143046.747500", "143048.247500", "143049.747500", "143051.247500", "143052.747500", "143054.247500", "143055.747500", "143057.247500", "143058.747500", "143100.247500", "143101.747500", "143103.247500", "143104.747500", "143106.247500", "143107.747500", "143109.247500", "143110.747500", "143112.247500", "143113.747500", "143115.247500", "143116.747500", "143118.247500", "143119.747500", "143121.247500", "143122.747500", "143124.247500", "143125.747500", "143127.247500", "143128.747500", "143130.247500", "143131.747500", "143133.247500", "143134.747500", "143136.247500", "143137.747500", "143139.247500", "143140.747500", "143142.247500", "143143.747500", "143145.247500", "143146.747500", "143148.247500", "143149.747500", "143151.247500", "143152.747500", "143154.247500", "143155.747500", "143157.247500", "143158.747500", "143200.247500", "143201.747500", "143203.247500", "143204.747500", "143206.247500", "143207.747500", "143209.247500", "143210.747500", "143212.247500", "143213.747500", "143215.247500", "143216.747500", "143218.247500", "143219.747500", "143221.247500", "143222.747500", "143224.247500", "143225.747500", "143227.247500", "143228.747500", "143230.247500", "143231.747500", "143233.247500", "143234.747500", "143236.247500", "143237.747500", "143239.247500", "143240.747500", "143242.247500", "143243.747500", "143245.247500", "143246.747500", "143248.247500", "143249.747500", "143251.247500", "143252.747500", "143254.247500", "143255.747500", "143257.247500", "143258.747500", "143300.247500", "143301.747500", "143303.247500", "143304.747500", "143306.247500", "143307.747500", "143309.247500", "143310.747500", "143312.247500", "143313.747500", "143315.247500", "143316.747500", "143318.247500", "143319.747500", "143321.247500", "143322.747500", "143324.247500", "143325.747500", "143327.247500", "143328.747500", "143330.247500", "143331.747500", "143333.247500", "143334.747500", "143336.247500", "143337.747500", "143339.247500", "143340.747500", "143342.247500", "143343.747500", "143345.247500", "143346.747500", "143348.247500", "143349.747500", "143351.247500", "143352.747500", "143354.247500", "143355.747500", "143357.247500", "143358.747500", "143400.247500", "143401.747500", "143403.247500", "143404.747500", "143406.247500", "143407.747500", "143409.247500", "143410.747500", "143412.247500", "143413.747500", "143415.247500", "143416.