{
  "AcquisitionMatrixPE": 106,
  "AcquisitionNumber": 1,
  "AcquisitionTime": "12:44:14.015000",
  "BandwidthPerPixelPhaseEncode": 13.477,
  "BaseResolution": 106,
  "BodyPartExamined": "BRAIN",
  "CoilCombinationMethod": "Sum of Squares",
  "ConsistencyInfo": "N4_VE11C_LATEST_20160120",
  "ConversionSoftware": "dcm2niix",
  "ConversionSoftwareVersion": "v1.0.20220720",
  "DerivedVendorReportedEchoSpacing": 0.000700005,
  "DeviceSerialNumber": "166108",
  "DwellTime": 2.6e-06,
  "EchoTime": 0.03,
  "EchoTrainLength": 80,
  "EffectiveEchoSpacing": 0.000700005,
  "FlipAngle": 62,
  "HeudiconvVersion": "1.3.0",
  "ImageComments": "Unaliased MB4/PE3/LB",
  "ImageOrientationPatientDICOM": [1, 0, 0, 0, 0.993768, -0.111469],
  "ImageOrientationText": "Tra>Cor(-6.4)",
  "ImageType": [
    "ORIGINAL",
    "PRIMARY",
    "M",
    "MB",
    "ND",
    "MOSAIC"
],
  "ImagingFrequency": 123.244,
  "InPlanePhaseEncodingDirectionDICOM": "COL",
  "InstitutionAddress": "Bedford Way 26,London,London,GB,WC1H 0AP",
  "InstitutionName": "University College",
  "InstitutionalDepartmentName": "Department",
  "MRAcquisitionType": "2D",
  "MagneticFieldStrength": 3,
  "Manufacturer": "Siemens",
  "ManufacturersModelName": "Prisma",
  "MatrixCoilMode": "SENSE",
  "Modality": "MR",
  "MultibandAccelerationFactor": 4,
  "NonlinearGradientCorrection": false,
  "PartialFourier": 0.75,
  "PatientPosition": "HFS",
  "PercentPhaseFOV": 100,
  "PercentSampling": 100,
  "PhaseEncodingDirection": "j-",
  "PhaseEncodingSteps": 80,
  "PhaseResolution": 1,
  "PixelBandwidth": 1815,
  "ProcedureStepDescription": "Egor^MovieProject2",
  "ProtocolName": "func-bold_task-motor_run-02",
  "PulseSequenceDetails": "%CustomerSeq%\\cmrr_mbep2d_bold",
  "ReceiveCoilActiveElements": "HEA;HEP",
  "ReceiveCoilName": "Head_32",
  "ReconMatrixPE": 106,
  "RepetitionTime": 1,
  "SAR": 0.0332543,
  "ScanOptions": "PFP\\FS\\EXT",
  "ScanningSequence": "EP",
  "SequenceName": "epfid2d1_106",
  "SequenceVariant": "SK\\SS",
  "SeriesDescription": "func-bold_task-motor_run-02",
  "SeriesNumber": 4,
  "ShimSetting": [-1600, 600, 7348, 203, -105, -4, 147, 29],
  "SliceThickness": 2,
  "SliceTiming": [0, 0.535, 0.09, 0.625, 0.18, 0.7125, 0.2675, 0.8025, 0.3575, 0.8925, 0.445, 0, 0.535, 0.09, 0.625, 0.18, 0.7125, 0.2675, 0.8025, 0.3575, 0.8925, 0.445, 0, 0.535, 0.09, 0.625, 0.18, 0.7125, 0.2675, 0.8025, 0.3575, 0.8925, 0.445, 0, 0.535, 0.09, 0.625, 0.18, 0.7125, 0.2675, 0.8025, 0.3575, 0.8925, 0.445],
  "SoftwareVersions": "syngo MR E11",
  "SpacingBetweenSlices": 2,
  "StationName": "AWP166108",
  "TaskName": "somatotopy",
  "TotalReadoutTime": 0.0735005,
  "TxRefAmp": 221.203,
  "WipMemBlock": "dfe09169-7079-4985-a749-92da287e5fbe||Sequence: R016 ve11c/master r/e634e98; Dec 19 2017 11:00:25 by eja",
  "dcmmeta_affine": [
    [-2.0, 0.0, 0.0, 106.0],
    [0.0, 1.987535834312439, -0.22293785214424133, -89.42637634277344],
    [0.0, 0.22293785214424133, 1.987535834312439, -1.356697678565979],
    [0.0, 0.0, 0.0, 1.0]
],
  "dcmmeta_reorient_transform": [
    [0.0, -1.0, 0.0, 105.0],
    [1.0, 0.0, 0.0, 0.0],
    [0.0, 0.0, 1.0, 0.0],
    [0.0, 0.0, 0.0, 1.0]
],
  "dcmmeta_shape": [106, 106, 44, 469],
  "dcmmeta_slice_dim": 2,
  "dcmmeta_version": 0.6,
  "global": {
    "const": {
      "AcquisitionMatrix": [106, 0, 0, 106],
      "AngioFlag": "N",
      "BitsAllocated": 16,
      "BitsStored": 16,
      "BodyPartExamined": "BRAIN",
      "CardiacNumberOfImages": 1,
      "Columns": 742,
      "EchoNumbers": 1,
      "EchoTime": 30.0,
      "EchoTrainLength": 80,
      "FlipAngle": 62.0,
      "HighBit": 15,
      "ImageOrientationPatient": [1.0, 0.0, 0.0, 0.0, 0.99376791982449, -0.1114689262876],
      "ImagePositionPatient": [-742.0, -751.30128021338, 92.946013938319],
      "ImageType": [
        "ORIGINAL",
        "PRIMARY",
        "M",
        "MB",
        "ND",
        "MOSAIC"
],
      "ImagedNucleus": "1H",
      "ImagingFrequency": 123.243675,
      "InPlanePhaseEncodingDirection": "COL",
      "MRAcquisitionType": "2D",
      "MagneticFieldStrength": 3.0,
      "Manufacturer": "SIEMENS",
      "ManufacturerModelName": "Prisma",
      "Modality": "MR",
      "NominalInterval": 0,
      "NumberOfAverages": 1.0,
      "NumberOfPhaseEncodingSteps": 80,
      "PercentPhaseFieldOfView": 100.0,
      "PercentSampling": 100.0,
      "PerformedProcedureStepStartTime": "122131.827000",
      "PhotometricInterpretation": "MONOCHROME2",
      "PixelBandwidth": 1815.0,
      "PixelRepresentation": 0,
      "PixelSpacing": [2.0, 2.0],
      "ProtocolName": "func-bold_task-motor_run-02",
      "RepetitionTime": 1000.0,
      "Rows": 742,
      "SAR": 0.03325433638094,
      "SamplesPerPixel": 1,
      "ScanOptions": [
        "PFP",
        "FS",
        "EXT"
],
      "ScanningSequence": "EP",
      "SequenceName": "epfid2d1_106",
      "SequenceVariant": [
        "SK",
        "SS"
],
      "SeriesDescription": "func-bold_task-motor_run-02",
      "SeriesNumber": 4,
      "SeriesTime": "124437.409000",
      "SliceLocation": 8.620019903591,
      "SliceThickness": 2.0,
      "SmallestImagePixelValue": 0,
      "SoftwareVersions": "syngo MR E11",
      "SpacingBetweenSlices": 1.9999999916619,
      "SpecificCharacterSet": "ISO_IR 100",
      "StudyID": "1",
      "StudyTime": "122131.718000",
      "TransmitCoilName": "Body",
      "VariableFlipAngleFlag": "N",
      "WindowCenterWidthExplanation": "Algo1",
      "dBdt": 0.0},
    "slices": {}
  },
  "time": {
    "samples": {
      "AcquisitionNumber": [1, 2, 3, 4, 5, 6, 7, 8, 9, 10, 11, 12, 13, 14, 15, 16, 17, 18, 19, 20, 21, 22, 23, 24, 25, 26, 27, 28, 29, 30, 31, 32, 33, 34, 35, 36, 37, 38, 39, 40, 41, 42, 43, 44, 45, 46, 47, 48, 49, 50, 51, 52, 53, 54, 55, 56, 57, 58, 59, 60, 61, 62, 63, 64, 65, 66, 67, 68, 69, 70, 71, 72, 73, 74, 75, 76, 77, 78, 79, 80, 81, 82, 83, 84, 85, 86, 87, 88, 89, 90, 91, 92, 93, 94, 95, 96, 97, 98, 99, 100, 101, 102, 103, 104, 105, 106, 107, 108, 109, 110, 111, 112, 113, 114, 115, 116, 117, 118, 119, 120, 121, 122, 123, 124, 125, 126, 127, 128, 129, 130, 131, 132, 133, 134, 135, 136, 137, 138, 139, 140, 141, 142, 143, 144, 145, 146, 147, 148, 149, 150, 151, 152, 153, 154, 155, 156, 157, 158, 159, 160, 161, 162, 163, 164, 165, 166, 167, 168, 169, 170, 171, 172, 173, 174, 175, 176, 177, 178, 179, 180, 181, 182, 183, 184, 185, 186, 187, 188, 189, 190, 191, 192, 193, 194, 195, 196, 197, 198, 199, 200, 201, 202, 203, 204, 205, 206, 207, 208, 209, 210, 211, 212, 213, 214, 215, 216, 217, 218, 219, 220, 221, 222, 223, 224, 225, 226, 227, 228, 229, 230, 231, 232, 233, 234, 235, 236, 237, 238, 239, 240, 241, 242, 243, 244, 245, 246, 247, 248, 249, 250, 251, 252, 253, 254, 255, 256, 257, 258, 259, 260, 261, 262, 263, 264, 265, 266, 267, 268, 269, 270, 271, 272, 273, 274, 275, 276, 277, 278, 279, 280, 281, 282, 283, 284, 285, 286, 287, 288, 289, 290, 291, 292, 293, 294, 295, 296, 297, 298, 299, 300, 301, 302, 303, 304, 305, 306, 307, 308, 309, 310, 311, 312, 313, 314, 315, 316, 317, 318, 319, 320, 321, 322, 323, 324, 325, 326, 327, 328, 329, 330, 331, 332, 333, 334, 335, 336, 337, 338, 339, 340, 341, 342, 343, 344, 345, 346, 347, 348, 349, 350, 351, 352, 353, 354, 355, 356, 357, 358, 359, 360, 361, 362, 363, 364, 365, 366, 367, 368, 369, 370, 371, 372, 373, 374, 375, 376, 377, 378, 379, 380, 381, 382, 383, 384, 385, 386, 387, 388, 389, 390, 391, 392, 393, 394, 395, 396, 397, 398, 399, 400, 401, 402, 403, 404, 405, 406, 407, 408, 409, 410, 411, 412, 413, 414, 415, 416, 417, 418, 419, 420, 421, 422, 423, 424, 425, 426, 427, 428, 429, 430, 431, 432, 433, 434, 435, 436, 437, 438, 439, 440, 441, 442, 443, 444, 445, 446, 447, 448, 449, 450, 451, 452, 453, 454, 455, 456, 457, 458, 459, 460, 461, 462, 463, 464, 465, 466, 467, 468, 469],
      "AcquisitionTime": ["124414.015000", "124415.015000", "124416.015000", "124417.015000", "124418.015000", "124419.015000", "124420.015000", "124421.015000", "124422.015000", "124423.015000", "124424.015000", "124425.015000", "124426.015000", "124427.015000", "124428.015000", "124429.015000", "124430.015000", "124431.015000", "124432.015000", "124433.015000", "124434.015000", "124435.015000", "124436.015000", "124437.015000", "124438.015000", "124439.015000", "124440.015000", "124441.015000", "124442.015000", "124443.015000", "124444.015000", "124445.015000", "124446.015000", "124447.015000", "124448.015000", "124449.015000", "124450.015000", "124451.015000", "124452.015000", "124453.015000", "124454.015000", "124455.015000", "124456.015000", "124457.015000", "124458.015000", "124459.015000", "124500.015000", "124501.015000", "124502.015000", "124503.015000", "124504.015000", "124505.015000", "124506.015000", "124507.015000", "124508.015000", "124509.015000", "124510.015000", "124511.015000", "124512.015000", "124513.015000", "124514.015000", "124515.015000", "124516.015000", "124517.015000", "124518.015000", "124519.015000", "124520.015000", "124521.015000", "124522.015000", "124523.015000", "124524.015000", "124525.015000", "124526.015000", "124527.015000", "124528.015000", "124529.015000", "124530.015000", "124531.015000", "124532.015000", "124533.015000", "124534.015000", "124535.015000", "124536.015000", "124537.015000", "124538.015000", "124539.015000", "124540.015000", "124541.015000", "124542.015000", "124543.015000", "124544.015000", "124545.015000", "124546.015000", "124547.015000", "124548.015000", "124549.015000", "124550.015000", "124551.015000", "124552.015000", "124553.015000", "124554.015000", "124555.015000", "124556.015000", "124557.015000", "124558.015000", "124559.015000", "124600.015000", "124601.015000", "124602.015000", "124603.015000", "124604.015000", "124605.015000", "124606.015000", "124607.015000", "124608.015000", "124609.015000", "124610.015000", "124611.015000", "124612.015000", "124613.015000", "124614.015000", "124615.015000", "124616.015000", "124617.015000", "124618.015000", "124619.015000", "124620.015000", "124621.015000", "124622.015000", "124623.015000", "124624.015000", "124625.015000", "124626.015000", "124627.015000", "124628.015000", "124629.015000", "124630.015000", "124631.015000", "124632.015000", "124633.015000", "124634.015000", "124635.015000", "124636.015000", "124637.015000", "124638.015000", "124639.015000", "124640.015000", "124641.015000", "124642.015000", "124643.015000", "124644.015000", "124645.015000", "124646.015000", "124647.015000", "124648.015000", "124649.015000", "124650.015000", "124651.015000", "124652.015000", "124653.015000", "124654.015000", "124655.015000", "124656.015000", "124657.015000", "124658.015000", "124659.015000", "124700.015000", "124701.015000", "124702.015000", "124703.015000", "124704.015000", "124705.015000", "124706.015000", "124707.015000", "124708.015000", "124709.015000", "124710.015000", "124711.015000", "124712.015000", "124713.015000", "124714.015000", "124715.015000", "124716.015000", "124717.015000", "124718.015000", "124719.015000", "124720.015000", "124721.015000", "124722.015000", "124723.015000", "124724.015000", "124725.015000", "124726.015000", "124727.015000", "124728.015000", "124729.015000", "124730.015000", "124731.015000", "124732.015000", "124733.015000", "124734.015000", "124735.015000", "124736.015000", "124737.015000", "124738.015000", "124739.015000", "124740.015000", "124741.015000", "124742.015000", "124743.015000", "124744.015000", "124745.015000", "124746.015000", "124747.015000", "124748.015000", "124749.015000", "124750.015000", "124751.015000", "124752.015000", "124753.015000", "124754.015000", "124755.015000", "124756.015000", "124757.015000", "124758.015000", "124759.015000", "124800.015000", "124801.015000", "124802.015000", "124803.015000", "124804.015000", "124805.015000", "124806.015000", "124807.015000", "124808.015000", "124809.015000", "124810.015000", "124811.015000", "124812.015000", "124813.015000", "124814.015000", "124815.015000", "124816.015000", "124817.015000", "124818.015000", "124819.015000", "124820.015000", "124821.015000", "124822.015000", "124823.015000", "124824.015000", "124825.015000", "124826.015000", "124827.015000", "124828.015000", "124829.015000", "124830.015000", "124831.015000", "124832.015000", "124833.015000", "124834.015000", "124835.015000", "124836.015000", "124837.015000", "124838.015000", "124839.015000", "124840.015000", "124841.015000", "124842.015000", "124843.015000", "124844.015000", "124845.015000", "124846.015000", "124847.015000", "124848.015000", "124849.015000", "124850.015000", "124851.015000", "124852.015000", "124853.015000", "124854.015000", "124855.015000", "124856.015000", "124857.015000", "124858.015000", "124859.015000", "124900.015000", "124901.015000", "124902.015000", "124903.015000", "124904.015000", "124905.015000", "124906.015000", "124907.015000", "124908.015000", "124909.015000", "124910.015000", "124911.015000", "124912.015000", "124913.015000", "124914.015000", "124915.015000", "124916.015000", "124917.015000", "124918.015000", "124919.015000", "124920.015000", "124921.015000", "124922.015000", "124923.015000", "124924.015000", "124925.015000", "124926.015000", "124927.015000", "124928.015000", "124929.015000", "124930.015000", "124931.015000", "124932.015000", "124933.015000", "124934.015000", "124935.015000", "124936.015000", "124937.015000", "124938.015000", "124939.015000", "124940.015000", "124941.015000", "124942.015000", "124943.015000", "124944.015000", "124945.015000", "124946.015000", "124947.015000", "124948.015000", "124949.015000", "124950.015000", "124951.015000", "124952.015000", "124953.015000", "124954.015000", "124955.015000", "124956.015000", "124957.015000", "124958.015000", "124959.015000", "125000.015000", "125001.015000", "125002.015000", "125003.015000", "125004.015000", "125005.015000", "125006.015000", "125007.015000", "125008.015000", "125009.015000", "125010.015000", "125011.015000", "125012.015000", "125013.015000", "125014.015000", "125015.015000", "125016.015000", "125017.015000", "125018.015000", "125019.015000", "125020.015000", "125021.015000", "125022.015000", "125023.015000", "125024.015000", "125025.015000", "125026.015000", "125027.015000", "125028.015000", "125029.015000", "125030.015000", "125031.015000", "125032.015000", "125033.015000", "125034.015000", "125035.015000", "125036.015000", "125037.015000", "125038.015000", "125039.015000", "125040.015000", "125041.015000", "125042.015000", "125043.015000", "125044.015000", "125045.015000", "125046.015000", "125047.015000", "125048.015000", "125049.015000", "125050.015000", "125051.015000", "125052.015000", "125053.015000", "125054.015000", "125055.015000", "125056.015000", "125057.015000", "125058.015000", "125059.015000", "125100.015000", "125101.015000", "125102.015000", "125103.015000", "125104.015000", "125105.015000", "125106.015000", "125107.015000", "125108.015000", "125109.015000", "125110.015000", "125111.015000", "125112.015000", "125113.015000", "125114.015000", "125115.015000", "125116.015000", "125117.015000", "125118.015000", "125119.015000", "125120.015000", "125121.015000", "125122.015000", "125123.015000", "125124.015000", "125125.015000", "125126.015000", "125127.015000", "125128.015000", "125129.015000", "125130.015000", "125131.015000", "125132.015000", "125133.015000", "125134.015000", "125135.015000", "125136.015000", "125137.015000", "125138.015000", "125139.015000", "125140.015000", "125141.015000", "125142.015000", "125143.015000", "125144.015000", "125145.015000", "125146.015000", "125147.015000", "125148.015000", "125149.015000", "125150.015000", "125151.015000", "125152.015000", "125153.015000", "125154.015000", "125155.015000", "125156.015000", "125157.015000", "125158.015000", "125159.015000", "125200.015000", "125201.015000", "125202.015000"],
      "ContentTime": ["124437.412000", "124437.415000", "124437.417000", "124437.420000", "124437.422000", "124437.425000", "124437.427000", "124437.430000", "124437.432000", "124437.435000", "124437.437000", "124437.440000", "124437.451000", "124437.454000", "124437.456000", "124437.459000", "124437.461000", "124437.464000", "124437.466000", "124437.469000", "124437.471000", "124437.474000", "124457.386000", "124457.389000", "124457.391000", "124457.394000", "124457.397000", "124457.399000", "124457.401000", "124457.404000", "124457.406000", "124457.423000", "124457.426000", "124457.428000", "124457.431000", "124457.433000", "124457.436000", "124457.438000", "124457.441000", "124457.443000", "124457.445000", "124457.448000", "124517.386000", "124517.389000", "124517.391000", "124517.394000", "124517.397000", "124517.399000", "124517.402000", "124517.404000", "124517.407000", "124517.409000", "124517.412000", "124517.414000", "124517.417000", "124517.419000", "124517.422000", "124517.424000", "124517.427000", "124517.429000", "124517.432000", "124517.434000", "124537.387000", "124537.390000", "124537.392000", "124537.395000", "124537.398000", "124537.400000", "124537.403000", "124537.405000", "124537.408000", "124537.410000", "124537.413000", "124537.415000", "124537.418000", "124537.420000", "124537.423000", "124537.425000", "124537.428000", "124537.430000", "124537.433000", "124537.435000", "124557.386000", "124557.389000", "124557.392000", "124557.394000", "124557.397000", "124557.399000", "124557.402000", "124557.405000", "124557.407000", "124557.409000", "124557.412000", "124557.414000", "124557.417000", "124557.419000", "124557.422000", "124557.424000", "124557.427000", "124557.429000", "124557.432000", "124557.434000", "124617.386000", "124617.389000", "124617.391000", "124617.394000", "124617.396000", "124617.399000", "124617.401000", "124617.404000", "124617.406000", "124617.409000", "124617.411000", "124617.414000", "124617.416000", "124617.419000", "124617.425000", "124617.428000", "124617.430000", "124617.433000", "124617.435000", "124617.438000", "124637.387000", "124637.389000", "124637.392000", "124637.394000", "124637.397000", "124637.399000", "124637.402000", "124637.404000", "124637.407000", "124637.409000", "124637.412000", "124637.414000", "124637.417000", "124637.419000", "124637.422000", "124637.424000", "124637.427000", "124637.429000", "124637.432000", "124637.434000", "124657.386000", "124657.389000", "124657.392000", "124657.394000", "124657.397000", "124657.400000", "124657.402000", "124657.404000", "124657.407000", "124657.410000", "124657.412000", "124657.414000", "124657.417000", "124657.420000", "124657.422000", "124657.424000", "124657.427000", "124657.429000", "124657.432000", "124657.435000", "124717.386000", "124717.389000", "124717.392000", "124717.394000", "124717.396000", "124717.399000", "124717.401000", "124717.404000", "124717.406000", "124717.409000", "124717.411000", "124717.414000", "124717.416000", "124717.419000", "124717.421000", "124717.424000", "124717.426000", "124717.429000", "124717.431000", "124717.434000", "124737.387000", "124737.389000", "124737.392000", "124737.394000", "124737.397000", "124737.399000", "124737.402000", "124737.404000", "124737.407000", "124737.409000", "124737.412000", "124737.414000", "124737.417000", "124737.419000", "124737.422000", "124737.424000", "124737.427000", "124737.429000", "124737.432000", "124737.434000", "124757.387000", "124757.390000", "124757.393000", "124757.395000", "124757.398000", "124757.400000", "124757.403000", "124757.405000", "124757.408000", "124757.410000", "124757.413000", "124757.415000", "124757.418000", "124757.420000", "124757.423000", "124757.425000", "124757.428000", "124757.430000", "124757.433000", "124757.435000", "124817.386000", "124817.389000", "124817.392000", "124817.394000", "124817.397000", "124817.400000", "124817.402000", "124817.405000", "124817.407000", "124817.410000", "124817.412000", "124817.415000", "124817.417000", "124817.420000", "124817.422000", "124817.425000", "124817.427000", "124817.430000", "124817.432000", "124817.435000", "124837.386000", "124837.389000", "124837.392000", "124837.394000", "124837.397000", "124837.399000", "124837.402000", "124837.404000", "124837.406000", "124837.409000", "124837.412000", "124837.414000", "124837.416000", "124837.419000", "124837.421000", "124837.424000", "124837.426000", "124837.429000", "124837.431000", "124837.434000", "124857.399000", "124857.402000", "124857.405000", "124857.407000", "124857.410000", "124857.412000", "124857.415000", "124857.417000", "124857.420000", "124857.422000", "124857.425000", "124857.427000", "124857.429000", "124857.432000", "124857.435000", "124857.437000", "124857.440000", "124857.442000", "124857.445000", "124857.447000", "124917.386000", "124917.389000", "124917.392000", "124917.394000", "124917.397000", "124917.399000", "124917.402000", "124917.404000", "124917.407000", "124917.409000", "124917.412000", "124917.414000", "124917.416000", "124917.419000", "124917.422000", "124917.424000", "124917.426000", "124917.429000", "124917.432000", "124917.434000", "124937.386000", "124937.389000", "124937.392000", "124937.394000", "124937.397000", "124937.399000", "124937.402000", "124937.404000", "124937.407000", "124937.409000", "124937.412000", "124937.414000", "124937.417000", "124937.419000", "124937.422000", "124937.424000", "124937.427000", "124937.430000", "124937.432000", "124937.435000", "124957.386000", "124957.389000", "124957.392000", "124957.394000", "124957.397000", "124957.399000", "124957.402000", "124957.404000", "124957.407000", "124957.409000", "124957.412000", "124957.414000", "124957.417000", "124957.419000", "124957.422000", "124957.424000", "124957.427000", "124957.429000", "124957.432000", "124957.434000", "125017.387000", "125017.390000", "125017.393000", "125017.395000", "125017.398000", "125017.400000", "125017.403000", "125017.405000", "125017.408000", "125017.410000", "125017.413000", "125017.415000", "125017.418000", "125017.420000", "125017.423000", "125017.425000", "125017.427000", "125017.430000", "125017.433000", "125017.435000", "125037.386000", "125037.389000", "125037.392000", "125037.394000", "125037.397000", "125037.399000", "125037.402000", "125037.404000", "125037.407000", "125037.409000", "125037.412000", "125037.414000", "125037.417000", "125037.419000", "125037.422000", "125037.424000", "125037.427000", "125037.429000", "125037.432000", "125037.434000", "125057.386000", "125057.389000", "125057.392000", "125057.394000", "125057.396000", "125057.399000", "125057.402000", "125057.404000", "125057.406000", "125057.409000", "125057.411000", "125057.414000", "125057.416000", "125057.419000", "125057.422000", "125057.424000", "125057.426000", "125057.429000", "125057.431000", "125057.434000", "125117.386000", "125117.389000", "125117.392000", "125117.394000", "125117.397000", "125117.399000", "125117.402000", "125117.404000", "125117.407000", "125117.409000", "125117.412000", "125117.414000", "125117.417000", "125117.419000", "125117.422000", "125117.424000", "125117.427000", "125117.429000", "125117.432000", "125117.434000", "125137.386000", "125137.390000", "125137.392000", "125137.395000", "125137.397000", "125137.400000", "125137.402000", "125137.405000", "125137.407000", "125137.410000", "125137.412000", "125137.415000", "125137.417000", "125137.420000", "125137.422000", "125137.425000", "125137.427000", "125137.430000", "125137.432000", "125137.435000", "125157.386000", "125157.389000", "125157.392000", "125157.394000", "125157.397000", "125157.399000", "125157.402000", "125157.404000", "125157.407000", "125157.409000", "125157.412000", "125157.414000", "125157.417000", "125157.419000", "125157.422000", "125157.424000", "125157.427000", "125157.429000", "125157.432000", "125157.434000", "125203.979000", "125203.982000", "125203.985000", "125203.988000", "125203.990000", "125203.993000", "125203.995000"],
