{
  "AcquisitionMatrixPE": 106,
  "AcquisitionNumber": 1,
  "AcquisitionTime": "13:05:39.982500",
  "BandwidthPerPixelPhaseEncode": 16.846,
  "BaseResolution": 106,
  "BodyPartExamined": "BRAIN",
  "CoilCombinationMethod": "Sum of Squares",
  "ConsistencyInfo": "N4_VE11C_LATEST_20160120",
  "ConversionSoftware": "dcm2niix",
  "ConversionSoftwareVersion": "v1.0.20220720",
  "DerivedVendorReportedEchoSpacing": 0.000560012,
  "DeviceSerialNumber": "166108",
  "DwellTime": 1.8e-06,
  "EchoTime": 0.0352,
  "EchoTrainLength": 106,
  "EffectiveEchoSpacing": 0.000560012,
  "FlipAngle": 60,
  "HeudiconvVersion": "1.3.0",
  "ImageComments": "Unaliased MB4/PE3/LB",
  "ImageOrientationPatientDICOM": [1, 0, 0, 0, 0.956305, -0.292372],
  "ImageOrientationText": "Tra>Cor(-17.0)",
  "ImageType": [
    "ORIGINAL",
    "PRIMARY",
    "M",
    "MB",
    "ND",
    "MOSAIC"
],
  "ImagingFrequency": 123.244,
  "InPlanePhaseEncodingDirectionDICOM": "COL",
  "InstitutionAddress": "Bedford Way 26,London,London,GB,WC1H 0AP",
  "InstitutionName": "University College",
  "InstitutionalDepartmentName": "Department",
  "MRAcquisitionType": "2D",
  "MagneticFieldStrength": 3,
  "Manufacturer": "Siemens",
  "ManufacturersModelName": "Prisma",
  "MatrixCoilMode": "SENSE",
  "Modality": "MR",
  "MultibandAccelerationFactor": 4,
  "NonlinearGradientCorrection": false,
  "PartialFourier": 1,
  "PatientPosition": "HFS",
  "PercentPhaseFOV": 100,
  "PercentSampling": 100,
  "PhaseEncodingDirection": "j-",
  "PhaseEncodingSteps": 106,
  "PhaseResolution": 1,
  "PixelBandwidth": 2620,
  "ProcedureStepDescription": "Egor^MovieProject2",
  "ProtocolName": "func-bold_task-pRF_run-01",
  "PulseSequenceDetails": "%CustomerSeq%\\cmrr_mbep2d_bold",
  "ReceiveCoilActiveElements": "HEA;HEP",
  "ReceiveCoilName": "Head_32",
  "ReconMatrixPE": 106,
  "RepetitionTime": 1,
  "SAR": 0.0595672,
  "ScanOptions": "FS\\EXT",
  "ScanningSequence": "EP",
  "SequenceName": "epfid2d1_106",
  "SequenceVariant": "SK\\SS",
  "SeriesDescription": "func-bold_task-pRF_run-01",
  "SeriesNumber": 10,
  "ShimSetting": [-1596, 607, 7399, 383, -78, -9, 147, 33],
  "SliceThickness": 2,
  "SliceTiming": [0, 0.4075, 0.815, 0.245, 0.6525, 0.08, 0.49, 0.8975, 0.325, 0.735, 0.1625, 0.57, 0, 0.4075, 0.815, 0.245, 0.6525, 0.08, 0.49, 0.8975, 0.325, 0.735, 0.1625, 0.57, 0, 0.4075, 0.815, 0.245, 0.6525, 0.08, 0.49, 0.8975, 0.325, 0.735, 0.1625, 0.57, 0, 0.4075, 0.815, 0.245, 0.6525, 0.08, 0.49, 0.8975, 0.325, 0.735, 0.1625, 0.57],
  "SoftwareVersions": "syngo MR E11",
  "SpacingBetweenSlices": 2,
  "StationName": "AWP166108",
  "TaskName": "retinotopy",
  "TotalReadoutTime": 0.0588013,
  "TxRefAmp": 221.203,
  "WipMemBlock": "e4a5ca97-6ffa-42af-b7f6-c1fa33b0ba24||Sequence: R016 ve11c/master r/e634e98; Dec 19 2017 11:00:25 by eja",
  "dcmmeta_affine": [
    [-2.0, 0.0, 0.0, 106.0],
    [0.0, 1.9126094579696655, -0.5847434401512146, -82.01302337646484],
    [0.0, 0.5847434401512146, 1.912609577178955, -28.471054077148438],
    [0.0, 0.0, 0.0, 1.0]
],
  "dcmmeta_reorient_transform": [
    [0.0, -1.0, 0.0, 105.0],
    [1.0, 0.0, 0.0, 0.0],
    [0.0, 0.0, 1.0, 0.0],
    [0.0, 0.0, 0.0, 1.0]
],
  "dcmmeta_shape": [106, 106, 48, 356],
  "dcmmeta_slice_dim": 2,
  "dcmmeta_version": 0.6,
  "global": {
    "const": {
      "AcquisitionMatrix": [106, 0, 0, 106],
      "AngioFlag": "N",
      "BitsAllocated": 16,
      "BitsStored": 16,
      "BodyPartExamined": "BRAIN",
      "CardiacNumberOfImages": 1,
      "Columns": 742,
      "EchoNumbers": 1,
      "EchoTime": 35.2,
      "EchoTrainLength": 106,
      "FlipAngle": 60.0,
      "HighBit": 15,
      "ImageOrientationPatient": [1.0, 0.0, 0.0, 0.0, 0.95630475535632, -0.2923717067072],
      "ImagePositionPatient": [-742.0, -727.02080311123, 218.87541059142],
      "ImageType": [
        "ORIGINAL",
        "PRIMARY",
        "M",
        "MB",
        "ND",
        "MOSAIC"
],
      "ImagedNucleus": "1H",
      "ImagingFrequency": 123.243663,
      "InPlanePhaseEncodingDirection": "COL",
      "MRAcquisitionType": "2D",
      "MagneticFieldStrength": 3.0,
      "Manufacturer": "SIEMENS",
      "ManufacturerModelName": "Prisma",
      "Modality": "MR",
      "NominalInterval": 0,
      "NumberOfAverages": 1.0,
      "NumberOfPhaseEncodingSteps": 106,
      "PercentPhaseFieldOfView": 100.0,
      "PercentSampling": 100.0,
      "PerformedProcedureStepStartTime": "122131.827000",
      "PhotometricInterpretation": "MONOCHROME2",
      "PixelBandwidth": 2620.0,
      "PixelRepresentation": 0,
      "PixelSpacing": [2.0, 2.0],
      "ProtocolName": "func-bold_task-pRF_run-01",
      "RepetitionTime": 1000.0,
      "Rows": 742,
      "SAR": 0.05956718328665,
      "SamplesPerPixel": 1,
      "ScanOptions": [
        "FS",
        "EXT"
],
      "ScanningSequence": "EP",
      "SequenceName": "epfid2d1_106",
      "SequenceVariant": [
        "SK",
        "SS"
],
      "SeriesDescription": "func-bold_task-pRF_run-01",
      "SeriesNumber": 10,
      "SeriesTime": "130617.411000",
      "SliceLocation": -3.2487170381367,
      "SliceThickness": 2.0,
      "SmallestImagePixelValue": 0,
      "SoftwareVersions": "syngo MR E11",
      "SpacingBetweenSlices": 2.00000006642,
      "SpecificCharacterSet": "ISO_IR 100",
      "StudyID": "1",
      "StudyTime": "122131.718000",
      "TransmitCoilName": "Body",
      "VariableFlipAngleFlag": "N",
      "WindowCenterWidthExplanation": "Algo1",
      "dBdt": 0.0},
    "slices": {}
  },
  "time": {
    "samples": {
      "AcquisitionNumber": [1, 2, 3, 4, 5, 6, 7, 8, 9, 10, 11, 12, 13, 14, 15, 16, 17, 18, 19, 20, 21, 22, 23, 24, 25, 26, 27, 28, 29, 30, 31, 32, 33, 34, 35, 36, 37, 38, 39, 40, 41, 42, 43, 44, 45, 46, 47, 48, 49, 50, 51, 52, 53, 54, 55, 56, 57, 58, 59, 60, 61, 62, 63, 64, 65, 66, 67, 68, 69, 70, 71, 72, 73, 74, 75, 76, 77, 78, 79, 80, 81, 82, 83, 84, 85, 86, 87, 88, 89, 90, 91, 92, 93, 94, 95, 96, 97, 98, 99, 100, 101, 102, 103, 104, 105, 106, 107, 108, 109, 110, 111, 112, 113, 114, 115, 116, 117, 118, 119, 120, 121, 122, 123, 124, 125, 126, 127, 128, 129, 130, 131, 132, 133, 134, 135, 136, 137, 138, 139, 140, 141, 142, 143, 144, 145, 146, 147, 148, 149, 150, 151, 152, 153, 154, 155, 156, 157, 158, 159, 160, 161, 162, 163, 164, 165, 166, 167, 168, 169, 170, 171, 172, 173, 174, 175, 176, 177, 178, 179, 180, 181, 182, 183, 184, 185, 186, 187, 188, 189, 190, 191, 192, 193, 194, 195, 196, 197, 198, 199, 200, 201, 202, 203, 204, 205, 206, 207, 208, 209, 210, 211, 212, 213, 214, 215, 216, 217, 218, 219, 220, 221, 222, 223, 224, 225, 226, 227, 228, 229, 230, 231, 232, 233, 234, 235, 236, 237, 238, 239, 240, 241, 242, 243, 244, 245, 246, 247, 248, 249, 250, 251, 252, 253, 254, 255, 256, 257, 258, 259, 260, 261, 262, 263, 264, 265, 266, 267, 268, 269, 270, 271, 272, 273, 274, 275, 276, 277, 278, 279, 280, 281, 282, 283, 284, 285, 286, 287, 288, 289, 290, 291, 292, 293, 294, 295, 296, 297, 298, 299, 300, 301, 302, 303, 304, 305, 306, 307, 308, 309, 310, 311, 312, 313, 314, 315, 316, 317, 318, 319, 320, 321, 322, 323, 324, 325, 326, 327, 328, 329, 330, 331, 332, 333, 334, 335, 336, 337, 338, 339, 340, 341, 342, 343, 344, 345, 346, 347, 348, 349, 350, 351, 352, 353, 354, 355, 356],
      "AcquisitionTime": ["130539.982500", "130540.982500", "130541.982500", "130542.982500", "130543.982500", "130544.982500", "130545.982500", "130546.982500", "130547.982500", "130548.982500", "130549.982500", "130550.982500", "130551.982500", "130552.982500", "130553.982500", "130554.982500", "130555.982500", "130556.982500", "130557.982500", "130558.982500", "130559.982500", "130600.982500", "130601.982500", "130602.982500", "130603.982500", "130604.982500", "130605.982500", "130606.982500", "130607.982500", "130608.982500", "130609.982500", "130610.982500", "130611.982500", "130612.982500", "130613.982500", "130614.982500", "130615.982500", "130616.982500", "130617.982500", "130618.982500", "130619.982500", "130620.982500", "130621.982500", "130622.982500", "130623.982500", "130624.982500", "130625.982500", "130626.982500", "130627.982500", "130628.982500", "130629.982500", "130630.982500", "130631.982500", "130632.982500", "130633.982500", "130634.982500", "130635.982500", "130636.982500", "130637.982500", "130638.982500", "130639.982500", "130640.982500", "130641.982500", "130642.982500", "130643.982500", "130644.982500", "130645.982500", "130646.982500", "130647.982500", "130648.982500", "130649.982500", "130650.982500", "130651.982500", "130652.982500", "130653.982500", "130654.982500", "130655.982500", "130656.982500", "130657.982500", "130658.982500", "130659.982500", "130700.982500", "130701.982500", "130702.982500", "130703.982500", "130704.982500", "130705.982500", "130706.982500", "130707.982500", "130708.982500", "130709.982500", "130710.982500", "130711.982500", "130712.982500", "130713.982500", "130714.982500", "130715.982500", "130716.982500", "130717.982500", "130718.982500", "130719.982500", "130720.982500", "130721.982500", "130722.982500", "130723.982500", "130724.982500", "130725.982500", "130726.982500", "130727.982500", "130728.982500", "130729.982500", "130730.982500", "130731.982500", "130732.982500", "130733.982500", "130734.982500", "130735.982500", "130736.982500", "130737.982500", "130738.982500", "130739.982500", "130740.982500", "130741.982500", "130742.982500", "130743.982500", "130744.982500", "130745.982500", "130746.982500", "130747.982500", "130748.982500", "130749.982500", "130750.982500", "130751.982500", "130752.982500", "130753.982500", "130754.982500", "130755.982500", "130756.982500", "130757.982500", "130758.982500", "130759.982500", "130800.982500", "130801.982500", "130802.982500", "130803.982500", "130804.982500", "130805.982500", "130806.982500", "130807.982500", "130808.982500", "130809.982500", "130810.982500", "130811.982500", "130812.982500", "130813.982500", "130814.982500", "130815.982500", "130816.982500", "130817.982500", "130818.982500", "130819.982500", "130820.982500", "130821.982500", "130822.982500", "130823.982500", "130824.982500", "130825.982500", "130826.982500", "130827.982500", "130828.982500", "130829.982500", "130830.982500", "130831.982500", "130832.982500", "130833.982500", "130834.982500", "130835.982500", "130836.982500", "130837.982500", "130838.982500", "130839.982500", "130840.982500", "130841.982500", "130842.982500", "130843.982500", "130844.982500", "130845.982500", "130846.982500", "130847.982500", "130848.982500", "130849.982500", "130850.982500", "130851.982500", "130852.982500", "130853.982500", "130854.982500", "130855.982500", "130856.982500", "130857.982500", "130858.982500", "130859.982500", "130900.982500", "130901.982500", "130902.982500", "130903.982500", "130904.982500", "130905.982500", "130906.982500", "130907.982500", "130908.982500", "130909.982500", "130910.982500", "130911.982500", "130912.982500", "130913.982500", "130914.982500", "130915.982500", "130916.982500", "130917.982500", "130918.982500", "130919.982500", "130920.982500", "130921.982500", "130922.982500", "130923.982500", "130924.982500", "130925.982500", "130926.982500", "130927.982500", "130928.982500", "130929.982500", "130930.982500", "130931.982500", "130932.982500", "130933.982500", "130934.982500", "130935.982500", "130936.982500", "130937.982500", "130938.982500", "130939.982500", "130940.982500", "130941.982500", "130942.982500", "130943.982500", "130944.982500", "130945.982500", "130946.982500", "130947.982500", "130948.982500", "130949.982500", "130950.982500", "130951.982500", "130952.982500", "130953.982500", "130954.982500", "130955.982500", "130956.982500", "130957.982500", "130958.982500", "130959.982500", "131000.982500", "131001.982500", "131002.982500", "131003.982500", "131004.982500", "131005.982500", "131006.982500", "131007.982500", "131008.982500", "131009.982500", "131010.982500", "131011.982500", "131012.982500", "131013.982500", "131014.982500", "131015.982500", "131016.982500", "131017.982500", "131018.982500", "131019.982500", "131020.982500", "131021.982500", "131022.982500", "131023.982500", "131024.982500", "131025.982500", "131026.982500", "131027.982500", "131028.982500", "131029.982500", "131030.982500", "131031.982500", "131032.982500", "131033.982500", "131034.982500", "131035.982500", "131036.982500", "131037.982500", "131038.982500", "131039.982500", "131040.982500", "131041.982500", "131042.982500", "131043.982500", "131044.982500", "131045.982500", "131046.982500", "131047.982500", "131048.982500", "131049.982500", "131050.982500", "131051.982500", "131052.982500", "131053.982500", "131054.982500", "131055.982500", "131056.982500", "131057.982500", "131058.982500", "131059.982500", "131100.982500", "131101.982500", "131102.982500", "131103.982500", "131104.982500", "131105.982500", "131106.982500", "131107.982500", "131108.982500", "131109.982500", "131110.982500", "131111.982500", "131112.982500", "131113.982500", "131114.982500", "131115.982500", "131116.982500", "131117.982500", "131118.982500", "131119.982500", "131120.982500", "131121.982500", "131122.982500", "131123.982500", "131124.982500", "131125.982500", "131126.982500", "131127.982500", "131128.982500", "131129.982500", "131130.982500", "131131.982500", "131132.982500", "131133.982500", "131134.982500"],
      "ContentTime": ["130617.413000", "130617.416000", "130617.419000", "130617.421000", "130617.424000", "130617.426000", "130617.429000", "130617.431000", "130617.434000", "130617.437000", "130617.439000", "130617.442000", "130617.444000", "130617.447000", "130617.449000", "130617.452000", "130617.454000", "130617.457000", "130617.473000", "130617.476000", "130617.478000", "130617.480000", "130617.483000", "130617.486000", "130617.488000", "130617.490000", "130617.493000", "130617.496000", "130617.498000", "130617.501000", "130617.504000", "130617.506000", "130617.517000", "130617.519000", "130617.522000", "130617.525000", "130637.387000", "130637.390000", "130637.393000", "130637.395000", "130637.398000", "130637.400000", "130637.403000", "130637.405000", "130637.408000", "130637.410000", "130637.413000", "130637.415000", "130637.418000", "130637.420000", "130637.423000", "130637.425000", "130637.428000", "130637.435000", "130637.437000", "130637.440000", "130657.386000", "130657.389000", "130657.392000", "130657.394000", "130657.397000", "130657.399000", "130657.402000", "130657.404000", "130657.407000", "130657.409000", "130657.412000", "130657.414000", "130657.417000", "130657.419000", "130657.422000", "130657.424000", "130657.427000", "130657.430000", "130657.432000", "130657.435000", "130717.387000", "130717.389000", "130717.392000", "130717.394000", "130717.397000", "130717.400000", "130717.402000", "130717.404000", "130717.407000", "130717.410000", "130717.412000", "130717.415000", "130717.417000", "130717.420000", "130717.422000", "130717.425000", "130717.427000", "130717.430000", "130717.433000", "130717.435000", "130737.386000", "130737.389000", "130737.392000", "130737.394000", "130737.396000", "130737.399000", "130737.402000", "130737.404000", "130737.406000", "130737.409000", "130737.412000", "130737.414000", "130737.417000", "130737.419000", "130737.422000", "130737.424000", "130737.426000", "130737.429000", "130737.432000", "130737.434000", "130757.387000", "130757.390000", "130757.392000", "130757.395000", "130757.397000", "130757.400000", "130757.416000", "130757.419000", "130757.421000", "130757.424000", "130757.426000", "130757.429000", "130757.431000", "130757.434000", "130757.436000", "130757.439000", "130757.441000", "130757.444000", "130757.446000", "130757.449000", "130817.386000", "130817.389000", "130817.392000", "130817.394000", "130817.397000", "130817.399000", "130817.402000", "130817.404000", "130817.407000", "130817.410000", "130817.412000", "130817.414000", "130817.417000", "130817.420000", "130817.422000", "130817.425000", "130817.427000", "130817.430000", "130817.432000", "130817.435000", "130837.387000", "130837.389000", "130837.392000", "130837.394000", "130837.397000", "130837.399000", "130837.402000", "130837.404000", "130837.407000", "130837.409000", "130837.412000", "130837.414000", "130837.417000", "130837.420000", "130837.422000", "130837.425000", "130837.427000", "130837.430000", "130837.432000", "130837.435000", "130857.388000", "130857.391000", "130857.393000", "130857.396000", "130857.398000", "130857.401000", "130857.403000", "130857.406000", "130857.408000", "130857.411000", "130857.413000", "130857.416000", "130857.418000", "130857.421000", "130857.424000", "130857.426000", "130857.429000", "130857.431000", "130857.434000", "130857.436000", "130917.387000", "130917.389000", "130917.392000", "130917.394000", "130917.397000", "130917.400000", "130917.402000", "130917.405000", "130917.407000", "130917.410000", "130917.412000", "130917.415000", "130917.417000", "130917.420000", "130917.422000", "130917.425000", "130917.427000", "130917.430000", "130917.432000", "130917.435000", "130937.386000", "130937.389000", "130937.392000", "130937.394000", "130937.397000", "130937.399000", "130937.402000", "130937.404000", "130937.407000", "130937.410000", "130937.412000", "130937.415000", "130937.417000", "130937.420000", "130937.422000", "130937.425000", "130937.427000", "130937.430000", "130937.432000", "130937.435000", "130957.386000", "130957.389000", "130957.392000", "130957.394000", "130957.397000", "130957.399000", "130957.402000", "130957.404000", "130957.407000", "130957.409000", "130957.412000", "130957.414000", "130957.417000", "130957.419000", "130957.422000", "130957.424000", "130957.427000", "130957.429000", "130957.432000", "130957.434000", "131017.386000", "131017.389000", "131017.392000", "131017.394000", "131017.397000", "131017.399000", "131017.402000", "131017.405000", "131017.407000", "131017.410000", "131017.412000", "131017.415000", "131017.417000", "131017.420000", "131017.422000", "131017.425000", "131017.427000", "131017.430000", "131017.432000", "131017.435000", "131037.386000", "131037.390000", "131037.392000", "131037.395000", "131037.397000", "131037.400000", "131037.402000", "131037.405000", "131037.407000", "131037.410000", "131037.412000", "131037.415000", "131037.417000", "131037.420000", "131037.422000", "131037.425000", "131037.427000", "131037.430000", "131037.433000", "131037.435000", "131057.388000", "131057.390000", "131057.393000", "131057.395000", "131057.398000", "131057.400000", "131057.403000", "131057.405000", "131057.408000", "131057.410000", "131057.413000", "131057.415000", "131057.418000", "131057.420000", "131057.423000", "131057.425000", "131057.428000", "131057.430000", "131057.433000", "131057.435000", "131117.388000", "131117.390000", "131117.393000", "131117.395000", "131117.398000", "131117.401000", "131117.403000", "131117.416000", "131117.418000", "131117.421000", "131117.424000", "131117.426000", "131117.429000", "131117.431000", "131117.434000", "131117.436000", "131117.439000", "131117.441000", "131117.444000", "131117.446000", "131136.829000", "131136.832000", "131136.835000", "131136.838000", "131136.840000", "131136.843000", "131136.845000", "131136.848000", "131136.850000", "131136.853000", "131136.855000", "131136.858000", "131136.860000", "131136.863000", "131136.865000", "131136.868000", "131136.870000", "131136.892000", "131136.895000", "131136.897000"],
      "InstanceCreationTime": ["130617.413000", "130617.416000", "130617.419000", "130617.421000", "130617.424000", "130617.426000", "130617.429000", "130617.431000", "130617.434000", "130617.437000", "130617.439000", "130617.442000", "130617.444000", "130617.447000", "130617.449000", "130617.452000", "130617.454000", "130617.457000", "130617.473000", "130617.476000", "130617.478000", "130617.480000", "130617.483000", "130617.486000", "130617.488000", "130617.490000", "130617.493000", "130617.496000", "130617.498000", "130617.501000", "130617.504000", "130617.506000", "130617.517000", "130617.519000", "130617.522000", "130617.525000", "130637.387000", "130637.390000", "130637.393000", "130637.395000", "130637.398000", "130637.400000", "130637.403000", "130637.405000", "130637.408000", "130637.410000", "130637.413000", "130637.415000", "130637.418000", "130637.420000", "130637.423000", "130637.425000", "130637.428000", "130637.435000", "130637.437000", "130637.440000", "130657.386000", "130657.389000", "130657.392000", "130657.394000", "130657.397000", "130657.399000", "130657.402000", "130657.404000", "130657.407000", "130657.409000", "130657.412000", "130657.414000", "130657.417000", "130657.419000", "130657.422000", "130657.424000", "130657.427000", "130657.430000", "130657.432000", "130657.435000", "130717.387000", "130717.389000", "130717.392000", "130717.394000", "130717.397000", "130717.400000", "130717.402000", "130717.404000", "130717.407000", "130717.410000", "130717.412000", "130717.415000", "130717.417000", "130717.420000", "130717.422000", "130717.425000", "130717.427000", "130717.430000", "130717.433000", "130717.435000", "130737.386000", "130737.389000", "130737.392000", "130737.394000", "130737.396000", "130737.399000", "130737.402000", "130737.404000", "130737.406000", "130737.409000", "130737.412000", "130737.414000", "130737.417000", "130737.419000", "130737.422000", "130737.424000", "130737.426000", "130737.429000", "130737.432000", "130737.434000", "130757.387000", "130757.390000", "130757.392000", "130757.395000", "130757.397000", "130757.400000", "130757.416000", "130757.419000", "130757.421000", "130757.424000", "130757.426000", "130757.429000", "130757.431000", "130757.434000", "130757.436000", "130757.439000", "130757.441000", "130757.444000", "130757.446000", "130757.449000", "130817.386000", "130817.389000", "130817.392000", "130817.394000", "130817.397000", "130817.399000", "130817.402000", "130817.404000", "130817.407000", "130817.410000", "130817.412000", "130817.414000", "130817.417000", "130817.420000", "130817.422000", "130817.425000", "130817.427000", "130817.430000", "130817.432000", "130817.435000", "130837.387000", "130837.389000", "130837.392000", "130837.394000", "130837.397000", "130837.399000", "130837.402000", "130837.404000", "130837.407000", "130837.409000", "130837.412000", "130837.414000", "130837.417000", "130837.420000", "130837.422000", "130837.425000", "130837.427000", "130837.430000", "130837.432000", "130837.435000", "130857.388000", "130857.391000", "130857.393000", "130857.396000", "130857.398000", "130857.401000", "130857.403000", "130857.406000", "130857.408000", "130857.411000", "130857.413000", "130857.416000", "130857.418000", "130857.421000", "130857.424000", "130857.426000", "130857.429000", "130857.431000", "130857.434000", "130857.436000", "130917.387000", "130917.389000", "130917.392000", "130917.394000", "130917.397000", "130917.400000", "130917.402000", "130917.405000", "130917.407000", "130917.410000", "130917.412000", "130917.415000", "130917.417000", "130917.420000", "130917.422000", "130917.425000", "130917.427000", "130917.430000", "130917.432000", "130917.435000", "130937.386000", "130937.389000", "130937.392000", "130937.394000", "130937.397000", "130937.399000", "130937.402000", "130937.404000", "130937.407000", "130937.410000", "130937.412000", "130937.415000", "130937.417000", "130937.420000", "130937.422000", "130937.425000", "130937.427000", "130937.430000", "130937.432000", "130937.435000", "130957.386000", "130957.389000", "130957.392000", "130957.394000", "130957.397000", "130957.399000", "130957.402000", "130957.404000", "130957.407000", "130957.409000", "130957.412000", "130957.414000", "130957.417000", "130957.419000", "130957.422000", "130957.424000", "130957.427000", "130957.429000", "130957.432000", "130957.434000", "131017.386000", "131017.389000", "131017.392000", "131017.394000", "131017.397000", "131017.399000", "131017.402000", "131017.405000", "131017.407000", "131017.410000", "131017.412000", "131017.415000", "131017.417000", "131017.420000", "131017.422000", "131017.425000", "131017.427000", "131017.430000", "131017.432000", "131017.435000", "131037.386000", "131037.390000", "131037.392000", "131037.395000", "131037.397000", "131037.400000", "131037.402000", "131037.405000", "131037.407000", "131037.410000", "131037.412000", "131037.415000", "131037.417000", "131037.420000", "131037.422000", "131037.425000", "131037.427000", "131037.430000", "131037.433000", "131037.435000", "131057.388000", "131057.390000", "131057.393000", "131057.395000", "131057.398000", "131057.400000", "131057.403000", "131057.405000", "131057.408000", "131057.410000", "131057.413000", "131057.415000", "131057.418000", "131057.420000", "131057.423000", "131057.425000", "131057.428000", "131057.430000", "131057.433000", "131057.435000", "131117.388000", "131117.390000", "131117.393000", "131117.395000", "131117.398000", "131117.401000", "131117.403000", "131117.416000", "131117.418000", "131117.421000", "131117.424000", "131117.426000", "131117.429000", "131117.431000", "131117.434000", "131117.436000", "131117.439000", "131117.441000", "131117.444000", "131117.446000", "131136.829000", "131136.832000", "131136.835000", "131136.838000", "131136.840000", "131136.843000", "131136.845000", "131136.848000", "131136.850000", "131136.853000", "131136.855000", "131136.858000", "131136.860000", "131136.863000", "131136.865000", "131136.868000", "131136.870000", "131136.892000", "131136.895000", "131136.897000"],
      "InstanceNumber": [1, 2, 3, 4, 5, 6, 7, 8, 9, 10, 11, 12, 13, 14, 15, 16, 17, 18, 19, 20, 21, 22, 23, 24, 25, 26, 27, 28, 29, 30, 31, 32, 33, 34, 35, 36, 37, 38, 39, 40, 41, 42, 43, 44, 45, 46, 47, 48, 49, 50, 51, 52, 53, 54, 55, 56, 57, 58, 59, 60, 61, 62, 63, 64, 65, 66, 67, 68, 69, 70, 71, 72, 73, 74, 75, 76, 77, 78, 79, 80, 81, 82, 83, 84, 85, 86, 87, 88, 89, 90, 91, 92, 93, 94, 95, 96, 97, 98, 99, 100, 101, 102, 103, 104, 105, 106, 107, 108, 109, 110, 111, 112, 113, 114, 115, 116, 117, 118, 119, 120, 121, 122, 123, 124, 125, 126, 127, 128, 129, 130, 131, 132, 133, 134, 135, 136, 137, 138, 139, 140, 141, 142, 143, 144, 145, 146, 147, 148, 149, 150, 151, 152, 153, 154, 155, 156, 157, 158, 159, 160, 161, 162, 163, 164, 165, 166, 167, 168, 169, 170, 171, 172, 173, 174, 175, 176, 177, 178, 179, 180, 181, 182, 183, 184, 185, 186, 187, 188, 189, 190, 191, 192, 193, 194, 195, 196, 197, 198, 199, 200, 201, 202, 203, 204, 205, 206, 207, 208, 209, 210, 211, 212, 213, 214, 215, 216, 217, 218, 219, 220, 221, 222, 223, 224, 225, 226, 227, 228, 229, 230, 231, 232, 233, 234, 235, 236, 237, 238, 239, 240, 241, 242, 243, 244, 245, 246, 247, 248, 249, 250, 251, 252, 253, 254, 255, 256, 257, 258, 259, 260, 261, 262, 263, 264, 265, 266, 267, 268, 269, 270, 271, 272, 273, 274, 275, 276, 277, 278, 279, 280, 281, 282, 283, 284, 285, 286, 287, 288, 289, 290, 291, 292, 293, 294, 295, 296, 297, 298, 299, 300, 301, 302, 303, 304, 305, 306, 307, 308, 309, 310, 311, 312, 313, 314, 315, 316, 317, 318, 319, 320, 321, 322, 323, 324, 325, 326, 327, 328, 329, 330, 331, 332, 333, 334, 335, 336, 337, 338, 339, 340, 341, 342, 343, 344, 345, 346, 347, 348, 349, 350, 351, 352, 353, 354, 355, 356],
      "LargestImagePixelValue": [12772, 12343, 12364, 12213, 12105, 12239, 12059, 11933, 11783, 11823, 11819, 11890, 11886, 11893, 11944, 11918, 11792, 11969, 11936, 12057, 11868, 12029, 11987, 11793, 11914, 12066, 11933, 12000, 11961, 11867, 11956, 11955, 12078, 12004, 11889, 11873, 11758, 11928, 11862, 11800, 11920, 11985, 11758, 12041, 11934, 11980, 11881, 11713, 11875, 11821, 11850, 11568, 11740, 11753, 11800, 11621, 11947, 11893, 11847, 11757, 11695, 11684, 11687, 11765, 11589, 11575, 11768, 11870, 11879, 11736, 11719, 11733, 11716, 11614, 11750, 11752, 11942, 11957, 11770, 11694, 11643, 11619, 11687, 11723, 11858, 11631, 11740, 11784, 11747, 11695, 11742, 11714, 11773, 11756, 11670, 11770, 11713, 11680, 11725, 11682, 11601, 11721, 11712, 11675, 11821, 11751, 11688, 11728, 11786, 11636, 11703, 11662, 11809, 11811, 11735, 11623, 11723, 11674, 11675, 11613, 11565, 11513, 11622, 11580, 11635, 11645, 11540, 11633, 11809, 11654, 11690, 11569, 11605, 11630, 11611, 11768, 11568, 11570, 11610, 11627, 11631, 11706, 11563, 11528, 11694, 11545, 11631, 11448, 11674, 11658, 11663, 11709, 11631, 11651, 11596, 11651, 11618, 11601, 11652, 11724, 11555, 11576, 11676, 11575, 11688, 11668, 11555, 11604, 11505, 11649, 11601, 11593, 11742, 11656, 11660, 11648, 11546, 11575, 11629, 11593, 11623, 11619, 11723, 11737, 11732, 11842, 11649, 11713, 11775, 11740, 11662, 11577, 11657, 11635, 11628, 11824, 11679, 11719, 11728, 11834, 11640, 11657, 11812, 11768, 11672, 11751, 11763, 11888, 11991, 12047, 11830, 11868, 11957, 11713, 11691, 11767, 11569, 11578, 11778, 11649, 11596, 11677, 11546, 11728, 11852, 11625, 11613, 11682, 11651, 11580, 11531, 11633, 11706, 11648, 11696, 11624, 11725, 11712, 11808, 11769, 11741, 11885, 11715, 11750, 11813, 11724, 11753, 11823, 11798, 11724, 11747, 11704, 11795, 11780, 11823, 11725, 11761, 11733, 11750, 11664, 11554, 11617, 11679, 11599, 11624, 11733, 11703, 11748, 11792, 11687, 11785, 11709, 11813, 11738, 11629, 11811, 11612, 11659, 11845, 11862, 11949, 11805, 11849, 11873, 11711, 11648, 11774, 11863, 11924, 11675, 11831, 11940, 11945, 11925, 11871, 11980, 12025, 11936, 11984, 11780, 11901, 11908, 11744, 11671, 11756, 11723, 11696, 11992, 11723, 11825, 11901, 11856, 11863, 11922, 11809, 11829, 11728, 11732, 11854, 11798, 11799, 11713, 11849, 11761, 11667, 11734, 11789, 11749, 11746, 11718, 11855, 11656, 11754, 11791, 11720, 11867, 11960, 11769, 11787, 11889, 11717, 11817, 11908, 11812, 11749, 11984, 11867, 11731, 11901, 11845, 11609, 11735, 11754, 11657, 11716, 11698],
