{
  "AcquisitionMatrixPE": 106,
  "AcquisitionNumber": 1,
  "AcquisitionTime": "12:52:58.342500",
  "BandwidthPerPixelPhaseEncode": 13.477,
  "BaseResolution": 106,
  "BodyPartExamined": "BRAIN",
  "CoilCombinationMethod": "Sum of Squares",
  "ConsistencyInfo": "N4_VE11C_LATEST_20160120",
  "ConversionSoftware": "dcm2niix",
  "ConversionSoftwareVersion": "v1.0.20220720",
  "DerivedVendorReportedEchoSpacing": 0.000700005,
  "DeviceSerialNumber": "166108",
  "DwellTime": 2.6e-06,
  "EchoTime": 0.03,
  "EchoTrainLength": 80,
  "EffectiveEchoSpacing": 0.000700005,
  "FlipAngle": 62,
  "HeudiconvVersion": "1.3.0",
  "ImageComments": "Unaliased MB4/PE3/LB",
  "ImageOrientationPatientDICOM": [1, 0, 0, 0, 0.993768, -0.111469],
  "ImageOrientationText": "Tra>Cor(-6.4)",
  "ImageType": [
    "ORIGINAL",
    "PRIMARY",
    "M",
    "MB",
    "ND",
    "MOSAIC"
],
  "ImagingFrequency": 123.244,
  "InPlanePhaseEncodingDirectionDICOM": "COL",
  "InstitutionAddress": "Bedford Way 26,London,London,GB,WC1H 0AP",
  "InstitutionName": "University College",
  "InstitutionalDepartmentName": "Department",
  "MRAcquisitionType": "2D",
  "MagneticFieldStrength": 3,
  "Manufacturer": "Siemens",
  "ManufacturersModelName": "Prisma",
  "MatrixCoilMode": "SENSE",
  "Modality": "MR",
  "MultibandAccelerationFactor": 4,
  "NonlinearGradientCorrection": false,
  "PartialFourier": 0.75,
  "PatientPosition": "HFS",
  "PercentPhaseFOV": 100,
  "PercentSampling": 100,
  "PhaseEncodingDirection": "j-",
  "PhaseEncodingSteps": 80,
  "PhaseResolution": 1,
  "PixelBandwidth": 1815,
  "ProcedureStepDescription": "Egor^MovieProject2",
  "ProtocolName": "func-bold_task-motor_run-01",
  "PulseSequenceDetails": "%CustomerSeq%\\cmrr_mbep2d_bold",
  "ReceiveCoilActiveElements": "HEA;HEP",
  "ReceiveCoilName": "Head_32",
  "ReconMatrixPE": 106,
  "RepetitionTime": 1,
  "SAR": 0.0332537,
  "ScanOptions": "PFP\\FS\\EXT",
  "ScanningSequence": "EP",
  "SequenceName": "epfid2d1_106",
  "SequenceVariant": "SK\\SS",
  "SeriesDescription": "func-bold_task-motor_run-01",
  "SeriesNumber": 6,
  "ShimSetting": [-1600, 600, 7348, 203, -105, -4, 147, 29],
  "SliceThickness": 2,
  "SliceTiming": [0, 0.535, 0.09, 0.625, 0.18, 0.7125, 0.2675, 0.8025, 0.3575, 0.8925, 0.4475, 0, 0.535, 0.09, 0.625, 0.18, 0.7125, 0.2675, 0.8025, 0.3575, 0.8925, 0.4475, 0, 0.535, 0.09, 0.625, 0.18, 0.7125, 0.2675, 0.8025, 0.3575, 0.8925, 0.4475, 0, 0.535, 0.09, 0.625, 0.18, 0.7125, 0.2675, 0.8025, 0.3575, 0.8925, 0.4475],
  "SoftwareVersions": "syngo MR E11",
  "SpacingBetweenSlices": 2,
  "StationName": "AWP166108",
  "TaskName": "somatotopy",
  "TotalReadoutTime": 0.0735005,
  "TxRefAmp": 221.203,
  "WipMemBlock": "65baa4f3-0f10-4ed5-a6a3-f5f903aa3514||Sequence: R016 ve11c/master r/e634e98; Dec 19 2017 11:00:25 by eja",
  "dcmmeta_affine": [
    [-2.0, 0.0, 0.0, 106.0],
    [0.0, 1.987535834312439, -0.22293785214424133, -89.42637634277344],
    [0.0, 0.22293785214424133, 1.987535834312439, -1.356697678565979],
    [0.0, 0.0, 0.0, 1.0]
],
  "dcmmeta_reorient_transform": [
    [0.0, -1.0, 0.0, 105.0],
    [1.0, 0.0, 0.0, 0.0],
    [0.0, 0.0, 1.0, 0.0],
    [0.0, 0.0, 0.0, 1.0]
],
  "dcmmeta_shape": [106, 106, 44, 467],
  "dcmmeta_slice_dim": 2,
  "dcmmeta_version": 0.6,
  "global": {
    "const": {
      "AcquisitionMatrix": [106, 0, 0, 106],
      "AngioFlag": "N",
      "BitsAllocated": 16,
      "BitsStored": 16,
      "BodyPartExamined": "BRAIN",
      "CardiacNumberOfImages": 1,
      "Columns": 742,
      "EchoNumbers": 1,
      "EchoTime": 30.0,
      "EchoTrainLength": 80,
      "FlipAngle": 62.0,
      "HighBit": 15,
      "ImageOrientationPatient": [1.0, 0.0, 0.0, 0.0, 0.99376791982449, -0.1114689262876],
      "ImagePositionPatient": [-742.0, -751.30128021338, 92.946013938319],
      "ImageType": [
        "ORIGINAL",
        "PRIMARY",
        "M",
        "MB",
        "ND",
        "MOSAIC"
],
      "ImagedNucleus": "1H",
      "ImagingFrequency": 123.243676,
      "InPlanePhaseEncodingDirection": "COL",
      "MRAcquisitionType": "2D",
      "MagneticFieldStrength": 3.0,
      "Manufacturer": "SIEMENS",
      "ManufacturerModelName": "Prisma",
      "Modality": "MR",
      "NominalInterval": 0,
      "NumberOfAverages": 1.0,
      "NumberOfPhaseEncodingSteps": 80,
      "PercentPhaseFieldOfView": 100.0,
      "PercentSampling": 100.0,
      "PerformedProcedureStepStartTime": "122131.827000",
      "PhotometricInterpretation": "MONOCHROME2",
      "PixelBandwidth": 1815.0,
      "PixelRepresentation": 0,
      "PixelSpacing": [2.0, 2.0],
      "ProtocolName": "func-bold_task-motor_run-01",
      "RepetitionTime": 1000.0,
      "Rows": 742,
      "SAR": 0.03325371227724,
      "SamplesPerPixel": 1,
      "ScanOptions": [
        "PFP",
        "FS",
        "EXT"
],
      "ScanningSequence": "EP",
      "SequenceName": "epfid2d1_106",
      "SequenceVariant": [
        "SK",
        "SS"
],
      "SeriesDescription": "func-bold_task-motor_run-01",
      "SeriesNumber": 6,
      "SeriesTime": "125323.754000",
      "SliceLocation": 8.620019903591,
      "SliceThickness": 2.0,
      "SmallestImagePixelValue": 0,
      "SoftwareVersions": "syngo MR E11",
      "SpacingBetweenSlices": 1.9999999916619,
      "SpecificCharacterSet": "ISO_IR 100",
      "StudyID": "1",
      "StudyTime": "122131.718000",
      "TransmitCoilName": "Body",
      "VariableFlipAngleFlag": "N",
      "WindowCenterWidthExplanation": "Algo1",
      "dBdt": 0.0},
    "slices": {}
  },
  "time": {
    "samples": {
      "AcquisitionNumber": [1, 2, 3, 4, 5, 6, 7, 8, 9, 10, 11, 12, 13, 14, 15, 16, 17, 18, 19, 20, 21, 22, 23, 24, 25, 26, 27, 28, 29, 30, 31, 32, 33, 34, 35, 36, 37, 38, 39, 40, 41, 42, 43, 44, 45, 46, 47, 48, 49, 50, 51, 52, 53, 54, 55, 56, 57, 58, 59, 60, 61, 62, 63, 64, 65, 66, 67, 68, 69, 70, 71, 72, 73, 74, 75, 76, 77, 78, 79, 80, 81, 82, 83, 84, 85, 86, 87, 88, 89, 90, 91, 92, 93, 94, 95, 96, 97, 98, 99, 100, 101, 102, 103, 104, 105, 106, 107, 108, 109, 110, 111, 112, 113, 114, 115, 116, 117, 118, 119, 120, 121, 122, 123, 124, 125, 126, 127, 128, 129, 130, 131, 132, 133, 134, 135, 136, 137, 138, 139, 140, 141, 142, 143, 144, 145, 146, 147, 148, 149, 150, 151, 152, 153, 154, 155, 156, 157, 158, 159, 160, 161, 162, 163, 164, 165, 166, 167, 168, 169, 170, 171, 172, 173, 174, 175, 176, 177, 178, 179, 180, 181, 182, 183, 184, 185, 186, 187, 188, 189, 190, 191, 192, 193, 194, 195, 196, 197, 198, 199, 200, 201, 202, 203, 204, 205, 206, 207, 208, 209, 210, 211, 212, 213, 214, 215, 216, 217, 218, 219, 220, 221, 222, 223, 224, 225, 226, 227, 228, 229, 230, 231, 232, 233, 234, 235, 236, 237, 238, 239, 240, 241, 242, 243, 244, 245, 246, 247, 248, 249, 250, 251, 252, 253, 254, 255, 256, 257, 258, 259, 260, 261, 262, 263, 264, 265, 266, 267, 268, 269, 270, 271, 272, 273, 274, 275, 276, 277, 278, 279, 280, 281, 282, 283, 284, 285, 286, 287, 288, 289, 290, 291, 292, 293, 294, 295, 296, 297, 298, 299, 300, 301, 302, 303, 304, 305, 306, 307, 308, 309, 310, 311, 312, 313, 314, 315, 316, 317, 318, 319, 320, 321, 322, 323, 324, 325, 326, 327, 328, 329, 330, 331, 332, 333, 334, 335, 336, 337, 338, 339, 340, 341, 342, 343, 344, 345, 346, 347, 348, 349, 350, 351, 352, 353, 354, 355, 356, 357, 358, 359, 360, 361, 362, 363, 364, 365, 366, 367, 368, 369, 370, 371, 372, 373, 374, 375, 376, 377, 378, 379, 380, 381, 382, 383, 384, 385, 386, 387, 388, 389, 390, 391, 392, 393, 394, 395, 396, 397, 398, 399, 400, 401, 402, 403, 404, 405, 406, 407, 408, 409, 410, 411, 412, 413, 414, 415, 416, 417, 418, 419, 420, 421, 422, 423, 424, 425, 426, 427, 428, 429, 430, 431, 432, 433, 434, 435, 436, 437, 438, 439, 440, 441, 442, 443, 444, 445, 446, 447, 448, 449, 450, 451, 452, 453, 454, 455, 456, 457, 458, 459, 460, 461, 462, 463, 464, 465, 466, 467],
      "AcquisitionTime": ["125258.342500", "125259.342500", "125300.342500", "125301.342500", "125302.342500", "125303.342500", "125304.342500", "125305.342500", "125306.342500", "125307.342500", "125308.342500", "125309.342500", "125310.342500", "125311.342500", "125312.342500", "125313.342500", "125314.342500", "125315.342500", "125316.342500", "125317.342500", "125318.342500", "125319.342500", "125320.342500", "125321.342500", "125322.342500", "125323.342500", "125324.342500", "125325.342500", "125326.342500", "125327.342500", "125328.342500", "125329.342500", "125330.342500", "125331.342500", "125332.342500", "125333.342500", "125334.342500", "125335.342500", "125336.342500", "125337.342500", "125338.342500", "125339.342500", "125340.342500", "125341.342500", "125342.342500", "125343.342500", "125344.342500", "125345.342500", "125346.342500", "125347.342500", "125348.342500", "125349.342500", "125350.342500", "125351.342500", "125352.342500", "125353.342500", "125354.342500", "125355.342500", "125356.342500", "125357.342500", "125358.342500", "125359.342500", "125400.342500", "125401.342500", "125402.342500", "125403.342500", "125404.342500", "125405.342500", "125406.342500", "125407.342500", "125408.342500", "125409.342500", "125410.342500", "125411.342500", "125412.342500", "125413.342500", "125414.342500", "125415.342500", "125416.342500", "125417.342500", "125418.342500", "125419.342500", "125420.342500", "125421.342500", "125422.342500", "125423.342500", "125424.342500", "125425.342500", "125426.342500", "125427.342500", "125428.342500", "125429.342500", "125430.342500", "125431.342500", "125432.342500", "125433.342500", "125434.342500", "125435.342500", "125436.342500", "125437.342500", "125438.342500", "125439.342500", "125440.342500", "125441.342500", "125442.342500", "125443.342500", "125444.342500", "125445.342500", "125446.342500", "125447.342500", "125448.342500", "125449.342500", "125450.342500", "125451.342500", "125452.342500", "125453.342500", "125454.342500", "125455.342500", "125456.342500", "125457.342500", "125458.342500", "125459.342500", "125500.342500", "125501.342500", "125502.342500", "125503.342500", "125504.342500", "125505.342500", "125506.342500", "125507.342500", "125508.342500", "125509.342500", "125510.342500", "125511.342500", "125512.342500", "125513.342500", "125514.342500", "125515.342500", "125516.342500", "125517.342500", "125518.342500", "125519.342500", "125520.342500", "125521.342500", "125522.342500", "125523.342500", "125524.342500", "125525.342500", "125526.342500", "125527.342500", "125528.342500", "125529.342500", "125530.342500", "125531.342500", "125532.342500", "125533.342500", "125534.342500", "125535.342500", "125536.342500", "125537.342500", "125538.342500", "125539.342500", "125540.342500", "125541.342500", "125542.342500", "125543.342500", "125544.342500", "125545.342500", "125546.342500", "125547.342500", "125548.342500", "125549.342500", "125550.342500", "125551.342500", "125552.342500", "125553.342500", "125554.342500", "125555.342500", "125556.342500", "125557.342500", "125558.342500", "125559.342500", "125600.342500", "125601.342500", "125602.342500", "125603.342500", "125604.342500", "125605.342500", "125606.342500", "125607.342500", "125608.342500", "125609.342500", "125610.342500", "125611.342500", "125612.342500", "125613.342500", "125614.342500", "125615.342500", "125616.342500", "125617.342500", "125618.342500", "125619.342500", "125620.342500", "125621.342500", "125622.342500", "125623.342500", "125624.342500", "125625.342500", "125626.342500", "125627.342500", "125628.342500", "125629.342500", "125630.342500", "125631.342500", "125632.342500", "125633.342500", "125634.342500", "125635.342500", "125636.342500", "125637.342500", "125638.342500", "125639.342500", "125640.342500", "125641.342500", "125642.342500", "125643.342500", "125644.342500", "125645.342500", "125646.342500", "125647.342500", "125648.342500", "125649.342500", "125650.342500", "125651.342500", "125652.342500", "125653.342500", "125654.342500", "125655.342500", "125656.342500", "125657.342500", "125658.342500", "125659.342500", "125700.342500", "125701.342500", "125702.342500", "125703.342500", "125704.342500", "125705.342500", "125706.342500", "125707.342500", "125708.342500", "125709.342500", "125710.342500", "125711.342500", "125712.342500", "125713.342500", "125714.342500", "125715.342500", "125716.342500", "125717.342500", "125718.342500", "125719.342500", "125720.342500", "125721.342500", "125722.342500", "125723.342500", "125724.342500", "125725.342500", "125726.342500", "125727.342500", "125728.342500", "125729.342500", "125730.342500", "125731.342500", "125732.342500", "125733.342500", "125734.342500", "125735.342500", "125736.342500", "125737.342500", "125738.342500", "125739.342500", "125740.342500", "125741.342500", "125742.342500", "125743.342500", "125744.342500", "125745.342500", "125746.342500", "125747.342500", "125748.342500", "125749.342500", "125750.342500", "125751.342500", "125752.342500", "125753.342500", "125754.342500", "125755.342500", "125756.342500", "125757.342500", "125758.342500", "125759.342500", "125800.342500", "125801.342500", "125802.342500", "125803.342500", "125804.342500", "125805.342500", "125806.342500", "125807.342500", "125808.342500", "125809.342500", "125810.342500", "125811.342500", "125812.342500", "125813.342500", "125814.342500", "125815.342500", "125816.342500", "125817.342500", "125818.342500", "125819.342500", "125820.342500", "125821.342500", "125822.342500", "125823.342500", "125824.342500", "125825.342500", "125826.342500", "125827.342500", "125828.342500", "125829.342500", "125830.342500", "125831.342500", "125832.342500", "125833.342500", "125834.342500", "125835.342500", "125836.342500", "125837.342500", "125838.342500", "125839.342500", "125840.342500", "125841.342500", "125842.342500", "125843.342500", "125844.342500", "125845.342500", "125846.342500", "125847.342500", "125848.342500", "125849.342500", "125850.342500", "125851.342500", "125852.342500", "125853.342500", "125854.342500", "125855.342500", "125856.342500", "125857.342500", "125858.342500", "125859.342500", "125900.342500", "125901.342500", "125902.342500", "125903.342500", "125904.342500", "125905.342500", "125906.342500", "125907.342500", "125908.342500", "125909.342500", "125910.342500", "125911.342500", "125912.342500", "125913.342500", "125914.342500", "125915.342500", "125916.342500", "125917.342500", "125918.342500", "125919.342500", "125920.342500", "125921.342500", "125922.342500", "125923.342500", "125924.342500", "125925.342500", "125926.342500", "125927.342500", "125928.342500", "125929.342500", "125930.342500", "125931.342500", "125932.342500", "125933.342500", "125934.342500", "125935.342500", "125936.342500", "125937.342500", "125938.342500", "125939.342500", "125940.342500", "125941.342500", "125942.342500", "125943.342500", "125944.342500", "125945.342500", "125946.342500", "125947.342500", "125948.342500", "125949.342500", "125950.342500", "125951.342500", "125952.342500", "125953.342500", "125954.342500", "125955.342500", "125956.342500", "125957.342500", "125958.342500", "125959.342500", "130000.342500", "130001.342500", "130002.342500", "130003.342500", "130004.342500", "130005.342500", "130006.342500", "130007.342500", "130008.342500", "130009.342500", "130010.342500", "130011.342500", "130012.342500", "130013.342500", "130014.342500", "130015.342500", "130016.342500", "130017.342500", "130018.342500", "130019.342500", "130020.342500", "130021.342500", "130022.342500", "130023.342500", "130024.342500", "130025.342500", "130026.342500", "130027.342500", "130028.342500", "130029.342500", "130030.342500", "130031.342500", "130032.342500", "130033.342500", "130034.342500", "130035.342500", "130036.342500", "130037.342500", "130038.342500", "130039.342500", "130040.342500", "130041.342500", "130042.342500", "130043.342500", "130044.342500"],
      "ContentTime": ["125323.756000", "125323.760000", "125323.762000", "125323.765000", "125323.767000", "125323.770000", "125323.772000", "125323.775000", "125323.789000", "125323.792000", "125323.794000", "125323.797000", "125323.799000", "125323.802000", "125323.804000", "125323.807000", "125323.809000", "125323.812000", "125323.814000", "125323.817000", "125323.819000", "125323.822000", "125323.824000", "125323.827000", "125343.728000", "125343.731000", "125343.733000", "125343.736000", "125343.738000", "125343.741000", "125343.743000", "125343.746000", "125343.748000", "125343.750000", "125343.753000", "125343.755000", "125343.758000", "125343.760000", "125343.763000", "125343.765000", "125343.768000", "125343.770000", "125343.773000", "125343.775000", "125403.730000", "125403.732000", "125403.735000", "125403.737000", "125403.740000", "125403.742000", "125403.744000", "125403.747000", "125403.749000", "125403.752000", "125403.754000", "125403.757000", "125403.759000", "125403.761000", "125403.764000", "125403.766000", "125403.769000", "125403.771000", "125403.774000", "125403.784000", "125423.729000", "125423.732000", "125423.734000", "125423.737000", "125423.739000", "125423.742000", "125423.744000", "125423.747000", "125423.749000", "125423.752000", "125423.754000", "125423.757000", "125423.759000", "125423.762000", "125423.764000", "125423.766000", "125423.769000", "125423.772000", "125423.774000", "125423.776000", "125443.729000", "125443.732000", "125443.734000", "125443.737000", "125443.739000", "125443.742000", "125443.744000", "125443.747000", "125443.749000", "125443.752000", "125443.754000", "125443.757000", "125443.759000", "125443.762000", "125443.764000", "125443.767000", "125443.769000", "125443.772000", "125443.774000", "125443.776000", "125503.728000", "125503.731000", "125503.733000", "125503.736000", "125503.738000", "125503.741000", "125503.749000", "125503.752000", "125503.754000", "125503.757000", "125503.759000", "125503.761000", "125503.764000", "125503.766000", "125503.769000", "125503.771000", "125503.774000", "125503.776000", "125503.779000", "125503.781000", "125523.728000", "125523.731000", "125523.733000", "125523.736000", "125523.738000", "125523.741000", "125523.744000", "125523.746000", "125523.748000", "125523.751000", "125523.753000", "125523.756000", "125523.758000", "125523.761000", "125523.763000", "125523.765000", "125523.768000", "125523.770000", "125523.773000", "125523.775000", "125543.728000", "125543.731000", "125543.733000", "125543.736000", "125543.738000", "125543.741000", "125543.743000", "125543.746000", "125543.748000", "125543.750000", "125543.753000", "125543.755000", "125543.758000", "125543.760000", "125543.763000", "125543.765000", "125543.768000", "125543.770000", "125543.773000", "125543.775000", "125603.729000", "125603.731000", "125603.734000", "125603.736000", "125603.738000", "125603.741000", "125603.743000", "125603.746000", "125603.748000", "125603.751000", "125603.753000", "125603.755000", "125603.758000", "125603.760000", "125603.763000", "125603.765000", "125603.768000", "125603.770000", "125603.773000", "125603.775000", "125623.729000", "125623.732000", "125623.735000", "125623.737000", "125623.739000", "125623.742000", "125623.744000", "125623.747000", "125623.749000", "125623.752000", "125623.754000", "125623.757000", "125623.759000", "125623.762000", "125623.765000", "125623.767000", "125623.769000", "125623.772000", "125623.775000", "125623.777000", "125643.729000", "125643.732000", "125643.735000", "125643.737000", "125643.739000", "125643.742000", "125643.745000", "125643.747000", "125643.763000", "125643.765000", "125643.768000", "125643.770000", "125643.773000", "125643.775000", "125643.777000", "125643.780000", "125643.782000", "125643.785000", "125643.787000", "125643.790000", "125703.729000", "125703.732000", "125703.735000", "125703.737000", "125703.740000", "125703.742000", "125703.745000", "125703.747000", "125703.750000", "125703.752000", "125703.754000", "125703.757000", "125703.759000", "125703.762000", "125703.764000", "125703.767000", "125703.769000", "125703.772000", "125703.774000", "125703.776000", "125723.728000", "125723.731000", "125723.734000", "125723.736000", "125723.739000", "125723.741000", "125723.743000", "125723.746000", "125723.748000", "125723.751000", "125723.753000", "125723.756000", "125723.758000", "125723.761000", "125723.763000", "125723.766000", "125723.768000", "125723.770000", "125723.773000", "125723.775000", "125743.728000", "125743.731000", "125743.734000", "125743.736000", "125743.739000", "125743.741000", "125743.744000", "125743.746000", "125743.748000", "125743.751000", "125743.754000", "125743.756000", "125743.759000", "125743.761000", "125743.764000", "125743.766000", "125743.768000", "125743.771000", "125743.773000", "125743.776000", "125803.729000", "125803.731000", "125803.734000", "125803.737000", "125803.739000", "125803.742000", "125803.744000", "125803.747000", "125803.749000", "125803.752000", "125803.754000", "125803.757000", "125803.759000", "125803.762000", "125803.764000", "125803.767000", "125803.769000", "125803.772000", "125803.774000", "125803.777000", "125823.728000", "125823.731000", "125823.733000", "125823.736000", "125823.738000", "125823.741000", "125823.743000", "125823.746000", "125823.748000", "125823.751000", "125823.753000", "125823.756000", "125823.758000", "125823.760000", "125823.763000", "125823.765000", "125823.768000", "125823.770000", "125823.773000", "125823.784000", "125843.730000", "125843.732000", "125843.735000", "125843.738000", "125843.740000", "125843.742000", "125843.745000", "125843.747000", "125843.750000", "125843.752000", "125843.755000", "125843.757000", "125843.760000", "125843.762000", "125843.765000", "125843.767000", "125843.770000", "125843.772000", "125843.775000", "125843.777000", "125903.729000", "125903.732000", "125903.735000", "125903.737000", "125903.739000", "125903.742000", "125903.744000", "125903.747000", "125903.749000", "125903.752000", "125903.754000", "125903.757000", "125903.759000", "125903.762000", "125903.764000", "125903.767000", "125903.769000", "125903.772000", "125903.774000", "125903.777000", "125923.730000", "125923.732000", "125923.735000", "125923.737000", "125923.740000", "125923.742000", "125923.745000", "125923.747000", "125923.750000", "125923.752000", "125923.754000", "125923.757000", "125923.759000", "125923.762000", "125923.764000", "125923.767000", "125923.769000", "125923.772000", "125923.774000", "125923.777000", "125943.728000", "125943.731000", "125943.734000", "125943.736000", "125943.738000", "125943.741000", "125943.743000", "125943.746000", "125943.748000", "125943.751000", "125943.753000", "125943.756000", "125943.758000", "125943.761000", "125943.763000", "125943.766000", "125943.768000", "125943.770000", "125943.773000", "125943.775000", "130003.729000", "130003.731000", "130003.734000", "130003.736000", "130003.739000", "130003.741000", "130003.744000", "130003.746000", "130003.749000", "130003.751000", "130003.754000", "130003.756000", "130003.759000", "130003.761000", "130003.764000", "130003.766000", "130003.768000", "130003.771000", "130003.773000", "130003.776000", "130023.728000", "130023.731000", "130023.734000", "130023.749000", "130023.751000", "130023.753000", "130023.756000", "130023.759000", "130023.761000", "130023.764000", "130023.771000", "130023.773000", "130023.776000", "130023.778000", "130023.781000", "130023.783000", "130023.786000", "130023.788000", "130023.791000", "130023.793000", "130043.728000", "130043.731000", "130043.734000", "130043.736000", "130043.739000", "130043.741000", "130043.744000", "130043.747000", "130043.749000", "130043.751000", "130043.754000", "130043.756000", "130043.759000", "130043.761000", "130043.764000", "130043.766000", "130043.769000", "130043.771000", "130043.774000", "130043.776000", "130046.410000", "130046.413000", "130046.416000"],
