{
  "AcquisitionMatrixPE": 106,
  "AcquisitionNumber": 1,
  "AcquisitionTime": "18:43:0.785000",
  "BandwidthPerPixelPhaseEncode": 13.477,
  "BaseResolution": 106,
  "BodyPartExamined": "BRAIN",
  "CoilCombinationMethod": "Sum of Squares",
  "ConsistencyInfo": "N4_VE11C_LATEST_20160120",
  "ConversionSoftware": "dcm2niix",
  "ConversionSoftwareVersion": "v1.0.20220720",
  "DerivedVendorReportedEchoSpacing": 0.000700005,
  "DeviceSerialNumber": "166108",
  "DwellTime": 2.6e-06,
  "EchoTime": 0.03,
  "EchoTrainLength": 80,
  "EffectiveEchoSpacing": 0.000700005,
  "FlipAngle": 62,
  "HeudiconvVersion": "1.3.0",
  "ImageComments": "Unaliased MB4/PE3/LB",
  "ImageOrientationPatientDICOM": [1, 0, 0, 0, 0.994151, -0.107999],
  "ImageOrientationText": "Tra>Cor(-6.2)",
  "ImageType": [
    "ORIGINAL",
    "PRIMARY",
    "M",
    "MB",
    "ND",
    "MOSAIC"
],
  "ImagingFrequency": 123.244,
  "InPlanePhaseEncodingDirectionDICOM": "COL",
  "InstitutionAddress": "Bedford Way 26,London,London,GB,WC1H 0AP",
  "InstitutionName": "University College",
  "InstitutionalDepartmentName": "Department",
  "MRAcquisitionType": "2D",
  "MagneticFieldStrength": 3,
  "Manufacturer": "Siemens",
  "ManufacturersModelName": "Prisma",
  "MatrixCoilMode": "SENSE",
  "Modality": "MR",
  "MultibandAccelerationFactor": 4,
  "NonlinearGradientCorrection": false,
  "PartialFourier": 0.75,
  "PatientPosition": "HFS",
  "PercentPhaseFOV": 100,
  "PercentSampling": 100,
  "PhaseEncodingDirection": "j-",
  "PhaseEncodingSteps": 80,
  "PhaseResolution": 1,
  "PixelBandwidth": 1815,
  "ProcedureStepDescription": "Egor^MovieProject2",
  "ProtocolName": "func-bold_task-motor_run-01",
  "PulseSequenceDetails": "%CustomerSeq%\\cmrr_mbep2d_bold",
  "ReceiveCoilActiveElements": "HEA;HEP",
  "ReceiveCoilName": "Head_32",
  "ReconMatrixPE": 106,
  "RepetitionTime": 1,
  "SAR": 0.0453947,
  "ScanOptions": "PFP\\FS\\EXT",
  "ScanningSequence": "EP",
  "SequenceName": "epfid2d1_106",
  "SequenceVariant": "SK\\SS",
  "SeriesDescription": "func-bold_task-motor_run-01",
  "SeriesNumber": 4,
  "ShimSetting": [-1544, 646, 7376, 233, -158, 187, 233, -88],
  "SliceThickness": 2,
  "SliceTiming": [0, 0.535, 0.09, 0.625, 0.1775, 0.7125, 0.2675, 0.8025, 0.3575, 0.89, 0.445, 0, 0.535, 0.09, 0.625, 0.1775, 0.7125, 0.2675, 0.8025, 0.3575, 0.89, 0.445, 0, 0.535, 0.09, 0.625, 0.1775, 0.7125, 0.2675, 0.8025, 0.3575, 0.89, 0.445, 0, 0.535, 0.09, 0.625, 0.1775, 0.7125, 0.2675, 0.8025, 0.3575, 0.89, 0.445],
  "SoftwareVersions": "syngo MR E11",
  "SpacingBetweenSlices": 2,
  "StationName": "AWP166108",
  "TaskName": "somatotopy",
  "TotalReadoutTime": 0.0735005,
  "TxRefAmp": 235.739,
  "WipMemBlock": "7dada185-fe50-4946-99cc-93122e916fac||Sequence: R016 ve11c/master r/e634e98; Dec 19 2017 11:00:25 by eja",
  "dcmmeta_affine": [
    [-2.0, 0.0, 0.0, 106.0],
    [0.0, 1.9883018732070923, -0.21599870920181274, -88.93086242675781],
    [0.0, 0.21599870920181274, 1.9883018732070923, -1.8756048679351807],
    [0.0, 0.0, 0.0, 1.0]
],
  "dcmmeta_reorient_transform": [
    [0.0, -1.0, 0.0, 105.0],
    [1.0, 0.0, 0.0, 0.0],
    [0.0, 0.0, 1.0, 0.0],
    [0.0, 0.0, 0.0, 1.0]
],
  "dcmmeta_shape": [106, 106, 44, 467],
  "dcmmeta_slice_dim": 2,
  "dcmmeta_version": 0.6,
  "global": {
    "const": {
      "AcquisitionMatrix": [106, 0, 0, 106],
      "AngioFlag": "N",
      "BitsAllocated": 16,
      "BitsStored": 16,
      "BodyPartExamined": "BRAIN",
      "CardiacNumberOfImages": 1,
      "Columns": 742,
      "EchoNumbers": 1,
      "EchoTime": 30.0,
      "EchoTrainLength": 80,
      "FlipAngle": 62.0,
      "HighBit": 15,
      "ImageOrientationPatient": [1.0, 0.0, 0.0, 0.0, 0.99415096409965, -0.1079993545339],
      "ImagePositionPatient": [-742.0, -752.12085558716, 89.491849074683],
      "ImageType": [
        "ORIGINAL",
        "PRIMARY",
        "M",
        "MB",
        "ND",
        "MOSAIC"
],
      "ImagedNucleus": "1H",
      "ImagingFrequency": 123.243645,
      "InPlanePhaseEncodingDirection": "COL",
      "MRAcquisitionType": "2D",
      "MagneticFieldStrength": 3.0,
      "Manufacturer": "SIEMENS",
      "ManufacturerModelName": "Prisma",
      "Modality": "MR",
      "NominalInterval": 0,
      "NumberOfAverages": 1.0,
      "NumberOfPhaseEncodingSteps": 80,
      "PercentPhaseFieldOfView": 100.0,
      "PercentSampling": 100.0,
      "PerformedProcedureStepStartTime": "174449.426000",
      "PhotometricInterpretation": "MONOCHROME2",
      "PixelBandwidth": 1815.0,
      "PixelRepresentation": 0,
      "PixelSpacing": [2.0, 2.0],
      "ProtocolName": "func-bold_task-motor_run-01",
      "RepetitionTime": 1000.0,
      "Rows": 742,
      "SAR": 0.04539473071574,
      "SamplesPerPixel": 1,
      "ScanOptions": [
        "PFP",
        "FS",
        "EXT"
],
      "ScanningSequence": "EP",
      "SequenceName": "epfid2d1_106",
      "SequenceVariant": [
        "SK",
        "SS"
],
      "SeriesDescription": "func-bold_task-motor_run-01",
      "SeriesNumber": 4,
      "SeriesTime": "184331.365000",
      "SliceLocation": 7.7398411017889,
      "SliceThickness": 2.0,
      "SmallestImagePixelValue": 0,
      "SoftwareVersions": "syngo MR E11",
      "SpacingBetweenSlices": 1.9999999720949,
      "SpecificCharacterSet": "ISO_IR 100",
      "StudyID": "1",
      "StudyTime": "174449.359000",
      "TransmitCoilName": "Body",
      "VariableFlipAngleFlag": "N",
      "WindowCenterWidthExplanation": "Algo1",
      "dBdt": 0.0},
    "slices": {}
  },
  "time": {
    "samples": {
      "AcquisitionNumber": [1, 2, 3, 4, 5, 6, 7, 8, 9, 10, 11, 12, 13, 14, 15, 16, 17, 18, 19, 20, 21, 22, 23, 24, 25, 26, 27, 28, 29, 30, 31, 32, 33, 34, 35, 36, 37, 38, 39, 40, 41, 42, 43, 44, 45, 46, 47, 48, 49, 50, 51, 52, 53, 54, 55, 56, 57, 58, 59, 60, 61, 62, 63, 64, 65, 66, 67, 68, 69, 70, 71, 72, 73, 74, 75, 76, 77, 78, 79, 80, 81, 82, 83, 84, 85, 86, 87, 88, 89, 90, 91, 92, 93, 94, 95, 96, 97, 98, 99, 100, 101, 102, 103, 104, 105, 106, 107, 108, 109, 110, 111, 112, 113, 114, 115, 116, 117, 118, 119, 120, 121, 122, 123, 124, 125, 126, 127, 128, 129, 130, 131, 132, 133, 134, 135, 136, 137, 138, 139, 140, 141, 142, 143, 144, 145, 146, 147, 148, 149, 150, 151, 152, 153, 154, 155, 156, 157, 158, 159, 160, 161, 162, 163, 164, 165, 166, 167, 168, 169, 170, 171, 172, 173, 174, 175, 176, 177, 178, 179, 180, 181, 182, 183, 184, 185, 186, 187, 188, 189, 190, 191, 192, 193, 194, 195, 196, 197, 198, 199, 200, 201, 202, 203, 204, 205, 206, 207, 208, 209, 210, 211, 212, 213, 214, 215, 216, 217, 218, 219, 220, 221, 222, 223, 224, 225, 226, 227, 228, 229, 230, 231, 232, 233, 234, 235, 236, 237, 238, 239, 240, 241, 242, 243, 244, 245, 246, 247, 248, 249, 250, 251, 252, 253, 254, 255, 256, 257, 258, 259, 260, 261, 262, 263, 264, 265, 266, 267, 268, 269, 270, 271, 272, 273, 274, 275, 276, 277, 278, 279, 280, 281, 282, 283, 284, 285, 286, 287, 288, 289, 290, 291, 292, 293, 294, 295, 296, 297, 298, 299, 300, 301, 302, 303, 304, 305, 306, 307, 308, 309, 310, 311, 312, 313, 314, 315, 316, 317, 318, 319, 320, 321, 322, 323, 324, 325, 326, 327, 328, 329, 330, 331, 332, 333, 334, 335, 336, 337, 338, 339, 340, 341, 342, 343, 344, 345, 346, 347, 348, 349, 350, 351, 352, 353, 354, 355, 356, 357, 358, 359, 360, 361, 362, 363, 364, 365, 366, 367, 368, 369, 370, 371, 372, 373, 374, 375, 376, 377, 378, 379, 380, 381, 382, 383, 384, 385, 386, 387, 388, 389, 390, 391, 392, 393, 394, 395, 396, 397, 398, 399, 400, 401, 402, 403, 404, 405, 406, 407, 408, 409, 410, 411, 412, 413, 414, 415, 416, 417, 418, 419, 420, 421, 422, 423, 424, 425, 426, 427, 428, 429, 430, 431, 432, 433, 434, 435, 436, 437, 438, 439, 440, 441, 442, 443, 444, 445, 446, 447, 448, 449, 450, 451, 452, 453, 454, 455, 456, 457, 458, 459, 460, 461, 462, 463, 464, 465, 466, 467],
      "AcquisitionTime": ["184300.785000", "184301.785000", "184302.785000", "184303.785000", "184304.785000", "184305.785000", "184306.785000", "184307.785000", "184308.785000", "184309.785000", "184310.785000", "184311.785000", "184312.785000", "184313.785000", "184314.785000", "184315.785000", "184316.785000", "184317.785000", "184318.785000", "184319.785000", "184320.785000", "184321.785000", "184322.785000", "184323.785000", "184324.785000", "184325.785000", "184326.785000", "184327.785000", "184328.785000", "184329.785000", "184330.785000", "184331.785000", "184332.785000", "184333.785000", "184334.785000", "184335.785000", "184336.785000", "184337.785000", "184338.785000", "184339.785000", "184340.785000", "184341.785000", "184342.785000", "184343.785000", "184344.785000", "184345.785000", "184346.785000", "184347.785000", "184348.785000", "184349.785000", "184350.785000", "184351.785000", "184352.785000", "184353.785000", "184354.785000", "184355.785000", "184356.785000", "184357.785000", "184358.785000", "184359.785000", "184400.785000", "184401.785000", "184402.785000", "184403.785000", "184404.785000", "184405.785000", "184406.785000", "184407.785000", "184408.785000", "184409.785000", "184410.785000", "184411.785000", "184412.785000", "184413.785000", "184414.785000", "184415.785000", "184416.785000", "184417.785000", "184418.785000", "184419.785000", "184420.785000", "184421.785000", "184422.785000", "184423.785000", "184424.785000", "184425.785000", "184426.785000", "184427.785000", "184428.785000", "184429.785000", "184430.785000", "184431.785000", "184432.785000", "184433.785000", "184434.785000", "184435.785000", "184436.785000", "184437.785000", "184438.785000", "184439.785000", "184440.785000", "184441.785000", "184442.785000", "184443.785000", "184444.785000", "184445.785000", "184446.785000", "184447.785000", "184448.785000", "184449.785000", "184450.785000", "184451.785000", "184452.785000", "184453.785000", "184454.785000", "184455.785000", "184456.785000", "184457.785000", "184458.785000", "184459.785000", "184500.785000", "184501.785000", "184502.785000", "184503.785000", "184504.785000", "184505.785000", "184506.785000", "184507.785000", "184508.785000", "184509.785000", "184510.785000", "184511.785000", "184512.785000", "184513.785000", "184514.785000", "184515.785000", "184516.785000", "184517.785000", "184518.785000", "184519.785000", "184520.785000", "184521.785000", "184522.785000", "184523.785000", "184524.785000", "184525.785000", "184526.785000", "184527.785000", "184528.785000", "184529.785000", "184530.785000", "184531.785000", "184532.785000", "184533.785000", "184534.785000", "184535.785000", "184536.785000", "184537.785000", "184538.785000", "184539.785000", "184540.785000", "184541.785000", "184542.785000", "184543.785000", "184544.785000", "184545.785000", "184546.785000", "184547.785000", "184548.785000", "184549.785000", "184550.785000", "184551.785000", "184552.785000", "184553.785000", "184554.785000", "184555.785000", "184556.785000", "184557.785000", "184558.785000", "184559.785000", "184600.785000", "184601.785000", "184602.785000", "184603.785000", "184604.785000", "184605.785000", "184606.785000", "184607.785000", "184608.785000", "184609.785000", "184610.785000", "184611.785000", "184612.785000", "184613.785000", "184614.785000", "184615.785000", "184616.785000", "184617.785000", "184618.785000", "184619.785000", "184620.785000", "184621.785000", "184622.785000", "184623.785000", "184624.785000", "184625.785000", "184626.785000", "184627.785000", "184628.785000", "184629.785000", "184630.785000", "184631.785000", "184632.785000", "184633.785000", "184634.785000", "184635.785000", "184636.785000", "184637.785000", "184638.785000", "184639.785000", "184640.785000", "184641.785000", "184642.785000", "184643.785000", "184644.785000", "184645.785000", "184646.785000", "184647.785000", "184648.785000", "184649.785000", "184650.785000", "184651.785000", "184652.785000", "184653.785000", "184654.785000", "184655.785000", "184656.785000", "184657.785000", "184658.785000", "184659.785000", "184700.785000", "184701.785000", "184702.785000", "184703.785000", "184704.785000", "184705.785000", "184706.785000", "184707.785000", "184708.785000", "184709.785000", "184710.785000", "184711.785000", "184712.785000", "184713.785000", "184714.785000", "184715.785000", "184716.785000", "184717.785000", "184718.785000", "184719.785000", "184720.785000", "184721.785000", "184722.785000", "184723.785000", "184724.785000", "184725.785000", "184726.785000", "184727.785000", "184728.785000", "184729.785000", "184730.785000", "184731.785000", "184732.785000", "184733.785000", "184734.785000", "184735.785000", "184736.785000", "184737.785000", "184738.785000", "184739.785000", "184740.785000", "184741.785000", "184742.785000", "184743.785000", "184744.785000", "184745.785000", "184746.785000", "184747.785000", "184748.785000", "184749.785000", "184750.785000", "184751.785000", "184752.785000", "184753.785000", "184754.785000", "184755.785000", "184756.785000", "184757.785000", "184758.785000", "184759.785000", "184800.785000", "184801.785000", "184802.785000", "184803.785000", "184804.785000", "184805.785000", "184806.785000", "184807.785000", "184808.785000", "184809.785000", "184810.785000", "184811.785000", "184812.785000", "184813.785000", "184814.785000", "184815.785000", "184816.785000", "184817.785000", "184818.785000", "184819.785000", "184820.785000", "184821.785000", "184822.785000", "184823.785000", "184824.785000", "184825.785000", "184826.785000", "184827.785000", "184828.785000", "184829.785000", "184830.785000", "184831.785000", "184832.785000", "184833.785000", "184834.785000", "184835.785000", "184836.785000", "184837.785000", "184838.785000", "184839.785000", "184840.785000", "184841.785000", "184842.785000", "184843.785000", "184844.785000", "184845.785000", "184846.785000", "184847.785000", "184848.785000", "184849.785000", "184850.785000", "184851.785000", "184852.785000", "184853.785000", "184854.785000", "184855.785000", "184856.785000", "184857.785000", "184858.785000", "184859.785000", "184900.785000", "184901.785000", "184902.785000", "184903.785000", "184904.785000", "184905.785000", "184906.785000", "184907.785000", "184908.785000", "184909.785000", "184910.785000", "184911.785000", "184912.785000", "184913.785000", "184914.785000", "184915.785000", "184916.785000", "184917.785000", "184918.785000", "184919.785000", "184920.785000", "184921.785000", "184922.785000", "184923.785000", "184924.785000", "184925.785000", "184926.785000", "184927.785000", "184928.785000", "184929.785000", "184930.785000", "184931.785000", "184932.785000", "184933.785000", "184934.785000", "184935.785000", "184936.785000", "184937.785000", "184938.785000", "184939.785000", "184940.785000", "184941.785000", "184942.785000", "184943.785000", "184944.785000", "184945.785000", "184946.785000", "184947.785000", "184948.785000", "184949.785000", "184950.785000", "184951.785000", "184952.785000", "184953.785000", "184954.785000", "184955.785000", "184956.785000", "184957.785000", "184958.785000", "184959.785000", "185000.785000", "185001.785000", "185002.785000", "185003.785000", "185004.785000", "185005.785000", "185006.785000", "185007.785000", "185008.785000", "185009.785000", "185010.785000", "185011.785000", "185012.785000", "185013.785000", "185014.785000", "185015.785000", "185016.785000", "185017.785000", "185018.785000", "185019.785000", "185020.785000", "185021.785000", "185022.785000", "185023.785000", "185024.785000", "185025.785000", "185026.785000", "185027.785000", "185028.785000", "185029.785000", "185030.785000", "185031.785000", "185032.785000", "185033.785000", "185034.785000", "185035.785000", "185036.785000", "185037.785000", "185038.785000", "185039.785000", "185040.785000", "185041.785000", "185042.785000", "185043.785000", "185044.785000", "185045.785000", "185046.785000"],
      "ContentTime": ["184331.367000", "184331.370000", "184331.372000", "184331.384000", "184331.393000", "184331.396000", "184331.398000", "184331.401000", "184331.403000", "184331.406000", "184331.408000", "184331.411000", "184331.413000", "184331.415000", "184331.418000", "184331.421000", "184331.423000", "184331.426000", "184331.434000", "184331.436000", "184331.439000", "184331.441000", "184331.444000", "184331.446000", "184331.448000", "184331.451000", "184331.453000", "184331.456000", "184331.458000", "184351.338000", "184351.341000", "184351.344000", "184351.346000", "184351.349000", "184351.360000", "184351.362000", "184351.365000", "184351.367000", "184351.370000", "184351.372000", "184351.375000", "184351.377000", "184351.380000", "184351.382000", "184351.384000", "184351.387000", "184351.389000", "184351.392000", "184351.394000", "184411.338000", "184411.341000", "184411.343000", "184411.346000", "184411.348000", "184411.351000", "184411.354000", "184411.356000", "184411.359000", "184411.369000", "184411.372000", "184411.374000", "184411.377000", "184411.379000", "184411.382000", "184411.384000", "184411.387000", "184411.389000", "184411.392000", "184411.394000", "184431.338000", "184431.341000", "184431.344000", "184431.346000", "184431.348000", "184431.351000", "184431.353000", "184431.356000", "184431.358000", "184431.361000", "184431.363000", "184431.366000", "184431.368000", "184431.371000", "184431.373000", "184431.376000", "184431.378000", "184431.381000", "184431.383000", "184431.386000", "184451.338000", "184451.340000", "184451.343000", "184451.345000", "184451.348000", "184451.350000", "184451.352000", "184451.355000", "184451.357000", "184451.360000", "184451.363000", "184451.365000", "184451.367000", "184451.370000", "184451.372000", "184451.375000", "184451.377000", "184451.380000", "184451.382000", "184451.384000", "184511.337000", "184511.340000", "184511.343000", "184511.345000", "184511.348000", "184511.361000", "184511.363000", "184511.366000", "184511.368000", "184511.371000", "184511.373000", "184511.376000", "184511.378000", "184511.381000", "184511.383000", "184511.386000", "184511.388000", "184511.391000", "184511.393000", "184511.396000", "184531.338000", "184531.341000", "184531.344000", "184531.346000", "184531.349000", "184531.351000", "184531.354000", "184531.356000", "184531.359000", "184531.362000", "184531.364000", "184531.366000", "184531.369000", "184531.371000", "184531.374000", "184531.376000", "184531.379000", "184531.381000", "184531.384000", "184531.387000", "184551.338000", "184551.341000", "184551.343000", "184551.346000", "184551.349000", "184551.351000", "184551.354000", "184551.356000", "184551.359000", "184551.361000", "184551.364000", "184551.366000", "184551.369000", "184551.371000", "184551.374000", "184551.376000", "184551.379000", "184551.381000", "184551.384000", "184551.386000", "184611.338000", "184611.341000", "184611.344000", "184611.346000", "184611.349000", "184611.351000", "184611.354000", "184611.356000", "184611.359000", "184611.361000", "184611.364000", "184611.366000", "184611.369000", "184611.371000", "184611.374000", "184611.384000", "184611.386000", "184611.389000", "184611.391000", "184611.394000", "184631.338000", "184631.341000", "184631.344000", "184631.346000", "184631.349000", "184631.351000", "184631.354000", "184631.356000", "184631.359000", "184631.361000", "184631.364000", "184631.366000", "184631.369000", "184631.371000", "184631.374000", "184631.376000", "184631.379000", "184631.381000", "184631.384000", "184631.386000", "184651.338000", "184651.341000", "184651.343000", "184651.346000", "184651.348000", "184651.351000", "184651.354000", "184651.356000", "184651.359000", "184651.361000", "184651.364000", "184651.366000", "184651.369000", "184651.371000", "184651.374000", "184651.376000", "184651.379000", "184651.381000", "184651.384000", "184651.386000", "184711.354000", "184711.356000", "184711.359000", "184711.362000", "184711.364000", "184711.367000", "184711.370000", "184711.372000", "184711.375000", "184711.377000", "184711.380000", "184711.382000", "184711.384000", "184711.387000", "184711.389000", "184711.392000", "184711.394000", "184711.397000", "184711.399000", "184711.402000", "184731.338000", "184731.341000", "184731.344000", "184731.346000", "184731.349000", "184731.351000", "184731.354000", "184731.356000", "184731.359000", "184731.361000", "184731.364000", "184731.366000", "184731.369000", "184731.371000", "184731.374000", "184731.376000", "184731.379000", "184731.381000", "184731.384000", "184731.386000", "184751.339000", "184751.341000", "184751.344000", "184751.346000", "184751.349000", "184751.351000", "184751.354000", "184751.356000", "184751.359000", "184751.361000", "184751.364000", "184751.366000", "184751.369000", "184751.371000", "184751.374000", "184751.376000", "184751.379000", "184751.381000", "184751.384000", "184751.386000", "184811.338000", "184811.341000", "184811.344000", "184811.346000", "184811.349000", "184811.351000", "184811.354000", "184811.356000", "184811.359000", "184811.361000", "184811.364000", "184811.366000", "184811.369000", "184811.371000", "184811.374000", "184811.376000", "184811.379000", "184811.381000", "184811.384000", "184811.386000", "184831.338000", "184831.341000", "184831.344000", "184831.346000", "184831.349000", "184831.351000", "184831.354000", "184831.356000", "184831.359000", "184831.361000", "184831.364000", "184831.367000", "184831.369000", "184831.372000", "184831.374000", "184831.377000", "184831.379000", "184831.382000", "184831.384000", "184831.387000", "184851.338000", "184851.341000", "184851.343000", "184851.346000", "184851.348000", "184851.351000", "184851.353000", "184851.356000", "184851.358000", "184851.361000", "184851.363000", "184851.366000", "184851.369000", "184851.371000", "184851.374000", "184851.377000", "184851.379000", "184851.382000", "184851.384000", "184851.386000", "184911.338000", "184911.341000", "184911.344000", "184911.346000", "184911.349000", "184911.351000", "184911.354000", "184911.356000", "184911.359000", "184911.361000", "184911.364000", "184911.366000", "184911.369000", "184911.371000", "184911.374000", "184911.376000", "184911.379000", "184911.381000", "184911.384000", "184911.386000", "184931.337000", "184931.340000", "184931.343000", "184931.346000", "184931.348000", "184931.351000", "184931.354000", "184931.356000", "184931.359000", "184931.361000", "184931.364000", "184931.366000", "184931.369000", "184931.371000", "184931.374000", "184931.376000", "184931.379000", "184931.382000", "184931.384000", "184931.387000", "184951.339000", "184951.341000", "184951.344000", "184951.346000", "184951.349000", "184951.351000", "184951.354000", "184951.356000", "184951.359000", "184951.361000", "184951.364000", "184951.366000", "184951.369000", "184951.371000", "184951.374000", "184951.376000", "184951.379000", "184951.381000", "184951.384000", "184951.386000", "185011.339000", "185011.341000", "185011.344000", "185011.346000", "185011.349000", "185011.351000", "185011.354000", "185011.356000", "185011.359000", "185011.362000", "185011.364000", "185011.367000", "185011.369000", "185011.372000", "185011.374000", "185011.377000", "185011.379000", "185011.382000", "185011.385000", "185011.387000", "185031.338000", "185031.341000", "185031.343000", "185031.346000", "185031.348000", "185031.351000", "185031.354000", "185031.356000", "185031.359000", "185031.362000", "185031.364000", "185031.367000", "185031.369000", "185031.371000", "185031.374000", "185031.377000", "185031.379000", "185031.382000", "185031.384000", "185031.387000", "185049.150000", "185049.153000", "185049.155000", "185049.158000", "185049.160000", "185049.163000", "185049.165000", "185049.168000", "185049.170000", "185049.173000", "185049.175000", "185049.178000", "185049.180000", "185049.182000", "185049.185000", "185049.187000", "185049.190000", "185049.192000"],
