{
  "AcquisitionMatrixPE": 106,
  "AcquisitionNumber": 1,
  "AcquisitionTime": "13:32:20.845000",
  "BandwidthPerPixelPhaseEncode": 16.846,
  "BaseResolution": 106,
  "BodyPartExamined": "BRAIN",
  "CoilCombinationMethod": "Sum of Squares",
  "ConsistencyInfo": "N4_VE11C_LATEST_20160120",
  "ConversionSoftware": "dcm2niix",
  "ConversionSoftwareVersion": "v1.0.20220720",
  "DerivedVendorReportedEchoSpacing": 0.000560012,
  "DeviceSerialNumber": "166108",
  "DwellTime": 1.8e-06,
  "EchoTime": 0.0352,
  "EchoTrainLength": 106,
  "EffectiveEchoSpacing": 0.000560012,
  "FlipAngle": 60,
  "HeudiconvVersion": "1.3.0",
  "ImageComments": "Unaliased MB4/PE3/LB",
  "ImageOrientationPatientDICOM": [1, 0, 0, 0, 1, 0],
  "ImageOrientationText": "Tra",
  "ImageType": [
    "ORIGINAL",
    "PRIMARY",
    "M",
    "MB",
    "ND",
    "MOSAIC"
],
  "ImagingFrequency": 123.244,
  "InPlanePhaseEncodingDirectionDICOM": "COL",
  "InstitutionAddress": "Bedford Way 26,London,London,GB,WC1H 0AP",
  "InstitutionName": "University College",
  "InstitutionalDepartmentName": "Department",
  "MRAcquisitionType": "2D",
  "MagneticFieldStrength": 3,
  "Manufacturer": "Siemens",
  "ManufacturersModelName": "Prisma",
  "MatrixCoilMode": "SENSE",
  "Modality": "MR",
  "MultibandAccelerationFactor": 4,
  "NonlinearGradientCorrection": false,
  "PartialFourier": 1,
  "PatientPosition": "HFS",
  "PercentPhaseFOV": 100,
  "PercentSampling": 100,
  "PhaseEncodingDirection": "j-",
  "PhaseEncodingSteps": 106,
  "PhaseResolution": 1,
  "PixelBandwidth": 2620,
  "ProcedureStepDescription": "Egor^MovieProject2",
  "ProtocolName": "task-backtothefuture_run-1",
  "PulseSequenceDetails": "%CustomerSeq%\\cmrr_mbep2d_bold",
  "ReceiveCoilActiveElements": "HEA;HEP",
  "ReceiveCoilName": "Head_32",
  "ReconMatrixPE": 106,
  "RepetitionTime": 1.5,
  "SAR": 0.0869355,
  "ScanOptions": "FS\\EXT",
  "ScanningSequence": "EP",
  "SequenceName": "epfid2d1_106",
  "SequenceVariant": "SK\\SS",
  "SeriesDescription": "task-backtothefuture_run-1",
  "SeriesNumber": 3,
  "ShimSetting": [-1498, 594, 7402, 147, 106, 5, 173, -88],
  "SliceThickness": 2,
  "SliceTiming": [0, 1.07, 0.6575, 0.2475, 1.315, 0.905, 0.495, 0.0825, 1.1525, 0.74, 0.33, 1.3975, 0.9875, 0.5775, 0.165, 1.235, 0.8225, 0.4125, 0, 1.07, 0.6575, 0.2475, 1.315, 0.905, 0.495, 0.0825, 1.1525, 0.74, 0.33, 1.3975, 0.9875, 0.5775, 0.165, 1.235, 0.8225, 0.4125, 0, 1.07, 0.6575, 0.2475, 1.315, 0.905, 0.495, 0.0825, 1.1525, 0.74, 0.33, 1.3975, 0.9875, 0.5775, 0.165, 1.235, 0.8225, 0.4125, 0, 1.07, 0.6575, 0.2475, 1.315, 0.905, 0.495, 0.0825, 1.1525, 0.74, 0.33, 1.3975, 0.9875, 0.5775, 0.165, 1.235, 0.8225, 0.4125],
  "SoftwareVersions": "syngo MR E11",
  "SpacingBetweenSlices": 2,
  "StationName": "AWP166108",
  "TaskName": "backtothefuture",
  "TotalReadoutTime": 0.0588013,
  "TxRefAmp": 220.642,
  "WipMemBlock": "03852508-13b4-430d-864e-0501d9023ea0||Sequence: R016 ve11c/master r/e634e98; Dec 19 2017 11:00:25 by eja",
  "dcmmeta_affine": [
    [-2.0, 0.0, 0.0, 106.0],
    [0.0, 2.0, 0.0, -91.9518051147461],
    [0.0, 0.0, 2.0, -60.1566276550293],
    [0.0, 0.0, 0.0, 1.0]
],
  "dcmmeta_reorient_transform": [
    [0.0, -1.0, 0.0, 105.0],
    [1.0, 0.0, 0.0, 0.0],
    [0.0, 0.0, 1.0, 0.0],
    [0.0, 0.0, 0.0, 1.0]
],
  "dcmmeta_shape": [106, 106, 72, 1360],
  "dcmmeta_slice_dim": 2,
  "dcmmeta_version": 0.6,
  "global": {
    "const": {
      "AcquisitionMatrix": [106, 0, 0, 106],
      "AngioFlag": "N",
      "BitsAllocated": 16,
      "BitsStored": 16,
      "BodyPartExamined": "BRAIN",
      "CardiacNumberOfImages": 1,
      "Columns": 954,
      "EchoNumbers": 1,
      "EchoTime": 35.2,
      "EchoTrainLength": 106,
      "FlipAngle": 60.0,
      "HighBit": 15,
      "ImageOrientationPatient": [1.0, 0.0, 0.0, 0.0, 1.0, 0.0],
      "ImagePositionPatient": [-954.0, -966.04819297791, -60.156627655029],
      "ImageType": [
        "ORIGINAL",
        "PRIMARY",
        "M",
        "MB",
        "ND",
        "MOSAIC"
],
      "ImagedNucleus": "1H",
      "ImagingFrequency": 123.243634,
      "InPlanePhaseEncodingDirection": "COL",
      "MRAcquisitionType": "2D",
      "MagneticFieldStrength": 3.0,
      "Manufacturer": "SIEMENS",
      "ManufacturerModelName": "Prisma",
      "Modality": "MR",
      "NominalInterval": 0,
      "NumberOfAverages": 1.0,
      "NumberOfPhaseEncodingSteps": 106,
      "PercentPhaseFieldOfView": 100.0,
      "PercentSampling": 100.0,
      "PerformedProcedureStepStartTime": "130010.912000",
      "PhotometricInterpretation": "MONOCHROME2",
      "PixelBandwidth": 2620.0,
      "PixelRepresentation": 0,
      "PixelSpacing": [2.0, 2.0],
      "ProtocolName": "task-backtothefuture_run-1",
      "RepetitionTime": 1500.0,
      "Rows": 954,
      "SAR": 0.08693548511498,
      "SamplesPerPixel": 1,
      "ScanOptions": [
        "FS",
        "EXT"
],
      "ScanningSequence": "EP",
      "SequenceName": "epfid2d1_106",
      "SequenceVariant": [
        "SK",
        "SS"
],
      "SeriesDescription": "task-backtothefuture_run-1",
      "SeriesNumber": 3,
      "SeriesTime": "133305.345000",
      "SliceLocation": -60.156627655029,
      "SliceThickness": 2.0,
      "SmallestImagePixelValue": 0,
      "SoftwareVersions": "syngo MR E11",
      "SpacingBetweenSlices": 2.0000000537281,
      "SpecificCharacterSet": "ISO_IR 100",
      "StudyID": "1",
      "StudyTime": "130010.853000",
      "TransmitCoilName": "Body",
      "VariableFlipAngleFlag": "N",
      "WindowCenterWidthExplanation": "Algo1",
      "dBdt": 0.0},
    "slices": {}
  },
  "time": {
    "samples": {
      "AcquisitionNumber": [1, 2, 3, 4, 5, 6, 7, 8, 9, 10, 11, 12, 13, 14, 15, 16, 17, 18, 19, 20, 21, 22, 23, 24, 25, 26, 27, 28, 29, 30, 31, 32, 33, 34, 35, 36, 37, 38, 39, 40, 41, 42, 43, 44, 45, 46, 47, 48, 49, 50, 51, 52, 53, 54, 55, 56, 57, 58, 59, 60, 61, 62, 63, 64, 65, 66, 67, 68, 69, 70, 71, 72, 73, 74, 75, 76, 77, 78, 79, 80, 81, 82, 83, 84, 85, 86, 87, 88, 89, 90, 91, 92, 93, 94, 95, 96, 97, 98, 99, 100, 101, 102, 103, 104, 105, 106, 107, 108, 109, 110, 111, 112, 113, 114, 115, 116, 117, 118, 119, 120, 121, 122, 123, 124, 125, 126, 127, 128, 129, 130, 131, 132, 133, 134, 135, 136, 137, 138, 139, 140, 141, 142, 143, 144, 145, 146, 147, 148, 149, 150, 151, 152, 153, 154, 155, 156, 157, 158, 159, 160, 161, 162, 163, 164, 165, 166, 167, 168, 169, 170, 171, 172, 173, 174, 175, 176, 177, 178, 179, 180, 181, 182, 183, 184, 185, 186, 187, 188, 189, 190, 191, 192, 193, 194, 195, 196, 197, 198, 199, 200, 201, 202, 203, 204, 205, 206, 207, 208, 209, 210, 211, 212, 213, 214, 215, 216, 217, 218, 219, 220, 221, 222, 223, 224, 225, 226, 227, 228, 229, 230, 231, 232, 233, 234, 235, 236, 237, 238, 239, 240, 241, 242, 243, 244, 245, 246, 247, 248, 249, 250, 251, 252, 253, 254, 255, 256, 257, 258, 259, 260, 261, 262, 263, 264, 265, 266, 267, 268, 269, 270, 271, 272, 273, 274, 275, 276, 277, 278, 279, 280, 281, 282, 283, 284, 285, 286, 287, 288, 289, 290, 291, 292, 293, 294, 295, 296, 297, 298, 299, 300, 301, 302, 303, 304, 305, 306, 307, 308, 309, 310, 311, 312, 313, 314, 315, 316, 317, 318, 319, 320, 321, 322, 323, 324, 325, 326, 327, 328, 329, 330, 331, 332, 333, 334, 335, 336, 337, 338, 339, 340, 341, 342, 343, 344, 345, 346, 347, 348, 349, 350, 351, 352, 353, 354, 355, 356, 357, 358, 359, 360, 361, 362, 363, 364, 365, 366, 367, 368, 369, 370, 371, 372, 373, 374, 375, 376, 377, 378, 379, 380, 381, 382, 383, 384, 385, 386, 387, 388, 389, 390, 391, 392, 393, 394, 395, 396, 397, 398, 399, 400, 401, 402, 403, 404, 405, 406, 407, 408, 409, 410, 411, 412, 413, 414, 415, 416, 417, 418, 419, 420, 421, 422, 423, 424, 425, 426, 427, 428, 429, 430, 431, 432, 433, 434, 435, 436, 437, 438, 439, 440, 441, 442, 443, 444, 445, 446, 447, 448, 449, 450, 451, 452, 453, 454, 455, 456, 457, 458, 459, 460, 461, 462, 463, 464, 465, 466, 467, 468, 469, 470, 471, 472, 473, 474, 475, 476, 477, 478, 479, 480, 481, 482, 483, 484, 485, 486, 487, 488, 489, 490, 491, 492, 493, 494, 495, 496, 497, 498, 499, 500, 501, 502, 503, 504, 505, 506, 507, 508, 509, 510, 511, 512, 513, 514, 515, 516, 517, 518, 519, 520, 521, 522, 523, 524, 525, 526, 527, 528, 529, 530, 531, 532, 533, 534, 535, 536, 537, 538, 539, 540, 541, 542, 543, 544, 545, 546, 547, 548, 549, 550, 551, 552, 553, 554, 555, 556, 557, 558, 559, 560, 561, 562, 563, 564, 565, 566, 567, 568, 569, 570, 571, 572, 573, 574, 575, 576, 577, 578, 579, 580, 581, 582, 583, 584, 585, 586, 587, 588, 589, 590, 591, 592, 593, 594, 595, 596, 597, 598, 599, 600, 601, 602, 603, 604, 605, 606, 607, 608, 609, 610, 611, 612, 613, 614, 615, 616, 617, 618, 619, 620, 621, 622, 623, 624, 625, 626, 627, 628, 629, 630, 631, 632, 633, 634, 635, 636, 637, 638, 639, 640, 641, 642, 643, 644, 645, 646, 647, 648, 649, 650, 651, 652, 653, 654, 655, 656, 657, 658, 659, 660, 661, 662, 663, 664, 665, 666, 667, 668, 669, 670, 671, 672, 673, 674, 675, 676, 677, 678, 679, 680, 681, 682, 683, 684, 685, 686, 687, 688, 689, 690, 691, 692, 693, 694, 695, 696, 697, 698, 699, 700, 701, 702, 703, 704, 705, 706, 707, 708, 709, 710, 711, 712, 713, 714, 715, 716, 717, 718, 719, 720, 721, 722, 723, 724, 725, 726, 727, 728, 729, 730, 731, 732, 733, 734, 735, 736, 737, 738, 739, 740, 741, 742, 743, 744, 745, 746, 747, 748, 749, 750, 751, 752, 753, 754, 755, 756, 757, 758, 759, 760, 761, 762, 763, 764, 765, 766, 767, 768, 769, 770, 771, 772, 773, 774, 775, 776, 777, 778, 779, 780, 781, 782, 783, 784, 785, 786, 787, 788, 789, 790, 791, 792, 793, 794, 795, 796, 797, 798, 799, 800, 801, 802, 803, 804, 805, 806, 807, 808, 809, 810, 811, 812, 813, 814, 815, 816, 817, 818, 819, 820, 821, 822, 823, 824, 825, 826, 827, 828, 829, 830, 831, 832, 833, 834, 835, 836, 837, 838, 839, 840, 841, 842, 843, 844, 845, 846, 847, 848, 849, 850, 851, 852, 853, 854, 855, 856, 857, 858, 859, 860, 861, 862, 863, 864, 865, 866, 867, 868, 869, 870, 871, 872, 873, 874, 875, 876, 877, 878, 879, 880, 881, 882, 883, 884, 885, 886, 887, 888, 889, 890, 891, 892, 893, 894, 895, 896, 897, 898, 899, 900, 901, 902, 903, 904, 905, 906, 907, 908, 909, 910, 911, 912, 913, 914, 915, 916, 917, 918, 919, 920, 921, 922, 923, 924, 925, 926, 927, 928, 929, 930, 931, 932, 933, 934, 935, 936, 937, 938, 939, 940, 941, 942, 943, 944, 945, 946, 947, 948, 949, 950, 951, 952, 953, 954, 955, 956, 957, 958, 959, 960, 961, 962, 963, 964, 965, 966, 967, 968, 969, 970, 971, 972, 973, 974, 975, 976, 977, 978, 979, 980, 981, 982, 983, 984, 985, 986, 987, 988, 989, 990, 991, 992, 993, 994, 995, 996, 997, 998, 999, 1000, 1001, 1002, 1003, 1004, 1005, 1006, 1007, 1008, 1009, 1010, 1011, 1012, 1013, 1014, 1015, 1016, 1017, 1018, 1019, 1020, 1021, 1022, 1023, 1024, 1025, 1026, 1027, 1028, 1029, 1030, 1031, 1032, 1033, 1034, 1035, 1036, 1037, 1038, 1039, 1040, 1041, 1042, 1043, 1044, 1045, 1046, 1047, 1048, 1049, 1050, 1051, 1052, 1053, 1054, 1055, 1056, 1057, 1058, 1059, 1060, 1061, 1062, 1063, 1064, 1065, 1066, 1067, 1068, 1069, 1070, 1071, 1072, 1073, 1074, 1075, 1076, 1077, 1078, 1079, 1080, 1081, 1082, 1083, 1084, 1085, 1086, 1087, 1088, 1089, 1090, 1091, 1092, 1093, 1094, 1095, 1096, 1097, 1098, 1099, 1100, 1101, 1102, 1103, 1104, 1105, 1106, 1107, 1108, 1109, 1110, 1111, 1112, 1113, 1114, 1115, 1116, 1117, 1118, 1119, 1120, 1121, 1122, 1123, 1124, 1125, 1126, 1127, 1128, 1129, 1130, 1131, 1132, 1133, 1134, 1135, 1136, 1137, 1138, 1139, 1140, 1141, 1142, 1143, 1144, 1145, 1146, 1147, 1148, 1149, 1150, 1151, 1152, 1153, 1154, 1155, 1156, 1157, 1158, 1159, 1160, 1161, 1162, 1163, 1164, 1165, 1166, 1167, 1168, 1169, 1170, 1171, 1172, 1173, 1174, 1175, 1176, 1177, 1178, 1179, 1180, 1181, 1182, 1183, 1184, 1185, 1186, 1187, 1188, 1189, 1190, 1191, 1192, 1193, 1194, 1195, 1196, 1197, 1198, 1199, 1200, 1201, 1202, 1203, 1204, 1205, 1206, 1207, 1208, 1209, 1210, 1211, 1212, 1213, 1214, 1215, 1216, 1217, 1218, 1219, 1220, 1221, 1222, 1223, 1224, 1225, 1226, 1227, 1228, 1229, 1230, 1231, 1232, 1233, 1234, 1235, 1236, 1237, 1238, 1239, 1240, 1241, 1242, 1243, 1244, 1245, 1246, 1247, 1248, 1249, 1250, 1251, 1252, 1253, 1254, 1255, 1256, 1257, 1258, 1259, 1260, 1261, 1262, 1263, 1264, 1265, 1266, 1267, 1268, 1269, 1270, 1271, 1272, 1273, 1274, 1275, 1276, 1277, 1278, 1279, 1280, 1281, 1282, 1283, 1284, 1285, 1286, 1287, 1288, 1289, 1290, 1291, 1292, 1293, 1294, 1295, 1296, 1297, 1298, 1299, 1300, 1301, 1302, 1303, 1304, 1305, 1306, 1307, 1308, 1309, 1310, 1311, 1312, 1313, 1314, 1315, 1316, 1317, 1318, 1319, 1320, 1321, 1322, 1323, 1324, 1325, 1326, 1327, 1328, 1329, 1330, 1331, 1332, 1333, 1334, 1335, 1336, 1337, 1338, 1339, 1340, 1341, 1342, 1343, 1344, 1345, 1346, 1347, 1348, 1349, 1350, 1351, 1352, 1353, 1354, 1355, 1356, 1357, 1358, 1359, 1360],
      "AcquisitionTime": ["133220.845000", "133222.345000", "133223.845000", "133225.345000", "133226.845000", "133228.345000", "133229.845000", "133231.345000", "133232.845000", "133234.345000", "133235.845000", "133237.345000", "133238.845000", "133240.345000", "133241.845000", "133243.345000", "133244.845000", "133246.345000", "133247.845000", "133249.345000", "133250.845000", "133252.345000", "133253.845000", "133255.345000", "133256.845000", "133258.345000", "133259.845000", "133301.345000", "133302.845000", "133304.345000", "133305.845000", "133307.345000", "133308.845000", "133310.345000", "133311.845000", "133313.345000", "133314.845000", "133316.345000", "133317.845000", "133319.345000", "133320.845000", "133322.345000", "133323.845000", "133325.345000", "133326.845000", "133328.345000", "133329.845000", "133331.345000", "133332.845000", "133334.345000", "133335.845000", "133337.345000", "133338.845000", "133340.345000", "133341.845000", "133343.345000", "133344.845000", "133346.345000", "133347.845000", "133349.345000", "133350.845000", "133352.345000", "133353.845000", "133355.345000", "133356.845000", "133358.345000", "133359.845000", "133401.345000", "133402.845000", "133404.345000", "133405.845000", "133407.345000", "133408.845000", "133410.345000", "133411.845000", "133413.345000", "133414.845000", "133416.345000", "133417.845000", "133419.345000", "133420.845000", "133422.345000", "133423.845000", "133425.345000", "133426.845000", "133428.345000", "133429.845000", "133431.345000", "133432.845000", "133434.345000", "133435.845000", "133437.345000", "133438.845000", "133440.345000", "133441.845000", "133443.345000", "133444.845000", "133446.345000", "133447.845000", "133449.345000", "133450.845000", "133452.345000", "133453.845000", "133455.345000", "133456.845000", "133458.345000", "133459.845000", "133501.345000", "133502.845000", "133504.345000", "133505.845000", "133507.345000", "133508.845000", "133510.345000", "133511.845000", "133513.345000", "133514.845000", "133516.345000", "133517.845000", "133519.345000", "133520.845000", "133522.345000", "133523.845000", "133525.345000", "133526.845000", "133528.345000", "133529.845000", "133531.345000", "133532.845000", "133534.345000", "133535.845000", "133537.345000", "133538.845000", "133540.345000", "133541.845000", "133543.345000", "133544.845000", "133546.345000", "133547.845000", "133549.345000", "133550.845000", "133552.345000", "133553.845000", "133555.345000", "133556.845000", "133558.345000", "133559.845000", "133601.345000", "133602.845000", "133604.345000", "133605.845000", "133607.345000", "133608.845000", "133610.345000", "133611.845000", "133613.345000", "133614.845000", "133616.345000", "133617.845000", "133619.345000", "133620.845000", "133622.345000", "133623.845000", "133625.345000", "133626.845000", "133628.345000", "133629.845000", "133631.345000", "133632.845000", "133634.345000", "133635.845000", "133637.345000", "133638.845000", "133640.345000", "133641.845000", "133643.345000", "133644.845000", "133646.345000", "133647.845000", "133649.345000", "133650.845000", "133652.345000", "133653.845000", "133655.345000", "133656.845000", "133658.345000", "133659.845000", "133701.345000", "133702.845000", "133704.345000", "133705.845000", "133707.345000", "133708.845000", "133710.345000", "133711.845000", "133713.345000", "133714.845000", "133716.345000", "133717.845000", "133719.345000", "133720.845000", "133722.345000", "133723.845000", "133725.345000", "133726.845000", "133728.345000", "133729.845000", "133731.345000", "133732.845000", "133734.345000", "133735.845000", "133737.345000", "133738.845000", "133740.345000", "133741.845000", "133743.345000", "133744.845000", "133746.345000", "133747.845000", "133749.345000", "133750.845000", "133752.345000", "133753.845000", "133755.345000", "133756.845000", "133758.345000", "133759.845000", "133801.345000", "133802.845000", "133804.345000", "133805.845000", "133807.345000", "133808.845000", "133810.345000", "133811.845000", "133813.345000", "133814.845000", "133816.345000", "133817.845000", "133819.345000", "133820.845000", "133822.345000", "133823.845000", "133825.345000", "133826.845000", "133828.345000", "133829.845000", "133831.345000", "133832.845000", "133834.345000", "133835.845000", "133837.345000", "133838.845000", "133840.345000", "133841.845000", "133843.345000", "133844.845000", "133846.345000", "133847.845000", "133849.345000", "133850.845000", "133852.345000", "133853.845000", "133855.345000", "133856.845000", "133858.345000", "133859.845000", "133901.345000", "133902.845000", "133904.345000", "133905.845000", "133907.345000", "133908.845000", "133910.345000", "133911.845000", "133913.345000", "133914.845000", "133916.345000", "133917.845000", "133919.345000", "133920.845000", "133922.345000", "133923.845000", "133925.345000", "133926.845000", "133928.345000", "133929.845000", "133931.345000", "133932.845000", "133934.345000", "133935.845000", "133937.345000", "133938.845000", "133940.345000", "133941.845000", "133943.345000", "133944.845000", "133946.345000", "133947.845000", "133949.345000", "133950.845000", "133952.345000", "133953.845000", "133955.345000", "133956.845000", "133958.345000", "133959.845000", "134001.345000", "134002.845000", "134004.345000", "134005.845000", "134007.345000", "134008.845000", "134010.345000", "134011.845000", "134013.345000", "134014.845000", "134016.345000", "134017.845000", "134019.345000", "134020.845000", "134022.345000", "134023.845000", "134025.345000", "134026.845000", "134028.345000", "134029.845000", "134031.345000", "134032.845000", "134034.345000", "134035.845000", "134037.345000", "134038.845000", "134040.345000", "134041.845000", "134043.345000", "134044.845000", "134046.345000", "134047.845000", "134049.345000", "134050.845000", "134052.345000", "134053.845000", "134055.345000", "134056.845000", "134058.345000", "134059.845000", "134101.345000", "134102.845000", "134104.345000", "134105.845000", "134107.345000", "134108.845000", "134110.345000", "134111.845000", "134113.345000", "134114.845000", "134116.345000", "134117.845000", "134119.345000", "134120.845000", "134122.345000", "134123.845000", "134125.345000", "134126.845000", "134128.345000", "134129.845000", "134131.345000", "134132.845000", "134134.345000", "134135.845000", "134137.345000", "134138.845000", "134140.345000", "134141.845000", "134143.345000", "134144.845000", "134146.345000", "134147.845000", "134149.345000", "134150.845000", "134152.345000", "134153.845000", "134155.345000", "134156.845000", "134158.345000", "134159.845000", "134201.345000", "134202.845000", "134204.345000", "134205.845000", "134207.345000", "134208.845000", "134210.345000", "134211.845000", "134213.345000", "134214.845000", "134216.345000", "134217.845000", "134219.345000", "134220.845000", "134222.345000", "134223.845000", "134225.345000", "134226.845000", "134228.345000", "134229.845000", "134231.345000", "134232.845000", "134234.345000", "134235.845000", "134237.345000", "134238.845000", "134240.345000", "134241.845000", "134243.345000", "134244.845000", "134246.345000", "134247.845000", "134249.345000", "134250.845000", "134252.345000", "134253.845000", "134255.345000", "134256.845000", "134258.345000", "134259.845000", "134301.345000", "134302.845000", "134304.345000", "134305.845000", "134307.345000", "134308.845000", "134310.345000", "134311.845000", "134313.345000", "134314.845000", "134316.345000", "134317.845000", "134319.345000", "134320.845000", "134322.345000", "134323.845000", "134325.345000", "134326.845000", "134328.345000", "134329.845000", "134331.345000", "134332.845000", "134334.345000", "134335.845000", "134337.345000", "134338.845000", "134340.345000", "134341.845000", "134343.345000", "134344.845000", "134346.345000", "134347.845000", "134349.345000", "134350.845000", "134352.345000", "134353.845000", "134355.345000", "134356.845000", "134358.345000", "134359.845000", "134401.345000", "134402.845000", "134404.345000", "134405.845000", "134407.345000", "134408.845000", "134410.345000", "134411.845000", "134413.345000", "134414.845000", "134416.345000", "134417.845000", "134419.345000", "134420.845000", "134422.345000", "134423.845000", "134425.345000", "134426.845000", "134428.345000", "134429.845000", "134431.345000", "134432.845000", "134434.345000", "134435.845000", "134437.345000", "134438.845000", "134440.345000", "134441.845000", "134443.345000", "134444.845000", "134446.345000", "134447.845000", "134449.345000", "134450.845000", "134452.345000", "134453.845000", "134455.345000", "134456.845000", "134458.345000", "134459.845000", "134501.345000", "134502.845000", "134504.345000", "134505.845000", "134507.345000", "134508.845000", "134510.345000", "134511.845000", "134513.345000", "134514.845000", "134516.345000", "134517.845000", "134519.345000", "134520.845000", "134522.345000", "134523.845000", "134525.345000", "134526.845000", "134528.345000", "134529.845000", "134531.345000", "134532.845000", "134534.345000", "134535.845000", "134537.345000", "134538.845000", "134540.345000", "134541.845000", "134543.345000", "134544.845000", "134546.345000", "134547.845000", "134549.345000", "134550.845000", "134552.345000", "134553.845000", "134555.345000", "134556.845000", "134558.345000", "134559.845000", "134601.345000", "134602.845000", "134604.345000", "134605.845000", "134607.345000", "134608.845000", "134610.345000", "134611.845000", "134613.345000", "134614.845000", "134616.345000", "134617.845000", "134619.345000", "134620.845000", "134622.345000", "134623.845000", "134625.345000", "134626.845000", "134628.345000", "134629.845000", "134631.345000", "134632.845000", "134634.345000", "134635.845000", "134637.345000", "134638.845000", "134640.345000", "134641.845000", "134643.345000", "134644.845000", "134646.345000", "134647.845000", "134649.345000", "134650.845000", "134652.345000", "134653.845000", "134655.345000", "134656.845000", "134658.345000", "134659.845000", "134701.345000", "134702.845000", "134704.345000", "134705.845000", "134707.345000", "134708.845000", "134710.345000", "134711.845000", "134713.345000", "134714.845000", "134716.345000", "134717.845000", "134719.345000", "134720.845000", "134722.345000", "134723.845000", "134725.345000", "134726.845000", "134728.345000", "134729.845000", "134731.345000", "134732.845000", "134734.345000", "134735.845000", "134737.345000", "134738.845000", "134740.345000", "134741.845000", "134743.345000", "134744.845000", "134746.345000", "134747.845000", "134749.345000", "134750.845000", "134752.345000", "134753.845000", "134755.345000", "134756.845000", "134758.345000", "134759.845000", "134801.345000", "134802.845000", "134804.345000", "134805.845000", "134807.345000", "134808.845000", "134810.345000", "134811.845000", "134813.345000", "134814.845000", "134816.345000", "134817.845000", "134819.345000", "134820.845000", "134822.345000", "134823.845000", "134825.345000", "134826.845000", "134828.345000", "134829.845000", "134831.345000", "134832.845000", "134834.345000", "134835.845000", "134837.345000", "134838.845000", "134840.345000", "134841.845000", "134843.345000", "134844.845000", "134846.345000", "134847.845000", "134849.345000", "134850.845000", "134852.345000", "134853.845000", "134855.345000", "134856.845000", "134858.345000", "134859.845000", "134901.345000", "134902.845000", "134904.345000", "134905.845000", "134907.345000", "134908.845000", "134910.345000", "134911.845000", "134913.345000", "134914.845000", "134916.345000", "134917.845000", "134919.345000", "134920.845000", "134922.345000", "134923.845000", "134925.345000", "134926.845000", "134928.345000", "134929.845000", "134931.345000", "134932.845000", "134934.345000", "134935.845000", "134937.345000", "134938.845000", "134940.345000", "134941.845000", "134943.345000", "134944.845000", "134946.345000", "134947.845000", "134949.345000", "134950.845000", "134952.345000", "134953.845000", "134955.345000", "134956.845000", "134958.345000", "134959.845000", "135001.345000", "135002.845000", "135004.345000", "135005.845000", "135007.345000", "135008.845000", "135010.345000", "135011.845000", "135013.345000", "135014.845000", "135016.345000", "135017.845000", "135019.345000", "135020.845000", "135022.345000", "135023.845000", "135025.345000", "135026.845000", "135028.345000", "135029.845000", "135031.345000", "135032.845000", "135034.345000", "135035.845000", "135037.345000", "135038.845000", "135040.345000", "135041.845000", "135043.345000", "135044.845000", "135046.345000", "135047.845000", "135049.345000", "135050.845000", "135052.345000", "135053.845000", "135055.345000", "135056.845000", "135058.345000", "135059.845000", "135101.345000", "135102.845000", "135104.345000", "135105.845000", "135107.345000", "135108.845000", "135110.345000", "135111.845000", "135113.345000", "135114.845000", "135116.345000", "135117.845000", "135119.345000", "135120.845000", "135122.345000", "135123.845000", "135125.345000", "135126.845000", "135128.345000", "135129.845000", "135131.345000", "135132.845000", "135134.345000", "135135.845000", "135137.345000", "135138.845000", "135140.345000", "135141.845000", "135143.345000", "135144.845000", "135146.345000", "135147.845000", "135149.345000", "135150.845000", "135152.345000", "135153.845000", "135155.345000", "135156.845000", "135158.345000", "135159.845000", "135201.345000", "135202.845000", "135204.345000", "135205.845000", "135207.345000", "135208.845000", "135210.345000", "135211.845000", "135213.345000", "135214.845000", "135216.345000", "135217.845000", "135219.345000", "135220.845000", "135222.345000", "135223.845000", "135225.345000", "135226.845000", "135228.345000", "135229.845000", "135231.345000", "135232.845000", "135234.345000", "135235.845000", "135237.345000", "135238.845000", "135240.345000", "135241.845000", "135243.345000", "135244.845000", "135246.345000", "135247.845000", "135249.345000", "135250.845000", "135252.345000", "135253.845000", "135255.345000", "135256.845000", "135258.345000", "135259.845000", "135301.345000", "135302.845000", "135304.345000", "135305.845000", "135307.345000", "135308.845000", "135310.345000", "135311.845000", "135313.345000", "135314.845000", "135316.345000", "135317.845000", "135319.345000", "135320.845000", "135322.345000", "135323.845000", "135325.345000", "135326.845000", "135328.345000", "135329.845000", "135331.345000", "135332.845000", "135334.345000", "135335.845000", "135337.345000", "135338.845000", "135340.345000", "135341.845000", "135343.345000", "135344.845000", "135346.345000", "135347.845000", "135349.345000", "135350.845000", "135352.345000", "135353.845000", "135355.345000", "135356.845000", "135358.345000", "135359.845000", "135401.345000", "135402.845000", "135404.345000", "135405.845000", "135407.345000", "135408.845000", "135410.345000", "135411.845000", "135413.345000", "135414.845000", "135416.345000", "135417.845000", "135419.345000", "135420.845000", "135422.345000", "135423.845000", "135425.345000", "135426.845000", "135428.345000", "135429.845000", "135431.345000", "135432.845000", "135434.345000", "135435.845000", "135437.345000", "135438.845000", "135440.345000", "135441.845000", "135443.345000", "135444.845000", "135446.345000", "135447.845000", "135449.345000", "135450.845000", "135452.345000", "135453.845000", "135455.345000", "135456.845000", "135458.345000", "135459.845000", "135501.345000", "135502.845000", "135504.345000", "135505.845000", "135507.345000", "135508.845000", "135510.345000", "135511.845000", "135513.345000", "135514.845000", "135516.345000", "135517.845000", "135519.345000", "135520.845000", "135522.345000", "135523.845000", "135525.345000", "135526.845000", "135528.345000", "135529.845000", "135531.345000", "135532.845000", "135534.345000", "135535.845000", "135537.345000", "135538.845000", "135540.345000", "135541.845000", "135543.345000", "135544.845000", "135546.345000", "135547.845000", "135549.345000", "135550.845000", "135552.345000", "135553.845000", "135555.345000", "135556.845000", "135558.345000", "135559.845000", "135601.345000", "135602.845000", "135604.345000", "135605.845000", "135607.345000", "135608.845000", "135610.345000", "135611.845000", "135613.345000", "135614.845000", "135616.345000", "135617.845000", "135619.345000", "135620.845000", "135622.345000", "135623.845000", "135625.345000", "135626.845000", "135628.345000", "135629.845000", "135631.345000", "135632.845000", "135634.345000", "135635.845000", "135637.345000", "135638.845000", "135640.345000", "135641.845000", "135643.345000", "135644.845000", "135646.345000", "135647.845000", "135649.345000", "135650.845000", "135652.345000", "135653.845000", "135655.345000", "135656.845000", "135658.345000", "135659.845000", "135701.345000", "135702.845000", "135704.345000", "135705.845000", "135707.345000", "135708.845000", "135710.345000", "135711.845000", "135713.345000", "135714.845000", "135716.345000", "135717.845000", "135719.345000", "135720.845000", "135722.345000", "135723.845000", "135725.345000", "135726.845000", "135728.345000", "135729.845000", "135731.345000", "135732.845000", "135734.345000", "135735.845000", "135737.345000", "135738.845000", "135740.345000", "135741.845000", "135743.345000", "135744.845000", "135746