{
  "AcquisitionMatrixPE": 106,
  "AcquisitionNumber": 1,
  "AcquisitionTime": "19:13:3.705000",
  "BandwidthPerPixelPhaseEncode": 16.846,
  "BaseResolution": 106,
  "BodyPartExamined": "BRAIN",
  "CoilCombinationMethod": "Sum of Squares",
  "ConsistencyInfo": "N4_VE11C_LATEST_20160120",
  "ConversionSoftware": "dcm2niix",
  "ConversionSoftwareVersion": "v1.0.20220720",
  "DerivedVendorReportedEchoSpacing": 0.000560012,
  "DeviceSerialNumber": "166108",
  "DwellTime": 1.8e-06,
  "EchoTime": 0.0352,
  "EchoTrainLength": 106,
  "EffectiveEchoSpacing": 0.000560012,
  "FlipAngle": 60,
  "HeudiconvVersion": "1.3.0",
  "ImageComments": "Unaliased MB4/PE3/LB",
  "ImageOrientationPatientDICOM": [1, 0, 0, 0, 0.894154, -0.447759],
  "ImageOrientationText": "Tra>Cor(-26.6)",
  "ImageType": [
    "ORIGINAL",
    "PRIMARY",
    "M",
    "MB",
    "ND",
    "MOSAIC"
],
  "ImagingFrequency": 123.244,
  "InPlanePhaseEncodingDirectionDICOM": "COL",
  "InstitutionAddress": "Bedford Way 26,London,London,GB,WC1H 0AP",
  "InstitutionName": "University College",
  "InstitutionalDepartmentName": "Department",
  "MRAcquisitionType": "2D",
  "MagneticFieldStrength": 3,
  "Manufacturer": "Siemens",
  "ManufacturersModelName": "Prisma",
  "MatrixCoilMode": "SENSE",
  "Modality": "MR",
  "MultibandAccelerationFactor": 4,
  "NonlinearGradientCorrection": false,
  "PartialFourier": 1,
  "PatientPosition": "HFS",
  "PercentPhaseFOV": 100,
  "PercentSampling": 100,
  "PhaseEncodingDirection": "j-",
  "PhaseEncodingSteps": 106,
  "PhaseResolution": 1,
  "PixelBandwidth": 2620,
  "ProcedureStepDescription": "Egor^MovieProject2",
  "ProtocolName": "func-bold_task-pRF_run-02",
  "PulseSequenceDetails": "%CustomerSeq%\\cmrr_mbep2d_bold",
  "ReceiveCoilActiveElements": "HEA;HEP",
  "ReceiveCoilName": "Head_32",
  "ReconMatrixPE": 106,
  "RepetitionTime": 1,
  "SAR": 0.0813153,
  "ScanOptions": "FS\\EXT",
  "ScanningSequence": "EP",
  "SequenceName": "epfid2d1_106",
  "SequenceVariant": "SK\\SS",
  "SeriesDescription": "func-bold_task-pRF_run-02",
  "SeriesNumber": 12,
  "ShimSetting": [-1556, 648, 7408, 370, -181, 206, 226, -87],
  "SliceThickness": 2,
  "SliceTiming": [0, 0.4075, 0.8175, 0.245, 0.6525, 0.0825, 0.49, 0.8975, 0.3275, 0.735, 0.1625, 0.5725, 0, 0.4075, 0.8175, 0.245, 0.6525, 0.0825, 0.49, 0.8975, 0.3275, 0.735, 0.1625, 0.5725, 0, 0.4075, 0.8175, 0.245, 0.6525, 0.0825, 0.49, 0.8975, 0.3275, 0.735, 0.1625, 0.5725, 0, 0.4075, 0.8175, 0.245, 0.6525, 0.0825, 0.49, 0.8975, 0.3275, 0.735, 0.1625, 0.5725],
  "SoftwareVersions": "syngo MR E11",
  "SpacingBetweenSlices": 2,
  "StationName": "AWP166108",
  "TaskName": "retinotopy",
  "TotalReadoutTime": 0.0588013,
  "TxRefAmp": 235.739,
  "WipMemBlock": "c291da87-544a-4170-a949-10e9c9f4d4a4||Sequence: R016 ve11c/master r/e634e98; Dec 19 2017 11:00:25 by eja",
  "dcmmeta_affine": [
    [-2.0, 0.0, 0.0, 106.0],
    [0.0, 1.7883085012435913, -0.8955181837081909, -68.86302947998047],
    [0.0, 0.8955181837081909, 1.7883085012435913, -47.2620735168457],
    [0.0, 0.0, 0.0, 1.0]
],
  "dcmmeta_reorient_transform": [
    [0.0, -1.0, 0.0, 105.0],
    [1.0, 0.0, 0.0, 0.0],
    [0.0, 0.0, 1.0, 0.0],
    [0.0, 0.0, 0.0, 1.0]
],
  "dcmmeta_shape": [106, 106, 48, 356],
  "dcmmeta_slice_dim": 2,
  "dcmmeta_version": 0.6,
  "global": {
    "const": {
      "AcquisitionMatrix": [106, 0, 0, 106],
      "AngioFlag": "N",
      "BitsAllocated": 16,
      "BitsStored": 16,
      "BodyPartExamined": "BRAIN",
      "CardiacNumberOfImages": 1,
      "Columns": 742,
      "EchoNumbers": 1,
      "EchoTime": 35.2,
      "EchoTrainLength": 106,
      "FlipAngle": 60.0,
      "HighBit": 15,
      "ImageOrientationPatient": [1.0, 0.0, 0.0, 0.0, 0.89415423930183, -0.4477590829213],
      "ImagePositionPatient": [-742.0, -687.59146053083, 331.54211090796],
      "ImageType": [
        "ORIGINAL",
        "PRIMARY",
        "M",
        "MB",
        "ND",
        "MOSAIC"
],
      "ImagedNucleus": "1H",
      "ImagingFrequency": 123.243646,
      "InPlanePhaseEncodingDirection": "COL",
      "MRAcquisitionType": "2D",
      "MagneticFieldStrength": 3.0,
      "Manufacturer": "SIEMENS",
      "ManufacturerModelName": "Prisma",
      "Modality": "MR",
      "NominalInterval": 0,
      "NumberOfAverages": 1.0,
      "NumberOfPhaseEncodingSteps": 106,
      "PercentPhaseFieldOfView": 100.0,
      "PercentSampling": 100.0,
      "PerformedProcedureStepStartTime": "174449.426000",
      "PhotometricInterpretation": "MONOCHROME2",
      "PixelBandwidth": 2620.0,
      "PixelRepresentation": 0,
      "PixelSpacing": [2.0, 2.0],
      "ProtocolName": "func-bold_task-pRF_run-02",
      "RepetitionTime": 1000.0,
      "Rows": 742,
      "SAR": 0.08131533123907,
      "SamplesPerPixel": 1,
      "ScanOptions": [
        "FS",
        "EXT"
],
      "ScanningSequence": "EP",
      "SequenceName": "epfid2d1_106",
      "SequenceVariant": [
        "SK",
        "SS"
],
      "SeriesDescription": "func-bold_task-pRF_run-02",
      "SeriesNumber": 12,
      "SeriesTime": "191342.870000",
      "SliceLocation": -11.425537816396,
      "SliceThickness": 2.0,
      "SmallestImagePixelValue": 0,
      "SoftwareVersions": "syngo MR E11",
      "SpacingBetweenSlices": 2.0000000101119,
      "SpecificCharacterSet": "ISO_IR 100",
      "StudyID": "1",
      "StudyTime": "174449.359000",
      "TransmitCoilName": "Body",
      "VariableFlipAngleFlag": "N",
      "WindowCenterWidthExplanation": "Algo1",
      "dBdt": 0.0},
    "slices": {}
  },
  "time": {
    "samples": {
      "AcquisitionNumber": [1, 2, 3, 4, 5, 6, 7, 8, 9, 10, 11, 12, 13, 14, 15, 16, 17, 18, 19, 20, 21, 22, 23, 24, 25, 26, 27, 28, 29, 30, 31, 32, 33, 34, 35, 36, 37, 38, 39, 40, 41, 42, 43, 44, 45, 46, 47, 48, 49, 50, 51, 52, 53, 54, 55, 56, 57, 58, 59, 60, 61, 62, 63, 64, 65, 66, 67, 68, 69, 70, 71, 72, 73, 74, 75, 76, 77, 78, 79, 80, 81, 82, 83, 84, 85, 86, 87, 88, 89, 90, 91, 92, 93, 94, 95, 96, 97, 98, 99, 100, 101, 102, 103, 104, 105, 106, 107, 108, 109, 110, 111, 112, 113, 114, 115, 116, 117, 118, 119, 120, 121, 122, 123, 124, 125, 126, 127, 128, 129, 130, 131, 132, 133, 134, 135, 136, 137, 138, 139, 140, 141, 142, 143, 144, 145, 146, 147, 148, 149, 150, 151, 152, 153, 154, 155, 156, 157, 158, 159, 160, 161, 162, 163, 164, 165, 166, 167, 168, 169, 170, 171, 172, 173, 174, 175, 176, 177, 178, 179, 180, 181, 182, 183, 184, 185, 186, 187, 188, 189, 190, 191, 192, 193, 194, 195, 196, 197, 198, 199, 200, 201, 202, 203, 204, 205, 206, 207, 208, 209, 210, 211, 212, 213, 214, 215, 216, 217, 218, 219, 220, 221, 222, 223, 224, 225, 226, 227, 228, 229, 230, 231, 232, 233, 234, 235, 236, 237, 238, 239, 240, 241, 242, 243, 244, 245, 246, 247, 248, 249, 250, 251, 252, 253, 254, 255, 256, 257, 258, 259, 260, 261, 262, 263, 264, 265, 266, 267, 268, 269, 270, 271, 272, 273, 274, 275, 276, 277, 278, 279, 280, 281, 282, 283, 284, 285, 286, 287, 288, 289, 290, 291, 292, 293, 294, 295, 296, 297, 298, 299, 300, 301, 302, 303, 304, 305, 306, 307, 308, 309, 310, 311, 312, 313, 314, 315, 316, 317, 318, 319, 320, 321, 322, 323, 324, 325, 326, 327, 328, 329, 330, 331, 332, 333, 334, 335, 336, 337, 338, 339, 340, 341, 342, 343, 344, 345, 346, 347, 348, 349, 350, 351, 352, 353, 354, 355, 356],
      "AcquisitionTime": ["191303.705000", "191304.705000", "191305.705000", "191306.705000", "191307.705000", "191308.705000", "191309.705000", "191310.705000", "191311.705000", "191312.705000", "191313.705000", "191314.705000", "191315.705000", "191316.705000", "191317.705000", "191318.705000", "191319.705000", "191320.705000", "191321.705000", "191322.705000", "191323.705000", "191324.705000", "191325.705000", "191326.705000", "191327.705000", "191328.705000", "191329.705000", "191330.705000", "191331.705000", "191332.705000", "191333.705000", "191334.705000", "191335.705000", "191336.705000", "191337.705000", "191338.705000", "191339.705000", "191340.705000", "191341.705000", "191342.705000", "191343.705000", "191344.705000", "191345.705000", "191346.705000", "191347.705000", "191348.705000", "191349.705000", "191350.705000", "191351.705000", "191352.705000", "191353.705000", "191354.705000", "191355.705000", "191356.705000", "191357.705000", "191358.705000", "191359.705000", "191400.705000", "191401.705000", "191402.705000", "191403.705000", "191404.705000", "191405.705000", "191406.705000", "191407.705000", "191408.705000", "191409.705000", "191410.705000", "191411.705000", "191412.705000", "191413.705000", "191414.705000", "191415.705000", "191416.705000", "191417.705000", "191418.705000", "191419.705000", "191420.705000", "191421.705000", "191422.705000", "191423.705000", "191424.705000", "191425.705000", "191426.705000", "191427.705000", "191428.705000", "191429.705000", "191430.705000", "191431.705000", "191432.705000", "191433.705000", "191434.705000", "191435.705000", "191436.705000", "191437.705000", "191438.705000", "191439.705000", "191440.705000", "191441.705000", "191442.705000", "191443.705000", "191444.705000", "191445.705000", "191446.705000", "191447.705000", "191448.705000", "191449.705000", "191450.705000", "191451.705000", "191452.705000", "191453.705000", "191454.705000", "191455.705000", "191456.705000", "191457.705000", "191458.705000", "191459.705000", "191500.705000", "191501.705000", "191502.705000", "191503.705000", "191504.705000", "191505.705000", "191506.705000", "191507.705000", "191508.705000", "191509.705000", "191510.705000", "191511.705000", "191512.705000", "191513.705000", "191514.705000", "191515.705000", "191516.705000", "191517.705000", "191518.705000", "191519.705000", "191520.705000", "191521.705000", "191522.705000", "191523.705000", "191524.705000", "191525.705000", "191526.705000", "191527.705000", "191528.705000", "191529.705000", "191530.705000", "191531.705000", "191532.705000", "191533.705000", "191534.705000", "191535.705000", "191536.705000", "191537.705000", "191538.705000", "191539.705000", "191540.705000", "191541.705000", "191542.705000", "191543.705000", "191544.705000", "191545.705000", "191546.705000", "191547.705000", "191548.705000", "191549.705000", "191550.705000", "191551.705000", "191552.705000", "191553.705000", "191554.705000", "191555.705000", "191556.705000", "191557.705000", "191558.705000", "191559.705000", "191600.705000", "191601.705000", "191602.705000", "191603.705000", "191604.705000", "191605.705000", "191606.705000", "191607.705000", "191608.705000", "191609.705000", "191610.705000", "191611.705000", "191612.705000", "191613.705000", "191614.705000", "191615.705000", "191616.705000", "191617.705000", "191618.705000", "191619.705000", "191620.705000", "191621.705000", "191622.705000", "191623.705000", "191624.705000", "191625.705000", "191626.705000", "191627.705000", "191628.705000", "191629.705000", "191630.705000", "191631.705000", "191632.705000", "191633.705000", "191634.705000", "191635.705000", "191636.705000", "191637.705000", "191638.705000", "191639.705000", "191640.705000", "191641.705000", "191642.705000", "191643.705000", "191644.705000", "191645.705000", "191646.705000", "191647.705000", "191648.705000", "191649.705000", "191650.705000", "191651.705000", "191652.705000", "191653.705000", "191654.705000", "191655.705000", "191656.705000", "191657.705000", "191658.705000", "191659.705000", "191700.705000", "191701.705000", "191702.705000", "191703.705000", "191704.705000", "191705.705000", "191706.705000", "191707.705000", "191708.705000", "191709.705000", "191710.705000", "191711.705000", "191712.705000", "191713.705000", "191714.705000", "191715.705000", "191716.705000", "191717.705000", "191718.705000", "191719.705000", "191720.705000", "191721.705000", "191722.705000", "191723.705000", "191724.705000", "191725.705000", "191726.705000", "191727.705000", "191728.705000", "191729.705000", "191730.705000", "191731.705000", "191732.705000", "191733.705000", "191734.705000", "191735.705000", "191736.705000", "191737.705000", "191738.705000", "191739.705000", "191740.705000", "191741.705000", "191742.705000", "191743.705000", "191744.705000", "191745.705000", "191746.705000", "191747.705000", "191748.705000", "191749.705000", "191750.705000", "191751.705000", "191752.705000", "191753.705000", "191754.705000", "191755.705000", "191756.705000", "191757.705000", "191758.705000", "191759.705000", "191800.705000", "191801.705000", "191802.705000", "191803.705000", "191804.705000", "191805.705000", "191806.705000", "191807.705000", "191808.705000", "191809.705000", "191810.705000", "191811.705000", "191812.705000", "191813.705000", "191814.705000", "191815.705000", "191816.705000", "191817.705000", "191818.705000", "191819.705000", "191820.705000", "191821.705000", "191822.705000", "191823.705000", "191824.705000", "191825.705000", "191826.705000", "191827.705000", "191828.705000", "191829.705000", "191830.705000", "191831.705000", "191832.705000", "191833.705000", "191834.705000", "191835.705000", "191836.705000", "191837.705000", "191838.705000", "191839.705000", "191840.705000", "191841.705000", "191842.705000", "191843.705000", "191844.705000", "191845.705000", "191846.705000", "191847.705000", "191848.705000", "191849.705000", "191850.705000", "191851.705000", "191852.705000", "191853.705000", "191854.705000", "191855.705000", "191856.705000", "191857.705000", "191858.705000"],
      "ContentTime": ["191342.873000", "191342.876000", "191342.879000", "191342.881000", "191342.884000", "191342.886000", "191342.889000", "191342.891000", "191342.894000", "191342.896000", "191342.899000", "191342.901000", "191342.904000", "191342.906000", "191342.909000", "191342.911000", "191342.914000", "191342.916000", "191342.919000", "191342.921000", "191342.924000", "191342.935000", "191342.937000", "191342.940000", "191342.942000", "191342.945000", "191342.947000", "191342.950000", "191342.952000", "191342.955000", "191342.957000", "191342.960000", "191342.962000", "191342.965000", "191342.967000", "191342.970000", "191342.972000", "191342.975000", "191402.833000", "191402.835000", "191402.838000", "191402.841000", "191402.843000", "191402.846000", "191402.848000", "191402.851000", "191402.854000", "191402.856000", "191402.865000", "191402.868000", "191402.870000", "191402.873000", "191402.875000", "191402.878000", "191402.881000", "191402.883000", "191402.886000", "191402.889000", "191422.832000", "191422.835000", "191422.837000", "191422.840000", "191422.842000", "191422.845000", "191422.847000", "191422.850000", "191422.852000", "191422.855000", "191422.857000", "191422.860000", "191422.862000", "191422.865000", "191422.867000", "191422.870000", "191422.872000", "191422.875000", "191422.877000", "191422.880000", "191442.833000", "191442.835000", "191442.838000", "191442.840000", "191442.843000", "191442.845000", "191442.848000", "191442.850000", "191442.853000", "191442.855000", "191442.857000", "191442.860000", "191442.862000", "191442.865000", "191442.867000", "191442.870000", "191442.872000", "191442.875000", "191442.877000", "191442.880000", "191502.833000", "191502.835000", "191502.838000", "191502.841000", "191502.843000", "191502.846000", "191502.849000", "191502.851000", "191502.854000", "191502.856000", "191502.859000", "191502.861000", "191502.864000", "191502.867000", "191502.869000", "191502.872000", "191502.874000", "191502.877000", "191502.880000", "191502.882000", "191522.832000", "191522.835000", "191522.838000", "191522.840000", "191522.843000", "191522.845000", "191522.848000", "191522.850000", "191522.853000", "191522.855000", "191522.858000", "191522.860000", "191522.863000", "191522.865000", "191522.868000", "191522.870000", "191522.872000", "191522.875000", "191522.877000", "191522.880000", "191542.832000", "191542.835000", "191542.838000", "191542.840000", "191542.843000", "191542.845000", "191542.848000", "191542.850000", "191542.853000", "191542.855000", "191542.858000", "191542.860000", "191542.863000", "191542.865000", "191542.868000", "191542.870000", "191542.873000", "191542.889000", "191542.892000", "191542.894000", "191602.831000", "191602.834000", "191602.837000", "191602.839000", "191602.842000", "191602.844000", "191602.847000", "191602.849000", "191602.852000", "191602.854000", "191602.857000", "191602.859000", "191602.861000", "191602.864000", "191602.867000", "191602.869000", "191602.872000", "191602.874000", "191602.877000", "191602.879000", "191622.832000", "191622.835000", "191622.838000", "191622.840000", "191622.843000", "191622.845000", "191622.848000", "191622.851000", "191622.853000", "191622.856000", "191622.858000", "191622.861000", "191622.863000", "191622.866000", "191622.868000", "191622.871000", "191622.873000", "191622.876000", "191622.879000", "191622.881000", "191642.833000", "191642.835000", "191642.838000", "191642.840000", "191642.843000", "191642.845000", "191642.848000", "191642.850000", "191642.853000", "191642.855000", "191642.858000", "191642.860000", "191642.873000", "191642.875000", "191642.877000", "191642.880000", "191642.882000", "191642.885000", "191642.887000", "191642.890000", "191702.832000", "191702.835000", "191702.838000", "191702.840000", "191702.843000", "191702.845000", "191702.848000", "191702.850000", "191702.853000", "191702.855000", "191702.858000", "191702.860000", "191702.862000", "191702.865000", "191702.867000", "191702.870000", "191702.872000", "191702.875000", "191702.877000", "191702.880000", "191722.832000", "191722.835000", "191722.838000", "191722.841000", "191722.843000", "191722.846000", "191722.848000", "191722.851000", "191722.853000", "191722.856000", "191722.858000", "191722.860000", "191722.863000", "191722.866000", "191722.868000", "191722.871000", "191722.873000", "191722.876000", "191722.878000", "191722.881000", "191742.833000", "191742.842000", "191742.845000", "191742.847000", "191742.850000", "191742.852000", "191742.861000", "191742.864000", "191742.866000", "191742.869000", "191742.871000", "191742.874000", "191742.876000", "191742.879000", "191742.881000", "191742.884000", "191742.886000", "191742.888000", "191742.891000", "191742.893000", "191802.832000", "191802.835000", "191802.838000", "191802.841000", "191802.843000", "191802.846000", "191802.848000", "191802.851000", "191802.853000", "191802.856000", "191802.859000", "191802.861000", "191802.864000", "191802.867000", "191802.869000", "191802.872000", "191802.874000", "191802.877000", "191802.879000", "191802.882000", "191822.831000", "191822.834000", "191822.837000", "191822.839000", "191822.842000", "191822.844000", "191822.847000", "191822.849000", "191822.852000", "191822.854000", "191822.857000", "191822.859000", "191822.862000", "191822.864000", "191822.867000", "191822.869000", "191822.872000", "191822.874000", "191822.876000", "191822.879000", "191842.833000", "191842.835000", "191842.838000", "191842.840000", "191842.843000", "191842.845000", "191842.848000", "191842.850000", "191842.853000", "191842.855000", "191842.858000", "191842.860000", "191842.863000", "191842.865000", "191842.868000", "191842.870000", "191842.873000", "191842.875000", "191842.878000", "191842.880000", "191900.212000", "191900.215000", "191900.217000", "191900.220000", "191900.223000", "191900.225000", "191900.228000", "191900.231000", "191900.233000", "191900.236000", "191900.238000", "191900.241000", "191900.243000", "191900.246000", "191900.248000", "191900.251000", "191900.253000", "191900.256000"],
      "InstanceCreationTime": ["191342.873000", "191342.876000", "191342.879000", "191342.881000", "191342.884000", "191342.886000", "191342.889000", "191342.891000", "191342.894000", "191342.896000", "191342.899000", "191342.901000", "191342.904000", "191342.906000", "191342.909000", "191342.911000", "191342.914000", "191342.916000", "191342.919000", "191342.921000", "191342.924000", "191342.935000", "191342.937000", "191342.940000", "191342.942000", "191342.945000", "191342.947000", "191342.950000", "191342.952000", "191342.955000", "191342.957000", "191342.960000", "191342.962000", "191342.965000", "191342.967000", "191342.970000", "191342.972000", "191342.975000", "191402.833000", "191402.835000", "191402.838000", "191402.841000", "191402.843000", "191402.846000", "191402.848000", "191402.851000", "191402.854000", "191402.856000", "191402.865000", "191402.868000", "191402.870000", "191402.873000", "191402.875000", "191402.878000", "191402.881000", "191402.883000", "191402.886000", "191402.889000", "191422.832000", "191422.835000", "191422.837000", "191422.840000", "191422.842000", "191422.845000", "191422.847000", "191422.850000", "191422.852000", "191422.855000", "191422.857000", "191422.860000", "191422.862000", "191422.865000", "191422.867000", "191422.870000", "191422.872000", "191422.875000", "191422.877000", "191422.880000", "191442.833000", "191442.835000", "191442.838000", "191442.840000", "191442.843000", "191442.845000", "191442.848000", "191442.850000", "191442.853000", "191442.855000", "191442.857000", "191442.860000", "191442.862000", "191442.865000", "191442.867000", "191442.870000", "191442.872000", "191442.875000", "191442.877000", "191442.880000", "191502.833000", "191502.835000", "191502.838000", "191502.841000", "191502.843000", "191502.846000", "191502.849000", "191502.851000", "191502.854000", "191502.856000", "191502.859000", "191502.861000", "191502.864000", "191502.867000", "191502.869000", "191502.872000", "191502.874000", "191502.877000", "191502.880000", "191502.882000", "191522.832000", "191522.835000", "191522.838000", "191522.840000", "191522.843000", "191522.845000", "191522.848000", "191522.850000", "191522.853000", "191522.855000", "191522.858000", "191522.860000", "191522.863000", "191522.865000", "191522.868000", "191522.870000", "191522.872000", "191522.875000", "191522.877000", "191522.880000", "191542.832000", "191542.835000", "191542.838000", "191542.840000", "191542.843000", "191542.845000", "191542.848000", "191542.850000", "191542.853000", "191542.855000", "191542.858000", "191542.860000", "191542.863000", "191542.865000", "191542.868000", "191542.870000", "191542.873000", "191542.889000", "191542.892000", "191542.894000", "191602.831000", "191602.834000", "191602.837000", "191602.839000", "191602.842000", "191602.844000", "191602.847000", "191602.849000", "191602.852000", "191602.854000", "191602.857000", "191602.859000", "191602.861000", "191602.864000", "191602.867000", "191602.869000", "191602.872000", "191602.874000", "191602.877000", "191602.879000", "191622.832000", "191622.835000", "191622.838000", "191622.840000", "191622.843000", "191622.845000", "191622.848000", "191622.851000", "191622.853000", "191622.856000", "191622.858000", "191622.861000", "191622.863000", "191622.866000", "191622.868000", "191622.871000", "191622.873000", "191622.876000", "191622.879000", "191622.881000", "191642.833000", "191642.835000", "191642.838000", "191642.840000", "191642.843000", "191642.845000", "191642.848000", "191642.850000", "191642.853000", "191642.855000", "191642.858000", "191642.860000", "191642.873000", "191642.875000", "191642.877000", "191642.880000", "191642.882000", "191642.885000", "191642.887000", "191642.890000", "191702.832000", "191702.835000", "191702.838000", "191702.840000", "191702.843000", "191702.845000", "191702.848000", "191702.850000", "191702.853000", "191702.855000", "191702.858000", "191702.860000", "191702.862000", "191702.865000", "191702.867000", "191702.870000", "191702.872000", "191702.875000", "191702.877000", "191702.880000", "191722.832000", "191722.835000", "191722.838000", "191722.841000", "191722.843000", "191722.846000", "191722.848000", "191722.851000", "191722.853000", "191722.856000", "191722.858000", "191722.860000", "191722.863000", "191722.866000", "191722.868000", "191722.871000", "191722.873000", "191722.876000", "191722.878000", "191722.881000", "191742.833000", "191742.842000", "191742.845000", "191742.847000", "191742.850000", "191742.852000", "191742.861000", "191742.864000", "191742.866000", "191742.869000", "191742.871000", "191742.874000", "191742.876000", "191742.879000", "191742.881000", "191742.884000", "191742.886000", "191742.888000", "191742.891000", "191742.893000", "191802.832000", "191802.835000", "191802.838000", "191802.841000", "191802.843000", "191802.846000", "191802.848000", "191802.851000", "191802.853000", "191802.856000", "191802.859000", "191802.861000", "191802.864000", "191802.867000", "191802.869000", "191802.872000", "191802.874000", "191802.877000", "191802.879000", "191802.882000", "191822.831000", "191822.834000", "191822.837000", "191822.839000", "191822.842000", "191822.844000", "191822.847000", "191822.849000", "191822.852000", "191822.854000", "191822.857000", "191822.859000", "191822.862000", "191822.864000", "191822.867000", "191822.869000", "191822.872000", "191822.874000", "191822.876000", "191822.879000", "191842.833000", "191842.835000", "191842.838000", "191842.840000", "191842.843000", "191842.845000", "191842.848000", "191842.850000", "191842.853000", "191842.855000", "191842.858000", "191842.860000", "191842.863000", "191842.865000", "191842.868000", "191842.870000", "191842.873000", "191842.875000", "191842.878000", "191842.880000", "191900.212000", "191900.215000", "191900.217000", "191900.220000", "191900.223000", "191900.225000", "191900.228000", "191900.231000", "191900.233000", "191900.236000", "191900.238000", "191900.241000", "191900.243000", "191900.246000", "191900.248000", "191900.251000", "191900.253000", "191900.256000"],
      "InstanceNumber": [1, 2, 3, 4, 5, 6, 7, 8, 9, 10, 11, 12, 13, 14, 15, 16, 17, 18, 19, 20, 21, 22, 23, 24, 25, 26, 27, 28, 29, 30, 31, 32, 33, 34, 35, 36, 37, 38, 39, 40, 41, 42, 43, 44, 45, 46, 47, 48, 49, 50, 51, 52, 53, 54, 55, 56, 57, 58, 59, 60, 61, 62, 63, 64, 65, 66, 67, 68, 69, 70, 71, 72, 73, 74, 75, 76, 77, 78, 79, 80, 81, 82, 83, 84, 85, 86, 87, 88, 89, 90, 91, 92, 93, 94, 95, 96, 97, 98, 99, 100, 101, 102, 103, 104, 105, 106, 107, 108, 109, 110, 111, 112, 113, 114, 115, 116, 117, 118, 119, 120, 121, 122, 123, 124, 125, 126, 127, 128, 129, 130, 131, 132, 133, 134, 135, 136, 137, 138, 139, 140, 141, 142, 143, 144, 145, 146, 147, 148, 149, 150, 151, 152, 153, 154, 155, 156, 157, 158, 159, 160, 161, 162, 163, 164, 165, 166, 167, 168, 169, 170, 171, 172, 173, 174, 175, 176, 177, 178, 179, 180, 181, 182, 183, 184, 185, 186, 187, 188, 189, 190, 191, 192, 193, 194, 195, 196, 197, 198, 199, 200, 201, 202, 203, 204, 205, 206, 207, 208, 209, 210, 211, 212, 213, 214, 215, 216, 217, 218, 219, 220, 221, 222, 223, 224, 225, 226, 227, 228, 229, 230, 231, 232, 233, 234, 235, 236, 237, 238, 239, 240, 241, 242, 243, 244, 245, 246, 247, 248, 249, 250, 251, 252, 253, 254, 255, 256, 257, 258, 259, 260, 261, 262, 263, 264, 265, 266, 267, 268, 269, 270, 271, 272, 273, 274, 275, 276, 277, 278, 279, 280, 281, 282, 283, 284, 285, 286, 287, 288, 289, 290, 291, 292, 293, 294, 295, 296, 297, 298, 299, 300, 301, 302, 303, 304, 305, 306, 307, 308, 309, 310, 311, 312, 313, 314, 315, 316, 317, 318, 319, 320, 321, 322, 323, 324, 325, 326, 327, 328, 329, 330, 331, 332, 333, 334, 335, 336, 337, 338, 339, 340, 341, 342, 343, 344, 345, 346, 347, 348, 349, 350, 351, 352, 353, 354, 355, 356],
      "LargestImagePixelValue": [14242, 13793, 13691, 13727, 13465, 13341, 13317, 13458, 13341, 13424, 13361, 13418, 13507, 13560, 13406, 13313, 13506, 13467, 13478, 13543, 13467, 13393, 13547, 13348, 13308, 13410, 13382, 13426, 13296, 13408, 13573, 13540, 13262, 13405, 13393, 13407, 13329, 13294, 13330, 13384, 13279, 13392, 13646, 13464, 13390, 13444, 13285, 13435, 13289, 13296, 13612, 13491, 13451, 13441, 13708, 13558, 13379, 13479, 13460, 13393, 13350, 13407, 13525, 13360, 13396, 13432, 13264, 13311, 13469, 13450, 13324, 13354, 13353, 13356, 13295, 13421, 13382, 13297, 13513, 13412, 13423, 13386, 13354, 13400, 13293, 13250, 13379, 13411, 13338, 13239, 13309, 13378, 13351, 13216, 13206, 13469, 13415, 13275, 13292, 13406, 13253, 13291, 13284, 13273, 13245, 13243, 13296, 13462, 13314, 13425, 13513, 13315, 13313, 13497, 13390, 13258, 13478, 13383, 13378, 13262, 13465, 13425, 13420, 13264, 13303, 13518, 13422, 13202, 13317, 13344, 13339, 13257, 13370, 13337, 13332, 13279, 13362, 13496, 13520, 13297, 13432, 13554, 13517, 13520, 13534, 13450, 13359, 13457, 13653, 13584, 13354, 13534, 13570, 13417, 13453, 13474, 13465, 13257, 13390, 13413, 13532, 13317, 13613, 13646, 13638, 13540, 13548, 13420, 13507, 13732, 13594, 13630, 13537, 13607, 13667, 13435, 13593, 13626, 13669, 13428, 13614, 13597, 13501, 13328, 13411, 13551, 13503, 13478, 13477, 13447, 13405, 13344, 13457, 13503, 13506, 13477, 13584, 13591, 13412, 13716, 13673, 13550, 13301, 13535, 13629, 13482, 13354, 13610, 13688, 13436, 13732, 13761, 13626, 13581, 13727, 13490, 13527, 13554, 13594, 13407, 13359, 13720, 13511, 13462, 13752, 13765, 13808, 13650, 13716, 13706, 13455, 13424, 13572, 13670, 13507, 13466, 13714, 13557, 13520, 13665, 13639, 13689, 13473, 13595, 13650, 13612, 13376, 13574, 13749, 13497, 13691, 13748, 13652, 13560, 13814, 13784, 13749, 13663, 13559, 13600, 13605, 13656, 13634, 13598, 13659, 13736, 13782, 13697, 13857, 13702, 13754, 13745, 13751, 13834, 13711, 13696, 13713, 13770, 13734, 13707, 13821, 13823, 13660, 13663, 13694, 13663, 13599, 13622, 13889, 13720, 13507, 13729, 13748, 13427, 13660, 13712, 13787, 13649, 13692, 13585, 13610, 13604, 13758, 13706, 13830, 13529, 13773, 13790, 13694, 13668, 13606, 13723, 13572, 13569, 13643, 13814, 13776, 13509, 13695, 13743, 13765, 13846, 13719, 13657, 13668, 13760, 13761, 13664, 13744, 13927, 13714, 13703, 13633, 13752, 13604, 13593, 13635, 13632, 13646, 13612, 13738, 13789, 13689, 13829, 13810, 13792, 13761, 13656, 13695, 13755, 13696, 13770, 13817, 13689, 13886, 13698],
