{
  "AcquisitionMatrixPE": 106,
  "AcquisitionNumber": 1,
  "AcquisitionTime": "19:34:23.665000",
  "BandwidthPerPixelPhaseEncode": 13.477,
  "BaseResolution": 106,
  "BodyPartExamined": "BRAIN",
  "CoilCombinationMethod": "Sum of Squares",
  "ConsistencyInfo": "N4_VE11C_LATEST_20160120",
  "ConversionSoftware": "dcm2niix",
  "ConversionSoftwareVersion": "v1.0.20220720",
  "DerivedVendorReportedEchoSpacing": 0.000700005,
  "DeviceSerialNumber": "166108",
  "DwellTime": 2.6e-06,
  "EchoTime": 0.03,
  "EchoTrainLength": 80,
  "EffectiveEchoSpacing": 0.000700005,
  "FlipAngle": 62,
  "HeudiconvVersion": "1.3.0",
  "ImageComments": "Unaliased MB4/PE3/LB",
  "ImageOrientationPatientDICOM": [1, 0, 0, 0, 0.920505, -0.390731],
  "ImageOrientationText": "Tra>Cor(-23.0)",
  "ImageType": [
    "ORIGINAL",
    "PRIMARY",
    "M",
    "MB",
    "ND",
    "MOSAIC"
],
  "ImagingFrequency": 123.244,
  "InPlanePhaseEncodingDirectionDICOM": "COL",
  "InstitutionAddress": "Bedford Way 26,London,London,GB,WC1H 0AP",
  "InstitutionName": "University College",
  "InstitutionalDepartmentName": "Department",
  "MRAcquisitionType": "2D",
  "MagneticFieldStrength": 3,
  "Manufacturer": "Siemens",
  "ManufacturersModelName": "Prisma",
  "MatrixCoilMode": "SENSE",
  "Modality": "MR",
  "MultibandAccelerationFactor": 4,
  "NonlinearGradientCorrection": false,
  "PartialFourier": 0.75,
  "PatientPosition": "HFS",
  "PercentPhaseFOV": 100,
  "PercentSampling": 100,
  "PhaseEncodingDirection": "j-",
  "PhaseEncodingSteps": 80,
  "PhaseResolution": 1,
  "PixelBandwidth": 1815,
  "ProcedureStepDescription": "Egor^MovieProject2",
  "ProtocolName": "func-bold_task-tono_run-01",
  "PulseSequenceDetails": "%CustomerSeq%\\cmrr_mbep2d_bold",
  "ReceiveCoilActiveElements": "HEA;HEP",
  "ReceiveCoilName": "Head_32",
  "ReconMatrixPE": 106,
  "RepetitionTime": 1,
  "SAR": 0.0452431,
  "ScanOptions": "PFP\\FS\\EXT",
  "ScanningSequence": "EP",
  "SequenceName": "epfid2d1_106",
  "SequenceVariant": "SK\\SS",
  "SeriesDescription": "func-bold_task-tono_run-01",
  "SeriesNumber": 20,
  "ShimSetting": [-1551, 703, 7418, 438, -163, 377, 223, -91],
  "SliceThickness": 2,
  "SliceTiming": [0, 0.535, 0.09, 0.6225, 0.1775, 0.7125, 0.2675, 0.8025, 0.355, 0.89, 0.445, 0, 0.535, 0.09, 0.6225, 0.1775, 0.7125, 0.2675, 0.8025, 0.355, 0.89, 0.445, 0, 0.535, 0.09, 0.6225, 0.1775, 0.7125, 0.2675, 0.8025, 0.355, 0.89, 0.445, 0, 0.535, 0.09, 0.6225, 0.1775, 0.7125, 0.2675, 0.8025, 0.355, 0.89, 0.445],
  "SoftwareVersions": "syngo MR E11",
  "SpacingBetweenSlices": 2,
  "StationName": "AWP166108",
  "TaskName": "tonotopy",
  "TotalReadoutTime": 0.0735005,
  "TxRefAmp": 235.739,
  "WipMemBlock": "acfd7bfd-8069-46e0-99a9-73991658e4ca||Sequence: R016 ve11c/master r/e634e98; Dec 19 2017 11:00:25 by eja",
  "dcmmeta_affine": [
    [-2.0, 0.0, 0.0, 106.0],
    [0.0, 1.8410097360610962, -0.7814622521400452, -62.95537185668945],
    [0.0, 0.7814622521400452, 1.8410097360610962, -53.98218536376953],
    [0.0, 0.0, 0.0, 1.0]
],
  "dcmmeta_reorient_transform": [
    [0.0, -1.0, 0.0, 105.0],
    [1.0, 0.0, 0.0, 0.0],
    [0.0, 0.0, 1.0, 0.0],
    [0.0, 0.0, 0.0, 1.0]
],
  "dcmmeta_shape": [106, 106, 44, 264],
  "dcmmeta_slice_dim": 2,
  "dcmmeta_version": 0.6,
  "global": {
    "const": {
      "AcquisitionMatrix": [106, 0, 0, 106],
      "AngioFlag": "N",
      "BitsAllocated": 16,
      "BitsStored": 16,
      "BodyPartExamined": "BRAIN",
      "CardiacNumberOfImages": 1,
      "Columns": 742,
      "EchoNumbers": 1,
      "EchoTime": 30.0,
      "EchoTrainLength": 80,
      "FlipAngle": 62.0,
      "HighBit": 15,
      "ImageOrientationPatient": [1.0, 0.0, 0.0, 0.0, 0.92050485079851, -0.3907311347415],
      "ImagePositionPatient": [-742.0, -715.79173323414, 276.57635444099],
      "ImageType": [
        "ORIGINAL",
        "PRIMARY",
        "M",
        "MB",
        "ND",
        "MOSAIC"
],
      "ImagedNucleus": "1H",
      "ImagingFrequency": 123.243649,
      "InPlanePhaseEncodingDirection": "COL",
      "MRAcquisitionType": "2D",
      "MagneticFieldStrength": 3.0,
      "Manufacturer": "SIEMENS",
      "ManufacturerModelName": "Prisma",
      "Modality": "MR",
      "NominalInterval": 0,
      "NumberOfAverages": 1.0,
      "NumberOfPhaseEncodingSteps": 80,
      "PercentPhaseFieldOfView": 100.0,
      "PercentSampling": 100.0,
      "PerformedProcedureStepStartTime": "174449.426000",
      "PhotometricInterpretation": "MONOCHROME2",
      "PixelBandwidth": 1815.0,
      "PixelRepresentation": 0,
      "PixelSpacing": [2.0, 2.0],
      "ProtocolName": "func-bold_task-tono_run-01",
      "RepetitionTime": 1000.0,
      "Rows": 742,
      "SAR": 0.04524311402974,
      "SamplesPerPixel": 1,
      "ScanOptions": [
        "PFP",
        "FS",
        "EXT"
],
      "ScanningSequence": "EP",
      "SequenceName": "epfid2d1_106",
      "SequenceVariant": [
        "SK",
        "SS"
],
      "SeriesDescription": "func-bold_task-tono_run-01",
      "SeriesNumber": 20,
      "SeriesTime": "193459.037000",
      "SliceLocation": -25.092240286091,
      "SliceThickness": 2.0,
      "SmallestImagePixelValue": 0,
      "SoftwareVersions": "syngo MR E11",
      "SpacingBetweenSlices": 1.9999999846685,
      "SpecificCharacterSet": "ISO_IR 100",
      "StudyID": "1",
      "StudyTime": "174449.359000",
      "TransmitCoilName": "Body",
      "VariableFlipAngleFlag": "N",
      "WindowCenterWidthExplanation": "Algo1",
      "dBdt": 0.0},
    "slices": {}
  },
  "time": {
    "samples": {
      "AcquisitionNumber": [1, 2, 3, 4, 5, 6, 7, 8, 9, 10, 11, 12, 13, 14, 15, 16, 17, 18, 19, 20, 21, 22, 23, 24, 25, 26, 27, 28, 29, 30, 31, 32, 33, 34, 35, 36, 37, 38, 39, 40, 41, 42, 43, 44, 45, 46, 47, 48, 49, 50, 51, 52, 53, 54, 55, 56, 57, 58, 59, 60, 61, 62, 63, 64, 65, 66, 67, 68, 69, 70, 71, 72, 73, 74, 75, 76, 77, 78, 79, 80, 81, 82, 83, 84, 85, 86, 87, 88, 89, 90, 91, 92, 93, 94, 95, 96, 97, 98, 99, 100, 101, 102, 103, 104, 105, 106, 107, 108, 109, 110, 111, 112, 113, 114, 115, 116, 117, 118, 119, 120, 121, 122, 123, 124, 125, 126, 127, 128, 129, 130, 131, 132, 133, 134, 135, 136, 137, 138, 139, 140, 141, 142, 143, 144, 145, 146, 147, 148, 149, 150, 151, 152, 153, 154, 155, 156, 157, 158, 159, 160, 161, 162, 163, 164, 165, 166, 167, 168, 169, 170, 171, 172, 173, 174, 175, 176, 177, 178, 179, 180, 181, 182, 183, 184, 185, 186, 187, 188, 189, 190, 191, 192, 193, 194, 195, 196, 197, 198, 199, 200, 201, 202, 203, 204, 205, 206, 207, 208, 209, 210, 211, 212, 213, 214, 215, 216, 217, 218, 219, 220, 221, 222, 223, 224, 225, 226, 227, 228, 229, 230, 231, 232, 233, 234, 235, 236, 237, 238, 239, 240, 241, 242, 243, 244, 245, 246, 247, 248, 249, 250, 251, 252, 253, 254, 255, 256, 257, 258, 259, 260, 261, 262, 263, 264],
      "AcquisitionTime": ["193423.665000", "193424.665000", "193425.665000", "193426.665000", "193427.665000", "193428.665000", "193429.665000", "193430.665000", "193431.665000", "193432.665000", "193433.665000", "193434.665000", "193435.665000", "193436.665000", "193437.665000", "193438.665000", "193439.665000", "193440.665000", "193441.665000", "193442.665000", "193443.665000", "193444.665000", "193445.665000", "193446.665000", "193447.665000", "193448.665000", "193449.665000", "193450.665000", "193451.665000", "193452.665000", "193453.665000", "193454.665000", "193455.665000", "193456.665000", "193457.665000", "193458.665000", "193459.665000", "193500.665000", "193501.665000", "193502.665000", "193503.665000", "193504.665000", "193505.665000", "193506.665000", "193507.665000", "193508.665000", "193509.665000", "193510.665000", "193511.665000", "193512.665000", "193513.665000", "193514.665000", "193515.665000", "193516.665000", "193517.665000", "193518.665000", "193519.665000", "193520.665000", "193521.665000", "193522.665000", "193523.665000", "193524.665000", "193525.665000", "193526.665000", "193527.665000", "193528.665000", "193529.665000", "193530.665000", "193531.665000", "193532.665000", "193533.665000", "193534.665000", "193535.665000", "193536.665000", "193537.665000", "193538.665000", "193539.665000", "193540.665000", "193541.665000", "193542.665000", "193543.665000", "193544.665000", "193545.665000", "193546.665000", "193547.665000", "193548.665000", "193549.665000", "193550.665000", "193551.665000", "193552.665000", "193553.665000", "193554.665000", "193555.665000", "193556.665000", "193557.665000", "193558.665000", "193559.665000", "193600.665000", "193601.665000", "193602.665000", "193603.665000", "193604.665000", "193605.665000", "193606.665000", "193607.665000", "193608.665000", "193609.665000", "193610.665000", "193611.665000", "193612.665000", "193613.665000", "193614.665000", "193615.665000", "193616.665000", "193617.665000", "193618.665000", "193619.665000", "193620.665000", "193621.665000", "193622.665000", "193623.665000", "193624.665000", "193625.665000", "193626.665000", "193627.665000", "193628.665000", "193629.665000", "193630.665000", "193631.665000", "193632.665000", "193633.665000", "193634.665000", "193635.665000", "193636.665000", "193637.665000", "193638.665000", "193639.665000", "193640.665000", "193641.665000", "193642.665000", "193643.665000", "193644.665000", "193645.665000", "193646.665000", "193647.665000", "193648.665000", "193649.665000", "193650.665000", "193651.665000", "193652.665000", "193653.665000", "193654.665000", "193655.665000", "193656.665000", "193657.665000", "193658.665000", "193659.665000", "193700.665000", "193701.665000", "193702.665000", "193703.665000", "193704.665000", "193705.665000", "193706.665000", "193707.665000", "193708.665000", "193709.665000", "193710.665000", "193711.665000", "193712.665000", "193713.665000", "193714.665000", "193715.665000", "193716.665000", "193717.665000", "193718.665000", "193719.665000", "193720.665000", "193721.665000", "193722.665000", "193723.665000", "193724.665000", "193725.665000", "193726.665000", "193727.665000", "193728.665000", "193729.665000", "193730.665000", "193731.665000", "193732.665000", "193733.665000", "193734.665000", "193735.665000", "193736.665000", "193737.665000", "193738.665000", "193739.665000", "193740.665000", "193741.665000", "193742.665000", "193743.665000", "193744.665000", "193745.665000", "193746.665000", "193747.665000", "193748.665000", "193749.665000", "193750.665000", "193751.665000", "193752.665000", "193753.665000", "193754.665000", "193755.665000", "193756.665000", "193757.665000", "193758.665000", "193759.665000", "193800.665000", "193801.665000", "193802.665000", "193803.665000", "193804.665000", "193805.665000", "193806.665000", "193807.665000", "193808.665000", "193809.665000", "193810.665000", "193811.665000", "193812.665000", "193813.665000", "193814.665000", "193815.665000", "193816.665000", "193817.665000", "193818.665000", "193819.665000", "193820.665000", "193821.665000", "193822.665000", "193823.665000", "193824.665000", "193825.665000", "193826.665000", "193827.665000", "193828.665000", "193829.665000", "193830.665000", "193831.665000", "193832.665000", "193833.665000", "193834.665000", "193835.665000", "193836.665000", "193837.665000", "193838.665000", "193839.665000", "193840.665000", "193841.665000", "193842.665000", "193843.665000", "193844.665000", "193845.665000", "193846.665000"],
      "ContentTime": ["193459.040000", "193459.043000", "193459.045000", "193459.050000", "193459.053000", "193459.055000", "193459.058000", "193459.060000", "193459.063000", "193459.065000", "193459.068000", "193459.070000", "193459.073000", "193459.075000", "193459.078000", "193459.080000", "193459.083000", "193459.085000", "193459.088000", "193459.090000", "193459.092000", "193459.095000", "193459.097000", "193459.100000", "193459.102000", "193459.105000", "193459.107000", "193459.110000", "193459.112000", "193459.115000", "193459.117000", "193459.120000", "193459.122000", "193459.125000", "193459.127000", "193518.998000", "193519.001000", "193519.004000", "193519.006000", "193519.009000", "193519.011000", "193519.014000", "193519.016000", "193519.018000", "193519.021000", "193519.023000", "193519.026000", "193519.028000", "193519.031000", "193519.033000", "193519.036000", "193519.038000", "193519.041000", "193519.043000", "193519.046000", "193538.998000", "193539.002000", "193539.005000", "193539.007000", "193539.010000", "193539.012000", "193539.014000", "193539.017000", "193539.019000", "193539.022000", "193539.024000", "193539.027000", "193539.029000", "193539.031000", "193539.034000", "193539.036000", "193539.039000", "193539.041000", "193539.044000", "193539.046000", "193558.997000", "193559.001000", "193559.003000", "193559.006000", "193559.008000", "193559.011000", "193559.014000", "193559.016000", "193559.019000", "193559.021000", "193559.024000", "193559.027000", "193559.029000", "193559.032000", "193559.034000", "193559.037000", "193559.040000", "193559.042000", "193559.045000", "193559.047000", "193618.997000", "193619.001000", "193619.003000", "193619.006000", "193619.008000", "193619.011000", "193619.013000", "193619.016000", "193619.018000", "193619.021000", "193619.023000", "193619.026000", "193619.028000", "193619.031000", "193619.033000", "193619.035000", "193619.038000", "193619.041000", "193619.043000", "193619.051000", "193638.997000", "193639.001000", "193639.003000", "193639.006000", "193639.008000", "193639.011000", "193639.013000", "193639.016000", "193639.018000", "193639.021000", "193639.023000", "193639.025000", "193639.028000", "193639.030000", "193639.033000", "193639.035000", "193639.038000", "193639.040000", "193639.043000", "193639.045000", "193658.997000", "193659.001000", "193659.003000", "193659.006000", "193659.009000", "193659.011000", "193659.014000", "193659.016000", "193659.019000", "193659.021000", "193659.024000", "193659.026000", "193659.029000", "193659.031000", "193659.034000", "193659.036000", "193659.039000", "193659.041000", "193659.043000", "193659.046000", "193718.997000", "193719.001000", "193719.004000", "193719.006000", "193719.008000", "193719.011000", "193719.013000", "193719.041000", "193719.076000", "193719.078000", "193719.081000", "193719.083000", "193719.086000", "193719.088000", "193719.091000", "193719.093000", "193719.096000", "193719.098000", "193719.100000", "193719.103000", "193738.998000", "193739.001000", "193739.003000", "193739.006000", "193739.008000", "193739.011000", "193739.013000", "193739.016000", "193739.018000", "193739.021000", "193739.023000", "193739.026000", "193739.028000", "193739.031000", "193739.033000", "193739.036000", "193739.039000", "193739.041000", "193739.044000", "193739.047000", "193759.000000", "193759.002000", "193759.005000", "193759.007000", "193759.010000", "193759.012000", "193759.015000", "193759.017000", "193759.020000", "193759.022000", "193759.025000", "193759.027000", "193759.030000", "193759.032000", "193759.035000", "193759.037000", "193759.039000", "193759.042000", "193759.045000", "193759.047000", "193818.997000", "193819.001000", "193819.003000", "193819.006000", "193819.008000", "193819.011000", "193819.013000", "193819.016000", "193819.018000", "193819.020000", "193819.023000", "193819.025000", "193819.028000", "193819.030000", "193819.033000", "193819.035000", "193819.038000", "193819.040000", "193819.043000", "193819.045000", "193838.998000", "193839.001000", "193839.004000", "193839.007000", "193839.009000", "193839.012000", "193839.014000", "193839.017000", "193839.019000", "193839.022000", "193839.025000", "193839.027000", "193839.030000", "193839.032000", "193839.035000", "193839.037000", "193839.040000", "193839.042000", "193839.045000", "193839.048000", "193847.877000", "193847.880000", "193847.882000", "193847.885000", "193847.888000", "193847.890000", "193847.893000", "193847.895000", "193847.898000"],
      "InstanceCreationTime": ["193459.040000", "193459.043000", "193459.045000", "193459.050000", "193459.053000", "193459.055000", "193459.058000", "193459.060000", "193459.063000", "193459.065000", "193459.068000", "193459.070000", "193459.073000", "193459.075000", "193459.078000", "193459.080000", "193459.083000", "193459.085000", "193459.088000", "193459.090000", "193459.092000", "193459.095000", "193459.097000", "193459.100000", "193459.102000", "193459.105000", "193459.107000", "193459.110000", "193459.112000", "193459.115000", "193459.117000", "193459.120000", "193459.122000", "193459.125000", "193459.127000", "193518.998000", "193519.001000", "193519.004000", "193519.006000", "193519.009000", "193519.011000", "193519.014000", "193519.016000", "193519.018000", "193519.021000", "193519.023000", "193519.026000", "193519.028000", "193519.031000", "193519.033000", "193519.036000", "193519.038000", "193519.041000", "193519.043000", "193519.046000", "193538.998000", "193539.002000", "193539.005000", "193539.007000", "193539.010000", "193539.012000", "193539.014000", "193539.017000", "193539.019000", "193539.022000", "193539.024000", "193539.027000", "193539.029000", "193539.031000", "193539.034000", "193539.036000", "193539.039000", "193539.041000", "193539.044000", "193539.046000", "193558.997000", "193559.001000", "193559.003000", "193559.006000", "193559.008000", "193559.011000", "193559.014000", "193559.016000", "193559.019000", "193559.021000", "193559.024000", "193559.027000", "193559.029000", "193559.032000", "193559.034000", "193559.037000", "193559.040000", "193559.042000", "193559.045000", "193559.047000", "193618.997000", "193619.001000", "193619.003000", "193619.006000", "193619.008000", "193619.011000", "193619.013000", "193619.016000", "193619.018000", "193619.021000", "193619.023000", "193619.026000", "193619.028000", "193619.031000", "193619.033000", "193619.035000", "193619.038000", "193619.041000", "193619.043000", "193619.051000", "193638.997000", "193639.001000", "193639.003000", "193639.006000", "193639.008000", "193639.011000", "193639.013000", "193639.016000", "193639.018000", "193639.021000", "193639.023000", "193639.025000", "193639.028000", "193639.030000", "193639.033000", "193639.035000", "193639.038000", "193639.040000", "193639.043000", "193639.045000", "193658.997000", "193659.001000", "193659.003000", "193659.006000", "193659.009000", "193659.011000", "193659.014000", "193659.016000", "193659.019000", "193659.021000", "193659.024000", "193659.026000", "193659.029000", "193659.031000", "193659.034000", "193659.036000", "193659.039000", "193659.041000", "193659.043000", "193659.046000", "193718.997000", "193719.001000", "193719.004000", "193719.006000", "193719.008000", "193719.011000", "193719.013000", "193719.041000", "193719.076000", "193719.078000", "193719.081000", "193719.083000", "193719.086000", "193719.088000", "193719.091000", "193719.093000", "193719.096000", "193719.098000", "193719.100000", "193719.103000", "193738.998000", "193739.001000", "193739.003000", "193739.006000", "193739.008000", "193739.011000", "193739.013000", "193739.016000", "193739.018000", "193739.021000", "193739.023000", "193739.026000", "193739.028000", "193739.031000", "193739.033000", "193739.036000", "193739.039000", "193739.041000", "193739.044000", "193739.047000", "193759.000000", "193759.002000", "193759.005000", "193759.007000", "193759.010000", "193759.012000", "193759.015000", "193759.017000", "193759.020000", "193759.022000", "193759.025000", "193759.027000", "193759.030000", "193759.032000", "193759.035000", "193759.037000", "193759.039000", "193759.042000", "193759.045000", "193759.047000", "193818.997000", "193819.001000", "193819.003000", "193819.006000", "193819.008000", "193819.011000", "193819.013000", "193819.016000", "193819.018000", "193819.020000", "193819.023000", "193819.025000", "193819.028000", "193819.030000", "193819.033000", "193819.035000", "193819.038000", "193819.040000", "193819.043000", "193819.045000", "193838.998000", "193839.001000", "193839.004000", "193839.007000", "193839.009000", "193839.012000", "193839.014000", "193839.017000", "193839.019000", "193839.022000", "193839.025000", "193839.027000", "193839.030000", "193839.032000", "193839.035000", "193839.037000", "193839.040000", "193839.042000", "193839.045000", "193839.048000", "193847.877000", "193847.880000", "193847.882000", "193847.885000", "193847.888000", "193847.890000", "193847.893000", "193847.895000", "193847.898000"],
      "InstanceNumber": [1, 2, 3, 4, 5, 6, 7, 8, 9, 10, 11, 12, 13, 14, 15, 16, 17, 18, 19, 20, 21, 22, 23, 24, 25, 26, 27, 28, 29, 30, 31, 32, 33, 34, 35, 36, 37, 38, 39, 40, 41, 42, 43, 44, 45, 46, 47, 48, 49, 50, 51, 52, 53, 54, 55, 56, 57, 58, 59, 60, 61, 62, 63, 64, 65, 66, 67, 68, 69, 70, 71, 72, 73, 74, 75, 76, 77, 78, 79, 80, 81, 82, 83, 84, 85, 86, 87, 88, 89, 90, 91, 92, 93, 94, 95, 96, 97, 98, 99, 100, 101, 102, 103, 104, 105, 106, 107, 108, 109, 110, 111, 112, 113, 114, 115, 116, 117, 118, 119, 120, 121, 122, 123, 124, 125, 126, 127, 128, 129, 130, 131, 132, 133, 134, 135, 136, 137, 138, 139, 140, 141, 142, 143, 144, 145, 146, 147, 148, 149, 150, 151, 152, 153, 154, 155, 156, 157, 158, 159, 160, 161, 162, 163, 164, 165, 166, 167, 168, 169, 170, 171, 172, 173, 174, 175, 176, 177, 178, 179, 180, 181, 182, 183, 184, 185, 186, 187, 188, 189, 190, 191, 192, 193, 194, 195, 196, 197, 198, 199, 200, 201, 202, 203, 204, 205, 206, 207, 208, 209, 210, 211, 212, 213, 214, 215, 216, 217, 218, 219, 220, 221, 222, 223, 224, 225, 226, 227, 228, 229, 230, 231, 232, 233, 234, 235, 236, 237, 238, 239, 240, 241, 242, 243, 244, 245, 246, 247, 248, 249, 250, 251, 252, 253, 254, 255, 256, 257, 258, 259, 260, 261, 262, 263, 264],
      "LargestImagePixelValue": [15428, 15174, 14961, 14624, 14805, 14748, 14802, 14688, 14620, 14711, 14768, 14756, 14680, 14703, 14728, 14765, 14743, 14771, 14826, 14814, 14689, 14606, 14817, 14917, 14716, 14756, 14741, 14801, 14786, 14780, 14728, 14814, 14661, 14799, 14853, 14705, 14664, 14937, 14739, 14698, 14709, 14915, 14698, 14688, 14645, 14771, 14864, 14765, 14766, 14840, 14672, 14719, 14981, 14738, 14718, 14848, 14886, 14842, 14667, 14943, 14846, 14642, 14765, 14937, 14818, 14647, 14908, 14715, 14763, 14703, 14863, 14754, 14957, 14861, 14726, 14881, 14860, 14740, 15048, 14825, 14788, 14816, 14858, 14680, 14716, 15000, 14843, 14726, 14908, 14833, 14761, 14911, 14906, 14755, 14728, 14881, 14697, 14777, 14788, 14786, 14790, 14782, 14767, 14742, 14697, 14678, 14638, 14638, 14670, 14677, 14722, 14759, 14622, 14788, 14796, 14604, 14645, 14660, 14742, 14635, 14688, 14758, 14716, 14636, 14742, 14767, 14810, 14782, 14825, 14727, 14640, 14732, 14827, 14589, 14714, 14637, 14640, 14698, 14864, 14764, 14637, 14815, 14713, 14789, 14795, 14644, 14755, 14780, 14805, 14712, 14773, 14747, 14641, 14681, 14796, 14799, 14695, 14830, 14953, 14729, 14621, 14867, 14739, 14661, 14851, 14814, 14788, 14740, 14715, 14638, 14647, 14697, 14586, 14698, 14762, 14763, 14651, 14677, 14793, 14693, 14549, 14630, 14724, 14647, 14499, 14654, 14800, 14624, 14651, 14697, 14669, 14600, 14614, 14720, 14702, 14708, 14651, 14701, 14684, 14644, 14664, 14786, 14809, 14696, 14781, 14617, 14588, 14728, 14600, 14631, 14667, 14845, 14610, 14688, 14887, 14822, 14755, 14769, 14868, 14564, 14735, 14754, 14669, 14563, 14720, 14656, 14643, 14672, 14657, 14673, 14575, 14614, 14749, 14601, 14502, 14561, 14564, 14529, 14532, 14697, 14644, 14713, 14646, 14655, 14605, 14477, 14641, 14671, 14522, 14572, 14579, 14505, 14490, 14493, 14568, 14618, 14329, 14589, 14528, 14542, 14503, 14660, 14561, 14580],
      "TriggerTime": [8102.5, 9102.5, 10102.5, 11102.5, 12102.5, 13102.5, 14102.5, 15102.5, 16102.5, 17102.5, 18102.5, 19102.5, 20102.5, 21102.5, 22102.5, 23102.5, 24102.5, 25102.5, 26102.5, 27102.5, 28102.5, 29102.5, 30102.5, 31102.5, 32102.5, 33102.5, 34102.5, 35102.5, 36102.5, 37102.5, 38102.5, 39102.5, 40102.5, 41102.5, 42102.5, 43102.5, 44102.5, 45102.5, 46102.5, 47102.5, 48102.5, 49102.5, 50102.5, 51102.5, 52102.5, 53102.5, 54102.5, 55102.5, 56102.5, 57102.5, 58102.5, 59102.5, 60102.5, 61102.5, 62102.5, 63102.5, 64102.5, 65102.5, 66102.5, 67102.5, 68102.5, 69102.5, 70102.5, 71102.5, 72102.5, 73102.5, 74102.5, 75102.5, 76102.5, 77102.5, 78102.5, 79102.5, 80102.5, 81102.5, 82102.5, 83102.5, 84102.5, 85102.5, 86102.5, 87102.5, 88102.5, 89102.5, 90102.5, 91102.5, 92102.5, 93102.5, 94102.5, 95102.5, 96102.5, 97102.5, 98102.5, 99102.5, 100102.5, 101102.5, 102102.5, 103102.5, 104102.5, 105102.5, 106102.5, 107102.5, 108102.5, 109102.5, 110102.5, 111102.5, 112102.5, 113102.5, 114102.5, 115102.5, 116102.5, 117102.5, 118102.5, 119102.5, 120102.5, 121102.5, 122102.5, 123102.5, 124102.5, 125102.5, 126102.5, 127102.5, 128102.5, 129102.5, 130102.5, 131102.5, 132102.5, 133102.5, 134102.5, 135102.5, 136102.5, 137102.5, 138102.5, 139102.5, 140102.5, 141102.5, 142102.5, 143102.5, 144102.5, 145102.5, 146102.5, 147102.5, 148102.5, 149102.5, 150102.5, 151102.5, 152102.5, 153102.5, 154102.5, 155102.5, 156102.5, 157102.5, 158102.5, 159102.5, 160102.5, 161102.5, 162102.5, 163102.5, 164102.5, 165102.5, 166102.5, 167102.5, 168102.5, 169102.5, 170102.5, 171102.5, 172102.5, 173102.5, 174102.5, 175102.5, 176102.5, 177102.5, 178102.5, 179102.5, 180102.5, 181102.5, 182102.5, 183102.5, 184102.5, 185102.5, 186102.5, 187102.5, 188102.5, 189102.5, 190102.5, 191102.5, 192102.5, 193102.5, 194102.5, 195102.5, 196102.5, 197102.5, 198102.5, 199102.5, 200102.5, 201102.5, 202102.5, 203102.5, 204102.5, 205102.5, 206102.5, 207102.5, 208102.5, 209102.5, 210102.5, 211102.5, 212102.5, 213102.5, 214102.5, 215102.5, 216102.5, 217102.5, 218102.5, 219102.5, 220102.5, 221102.5, 222102.5, 223102.5, 224102.5, 225102.5, 226102.5, 227102.5, 228102.5, 229102.5, 230102.5, 231102.5, 232102.5, 233102.5, 234102.5, 235102.5, 236102.5, 237102.5, 238102.5, 239102.5, 240102.5, 241102.5, 242102.5, 243102.5, 244102.5, 245102.5, 246102.5, 247102.5, 248102.5, 249102.5, 250102.5, 251102.5, 252102.5, 253102.5, 254102.5, 255102.5, 256102.5, 257102.5, 258102.5, 259102.5, 260102.5, 261102.5, 262102.5, 263102.5, 264102.5, 265102.5, 266102.5, 267102.5, 268102.5, 269102.5, 270102.5, 271102.5],
      "WindowCenter": [5019.0, 5007.0, 4979.0, 4975.0, 4974.0, 4963.0, 4965.0, 4976.0, 4974.0, 4978.0, 4976.0, 4975.0, 4975.0, 4975.0, 4987.0, 4989.0, 4992.0, 4989.0, 4991.0, 4986.0, 4978.0, 4976.0, 4987.0, 5002.0, 4987.0, 4975.0, 4988.0, 4991.0, 5000.0, 5005.0, 5002.0, 5003.0, 5004.0, 5005.0, 5004.0, 5007.0, 4993.0, 5001.0, 4990.0, 4988.0, 4990.0, 5001.0, 4988.0, 4988.0, 4992.0, 4990.0, 4990.0, 4990.0, 4989.0, 4988.0, 4988.0, 5003.0, 5001.0, 5001.0, 5002.0, 4991.0, 4999.0, 4991.0, 4992.0, 5003.0, 4987.0, 4992.0, 5001.0, 5003.0, 5005.0, 5001.0, 5004.0, 4991.0, 4992.0, 5006.0, 5019.0, 5019.0, 5019.0, 5016.0, 5016.0, 5015.0, 5004.0, 4992.0, 4999.0, 4993.0, 4991.0, 4991.0, 5001.0, 5006.0, 5007.0, 5006.0, 5004.0, 5005.0, 5004.0, 5001.0, 5005.0, 5003.0, 5006.0, 5003.0, 5002.0, 5005.0, 5002.0, 5004.0, 5004.0, 4994.0, 4991.0, 4987.0, 4994.0, 4986.0, 4989.0, 4987.0, 4991.0, 4988.0, 4988.0, 4993.0, 4990.0, 4985.0, 4986.0, 4990.0, 4991.0, 4991.0, 4992.0, 4991.0, 4989.0, 4986.0, 4987.0, 4989.0, 4991.0, 4991.0, 4992.0, 4994.0, 5002.0, 5003.0, 4993.0, 4989.0, 4993.0, 4990.0, 4992.0, 4992.0, 5004.0, 5006.0, 5016.0, 5016.0, 5005.0, 4990.0, 5004.0, 5005.0, 5006.0, 5015.0, 5019.0, 5007.0, 5005.0, 5002.0, 4992.0, 5005.0, 5001.0, 5005.0, 5003.0, 5004.0, 4995.0, 5003.0, 4994.0, 4993.0, 5002.0, 4991.0, 4988.0, 4989.0, 4990.0, 4991.0, 4991.0, 4990.0, 4988.0, 4986.0, 4990.0, 4976.0, 4978.0, 4986.0, 4991.0, 4992.0, 4991.0, 4989.0, 4990.0, 4991.0, 4993.0, 4993.0, 4989.0, 4999.0, 4992.0, 4987.0, 4982.0, 4989.0, 4990.0, 4988.0, 4990.0, 4987.0, 4987.0, 4989.0, 4992.0, 4989.0, 4993.0, 4993.0, 4990.0, 4994.0, 4990.0, 4990.0, 4992.0, 4994.0, 4990.0, 4988.0, 4990.0, 4990.0, 4992.0, 4989.0, 4991.0, 4989.0, 4991.0, 4990.0, 4993.0, 5003.0, 5003.0, 4991.0, 4991.0, 4993.0, 4994.0, 4993.0, 4989.0, 4993.0, 4990.0, 4993.0, 4991.0, 4993.0, 4993.0, 4992.0, 4988.0, 4990.0, 4987.0, 4990.0, 4988.0, 4990.0, 4981.0, 4990.0, 4979.0, 4979.0, 4987.0, 5000.0, 5001.0, 5004.0, 5001.0, 4994.0, 4992.0, 4982.0, 4991.0, 4991.0, 4981.0, 4993.0, 4991.0, 4996.0, 4992.0, 4995.0, 4995.0, 4991.0, 4976.0, 4985.0, 4979.0, 4976.0, 4977.0, 4978.0, 4978.0, 4985.0],
