{
  "AcquisitionMatrixPE": 106,
  "AcquisitionNumber": 1,
  "AcquisitionTime": "19:39:59.620000",
  "BandwidthPerPixelPhaseEncode": 13.477,
  "BaseResolution": 106,
  "BodyPartExamined": "BRAIN",
  "CoilCombinationMethod": "Sum of Squares",
  "ConsistencyInfo": "N4_VE11C_LATEST_20160120",
  "ConversionSoftware": "dcm2niix",
  "ConversionSoftwareVersion": "v1.0.20220720",
  "DerivedVendorReportedEchoSpacing": 0.000700005,
  "DeviceSerialNumber": "166108",
  "DwellTime": 2.6e-06,
  "EchoTime": 0.03,
  "EchoTrainLength": 80,
  "EffectiveEchoSpacing": 0.000700005,
  "FlipAngle": 62,
  "HeudiconvVersion": "1.3.0",
  "ImageComments": "Unaliased MB4/PE3/LB",
  "ImageOrientationPatientDICOM": [1, 0, 0, 0, 0.920505, -0.390731],
  "ImageOrientationText": "Tra>Cor(-23.0)",
  "ImageType": [
    "ORIGINAL",
    "PRIMARY",
    "M",
    "MB",
    "ND",
    "MOSAIC"
],
  "ImagingFrequency": 123.244,
  "InPlanePhaseEncodingDirectionDICOM": "COL",
  "InstitutionAddress": "Bedford Way 26,London,London,GB,WC1H 0AP",
  "InstitutionName": "University College",
  "InstitutionalDepartmentName": "Department",
  "MRAcquisitionType": "2D",
  "MagneticFieldStrength": 3,
  "Manufacturer": "Siemens",
  "ManufacturersModelName": "Prisma",
  "MatrixCoilMode": "SENSE",
  "Modality": "MR",
  "MultibandAccelerationFactor": 4,
  "NonlinearGradientCorrection": false,
  "PartialFourier": 0.75,
  "PatientPosition": "HFS",
  "PercentPhaseFOV": 100,
  "PercentSampling": 100,
  "PhaseEncodingDirection": "j-",
  "PhaseEncodingSteps": 80,
  "PhaseResolution": 1,
  "PixelBandwidth": 1815,
  "ProcedureStepDescription": "Egor^MovieProject2",
  "ProtocolName": "func-bold_task-tono_run-02",
  "PulseSequenceDetails": "%CustomerSeq%\\cmrr_mbep2d_bold",
  "ReceiveCoilActiveElements": "HEA;HEP",
  "ReceiveCoilName": "Head_32",
  "ReconMatrixPE": 106,
  "RepetitionTime": 1,
  "SAR": 0.0452431,
  "ScanOptions": "PFP\\FS\\EXT",
  "ScanningSequence": "EP",
  "SequenceName": "epfid2d1_106",
  "SequenceVariant": "SK\\SS",
  "SeriesDescription": "func-bold_task-tono_run-02",
  "SeriesNumber": 22,
  "ShimSetting": [-1551, 703, 7418, 438, -163, 377, 223, -91],
  "SliceThickness": 2,
  "SliceTiming": [0, 0.535, 0.09, 0.625, 0.18, 0.7125, 0.2675, 0.8025, 0.3575, 0.8925, 0.4475, 0, 0.535, 0.09, 0.625, 0.18, 0.7125, 0.2675, 0.8025, 0.3575, 0.8925, 0.4475, 0, 0.535, 0.09, 0.625, 0.18, 0.7125, 0.2675, 0.8025, 0.3575, 0.8925, 0.4475, 0, 0.535, 0.09, 0.625, 0.18, 0.7125, 0.2675, 0.8025, 0.3575, 0.8925, 0.4475],
  "SoftwareVersions": "syngo MR E11",
  "SpacingBetweenSlices": 2,
  "StationName": "AWP166108",
  "TaskName": "tonotopy",
  "TotalReadoutTime": 0.0735005,
  "TxRefAmp": 235.739,
  "WipMemBlock": "23f86d3e-2c0d-4378-8853-b59fbf5c925a||Sequence: R016 ve11c/master r/e634e98; Dec 19 2017 11:00:25 by eja",
  "dcmmeta_affine": [
    [-2.0, 0.0, 0.0, 106.0],
    [0.0, 1.8410097360610962, -0.7814622521400452, -62.95537185668945],
    [0.0, 0.7814622521400452, 1.8410097360610962, -53.98218536376953],
    [0.0, 0.0, 0.0, 1.0]
],
  "dcmmeta_reorient_transform": [
    [0.0, -1.0, 0.0, 105.0],
    [1.0, 0.0, 0.0, 0.0],
    [0.0, 0.0, 1.0, 0.0],
    [0.0, 0.0, 0.0, 1.0]
],
  "dcmmeta_shape": [106, 106, 44, 264],
  "dcmmeta_slice_dim": 2,
  "dcmmeta_version": 0.6,
  "global": {
    "const": {
      "AcquisitionMatrix": [106, 0, 0, 106],
      "AngioFlag": "N",
      "BitsAllocated": 16,
      "BitsStored": 16,
      "BodyPartExamined": "BRAIN",
      "CardiacNumberOfImages": 1,
      "Columns": 742,
      "EchoNumbers": 1,
      "EchoTime": 30.0,
      "EchoTrainLength": 80,
      "FlipAngle": 62.0,
      "HighBit": 15,
      "ImageOrientationPatient": [1.0, 0.0, 0.0, 0.0, 0.92050485079851, -0.3907311347415],
      "ImagePositionPatient": [-742.0, -715.79173323414, 276.57635444099],
      "ImageType": [
        "ORIGINAL",
        "PRIMARY",
        "M",
        "MB",
        "ND",
        "MOSAIC"
],
      "ImagedNucleus": "1H",
      "ImagingFrequency": 123.243649,
      "InPlanePhaseEncodingDirection": "COL",
      "MRAcquisitionType": "2D",
      "MagneticFieldStrength": 3.0,
      "Manufacturer": "SIEMENS",
      "ManufacturerModelName": "Prisma",
      "Modality": "MR",
      "NominalInterval": 0,
      "NumberOfAverages": 1.0,
      "NumberOfPhaseEncodingSteps": 80,
      "PercentPhaseFieldOfView": 100.0,
      "PercentSampling": 100.0,
      "PerformedProcedureStepStartTime": "174449.426000",
      "PhotometricInterpretation": "MONOCHROME2",
      "PixelBandwidth": 1815.0,
      "PixelRepresentation": 0,
      "PixelSpacing": [2.0, 2.0],
      "ProtocolName": "func-bold_task-tono_run-02",
      "RepetitionTime": 1000.0,
      "Rows": 742,
      "SAR": 0.04524311402974,
      "SamplesPerPixel": 1,
      "ScanOptions": [
        "PFP",
        "FS",
        "EXT"
],
      "ScanningSequence": "EP",
      "SequenceName": "epfid2d1_106",
      "SequenceVariant": [
        "SK",
        "SS"
],
      "SeriesDescription": "func-bold_task-tono_run-02",
      "SeriesNumber": 22,
      "SeriesTime": "194031.373000",
      "SliceLocation": -25.092240286091,
      "SliceThickness": 2.0,
      "SmallestImagePixelValue": 0,
      "SoftwareVersions": "syngo MR E11",
      "SpacingBetweenSlices": 1.9999999846685,
      "SpecificCharacterSet": "ISO_IR 100",
      "StudyID": "1",
      "StudyTime": "174449.359000",
      "TransmitCoilName": "Body",
      "VariableFlipAngleFlag": "N",
      "WindowCenterWidthExplanation": "Algo1",
      "dBdt": 0.0},
    "slices": {}
  },
  "time": {
    "samples": {
      "AcquisitionNumber": [1, 2, 3, 4, 5, 6, 7, 8, 9, 10, 11, 12, 13, 14, 15, 16, 17, 18, 19, 20, 21, 22, 23, 24, 25, 26, 27, 28, 29, 30, 31, 32, 33, 34, 35, 36, 37, 38, 39, 40, 41, 42, 43, 44, 45, 46, 47, 48, 49, 50, 51, 52, 53, 54, 55, 56, 57, 58, 59, 60, 61, 62, 63, 64, 65, 66, 67, 68, 69, 70, 71, 72, 73, 74, 75, 76, 77, 78, 79, 80, 81, 82, 83, 84, 85, 86, 87, 88, 89, 90, 91, 92, 93, 94, 95, 96, 97, 98, 99, 100, 101, 102, 103, 104, 105, 106, 107, 108, 109, 110, 111, 112, 113, 114, 115, 116, 117, 118, 119, 120, 121, 122, 123, 124, 125, 126, 127, 128, 129, 130, 131, 132, 133, 134, 135, 136, 137, 138, 139, 140, 141, 142, 143, 144, 145, 146, 147, 148, 149, 150, 151, 152, 153, 154, 155, 156, 157, 158, 159, 160, 161, 162, 163, 164, 165, 166, 167, 168, 169, 170, 171, 172, 173, 174, 175, 176, 177, 178, 179, 180, 181, 182, 183, 184, 185, 186, 187, 188, 189, 190, 191, 192, 193, 194, 195, 196, 197, 198, 199, 200, 201, 202, 203, 204, 205, 206, 207, 208, 209, 210, 211, 212, 213, 214, 215, 216, 217, 218, 219, 220, 221, 222, 223, 224, 225, 226, 227, 228, 229, 230, 231, 232, 233, 234, 235, 236, 237, 238, 239, 240, 241, 242, 243, 244, 245, 246, 247, 248, 249, 250, 251, 252, 253, 254, 255, 256, 257, 258, 259, 260, 261, 262, 263, 264],
      "AcquisitionTime": ["193959.620000", "194000.620000", "194001.620000", "194002.620000", "194003.620000", "194004.620000", "194005.620000", "194006.620000", "194007.620000", "194008.620000", "194009.620000", "194010.620000", "194011.620000", "194012.620000", "194013.620000", "194014.620000", "194015.620000", "194016.620000", "194017.620000", "194018.620000", "194019.620000", "194020.620000", "194021.620000", "194022.620000", "194023.620000", "194024.620000", "194025.620000", "194026.620000", "194027.620000", "194028.620000", "194029.620000", "194030.620000", "194031.620000", "194032.620000", "194033.620000", "194034.620000", "194035.620000", "194036.620000", "194037.620000", "194038.620000", "194039.620000", "194040.620000", "194041.620000", "194042.620000", "194043.620000", "194044.620000", "194045.620000", "194046.620000", "194047.620000", "194048.620000", "194049.620000", "194050.620000", "194051.620000", "194052.620000", "194053.620000", "194054.620000", "194055.620000", "194056.620000", "194057.620000", "194058.620000", "194059.620000", "194100.620000", "194101.620000", "194102.620000", "194103.620000", "194104.620000", "194105.620000", "194106.620000", "194107.620000", "194108.620000", "194109.620000", "194110.620000", "194111.620000", "194112.620000", "194113.620000", "194114.620000", "194115.620000", "194116.620000", "194117.620000", "194118.620000", "194119.620000", "194120.620000", "194121.620000", "194122.620000", "194123.620000", "194124.620000", "194125.620000", "194126.620000", "194127.620000", "194128.620000", "194129.620000", "194130.620000", "194131.620000", "194132.620000", "194133.620000", "194134.620000", "194135.620000", "194136.620000", "194137.620000", "194138.620000", "194139.620000", "194140.620000", "194141.620000", "194142.620000", "194143.620000", "194144.620000", "194145.620000", "194146.620000", "194147.620000", "194148.620000", "194149.620000", "194150.620000", "194151.620000", "194152.620000", "194153.620000", "194154.620000", "194155.620000", "194156.620000", "194157.620000", "194158.620000", "194159.620000", "194200.620000", "194201.620000", "194202.620000", "194203.620000", "194204.620000", "194205.620000", "194206.620000", "194207.620000", "194208.620000", "194209.620000", "194210.620000", "194211.620000", "194212.620000", "194213.620000", "194214.620000", "194215.620000", "194216.620000", "194217.620000", "194218.620000", "194219.620000", "194220.620000", "194221.620000", "194222.620000", "194223.620000", "194224.620000", "194225.620000", "194226.620000", "194227.620000", "194228.620000", "194229.620000", "194230.620000", "194231.620000", "194232.620000", "194233.620000", "194234.620000", "194235.620000", "194236.620000", "194237.620000", "194238.620000", "194239.620000", "194240.620000", "194241.620000", "194242.620000", "194243.620000", "194244.620000", "194245.620000", "194246.620000", "194247.620000", "194248.620000", "194249.620000", "194250.620000", "194251.620000", "194252.620000", "194253.620000", "194254.620000", "194255.620000", "194256.620000", "194257.620000", "194258.620000", "194259.620000", "194300.620000", "194301.620000", "194302.620000", "194303.620000", "194304.620000", "194305.620000", "194306.620000", "194307.620000", "194308.620000", "194309.620000", "194310.620000", "194311.620000", "194312.620000", "194313.620000", "194314.620000", "194315.620000", "194316.620000", "194317.620000", "194318.620000", "194319.620000", "194320.620000", "194321.620000", "194322.620000", "194323.620000", "194324.620000", "194325.620000", "194326.620000", "194327.620000", "194328.620000", "194329.620000", "194330.620000", "194331.620000", "194332.620000", "194333.620000", "194334.620000", "194335.620000", "194336.620000", "194337.620000", "194338.620000", "194339.620000", "194340.620000", "194341.620000", "194342.620000", "194343.620000", "194344.620000", "194345.620000", "194346.620000", "194347.620000", "194348.620000", "194349.620000", "194350.620000", "194351.620000", "194352.620000", "194353.620000", "194354.620000", "194355.620000", "194356.620000", "194357.620000", "194358.620000", "194359.620000", "194400.620000", "194401.620000", "194402.620000", "194403.620000", "194404.620000", "194405.620000", "194406.620000", "194407.620000", "194408.620000", "194409.620000", "194410.620000", "194411.620000", "194412.620000", "194413.620000", "194414.620000", "194415.620000", "194416.620000", "194417.620000", "194418.620000", "194419.620000", "194420.620000", "194421.620000", "194422.620000"],
      "ContentTime": ["194031.376000", "194031.379000", "194031.381000", "194031.384000", "194031.386000", "194031.392000", "194031.394000", "194031.397000", "194031.399000", "194031.402000", "194031.404000", "194031.407000", "194031.409000", "194031.411000", "194031.414000", "194031.417000", "194031.419000", "194031.422000", "194031.424000", "194031.427000", "194031.436000", "194031.438000", "194031.441000", "194031.443000", "194031.446000", "194031.448000", "194031.451000", "194031.453000", "194031.455000", "194031.458000", "194051.338000", "194051.341000", "194051.343000", "194051.346000", "194051.348000", "194051.351000", "194051.353000", "194051.356000", "194051.358000", "194051.361000", "194051.369000", "194051.371000", "194051.374000", "194051.376000", "194051.379000", "194051.381000", "194051.383000", "194051.386000", "194051.388000", "194051.391000", "194111.338000", "194111.341000", "194111.350000", "194111.352000", "194111.355000", "194111.357000", "194111.360000", "194111.362000", "194111.365000", "194111.367000", "194111.370000", "194111.372000", "194111.374000", "194111.377000", "194111.379000", "194111.382000", "194111.384000", "194111.387000", "194111.389000", "194111.392000", "194131.338000", "194131.341000", "194131.344000", "194131.346000", "194131.349000", "194131.351000", "194131.354000", "194131.356000", "194131.358000", "194131.361000", "194131.363000", "194131.366000", "194131.368000", "194131.371000", "194131.374000", "194131.376000", "194131.379000", "194131.381000", "194131.384000", "194131.386000", "194151.338000", "194151.341000", "194151.343000", "194151.346000", "194151.349000", "194151.351000", "194151.354000", "194151.357000", "194151.359000", "194151.362000", "194151.364000", "194151.367000", "194151.369000", "194151.371000", "194151.374000", "194151.376000", "194151.379000", "194151.381000", "194151.384000", "194151.386000", "194211.338000", "194211.341000", "194211.344000", "194211.346000", "194211.361000", "194211.364000", "194211.366000", "194211.369000", "194211.371000", "194211.374000", "194211.376000", "194211.379000", "194211.381000", "194211.384000", "194211.386000", "194211.389000", "194211.391000", "194211.394000", "194211.396000", "194211.399000", "194231.338000", "194231.341000", "194231.344000", "194231.346000", "194231.349000", "194231.351000", "194231.354000", "194231.356000", "194231.359000", "194231.361000", "194231.364000", "194231.366000", "194231.369000", "194231.371000", "194231.374000", "194231.376000", "194231.379000", "194231.381000", "194231.384000", "194231.386000", "194251.337000", "194251.340000", "194251.343000", "194251.345000", "194251.348000", "194251.350000", "194251.353000", "194251.355000", "194251.358000", "194251.360000", "194251.362000", "194251.365000", "194251.368000", "194251.370000", "194251.373000", "194251.375000", "194251.378000", "194251.380000", "194251.383000", "194251.385000", "194311.339000", "194311.341000", "194311.344000", "194311.346000", "194311.349000", "194311.351000", "194311.354000", "194311.356000", "194311.359000", "194311.361000", "194311.364000", "194311.367000", "194311.369000", "194311.371000", "194311.374000", "194311.376000", "194311.385000", "194311.388000", "194311.390000", "194311.392000", "194331.339000", "194331.341000", "194331.344000", "194331.346000", "194331.349000", "194331.351000", "194331.354000", "194331.357000", "194331.359000", "194331.362000", "194331.364000", "194331.367000", "194331.369000", "194331.372000", "194331.374000", "194331.377000", "194331.379000", "194331.382000", "194331.385000", "194331.387000", "194351.338000", "194351.341000", "194351.344000", "194351.346000", "194351.348000", "194351.351000", "194351.353000", "194351.356000", "194351.358000", "194351.361000", "194351.363000", "194351.366000", "194351.369000", "194351.371000", "194351.374000", "194351.376000", "194351.379000", "194351.381000", "194351.384000", "194351.386000", "194411.339000", "194411.341000", "194411.344000", "194411.346000", "194411.349000", "194411.351000", "194411.354000", "194411.356000", "194411.358000", "194411.361000", "194411.363000", "194411.366000", "194411.368000", "194411.371000", "194411.373000", "194411.376000", "194411.379000", "194411.381000", "194411.383000", "194411.386000", "194424.604000", "194424.607000", "194424.610000", "194424.613000", "194424.617000", "194424.620000", "194424.623000", "194424.627000", "194424.630000", "194424.632000", "194424.635000", "194424.637000", "194424.640000", "194424.643000"],
      "InstanceCreationTime": ["194031.376000", "194031.379000", "194031.381000", "194031.384000", "194031.386000", "194031.392000", "194031.394000", "194031.397000", "194031.399000", "194031.402000", "194031.404000", "194031.407000", "194031.409000", "194031.411000", "194031.414000", "194031.417000", "194031.419000", "194031.422000", "194031.424000", "194031.427000", "194031.436000", "194031.438000", "194031.441000", "194031.443000", "194031.446000", "194031.448000", "194031.451000", "194031.453000", "194031.455000", "194031.458000", "194051.338000", "194051.341000", "194051.343000", "194051.346000", "194051.348000", "194051.351000", "194051.353000", "194051.356000", "194051.358000", "194051.361000", "194051.369000", "194051.371000", "194051.374000", "194051.376000", "194051.379000", "194051.381000", "194051.383000", "194051.386000", "194051.388000", "194051.391000", "194111.338000", "194111.341000", "194111.350000", "194111.352000", "194111.355000", "194111.357000", "194111.360000", "194111.362000", "194111.365000", "194111.367000", "194111.370000", "194111.372000", "194111.374000", "194111.377000", "194111.379000", "194111.382000", "194111.384000", "194111.387000", "194111.389000", "194111.392000", "194131.338000", "194131.341000", "194131.344000", "194131.346000", "194131.349000", "194131.351000", "194131.354000", "194131.356000", "194131.358000", "194131.361000", "194131.363000", "194131.366000", "194131.368000", "194131.371000", "194131.374000", "194131.376000", "194131.379000", "194131.381000", "194131.384000", "194131.386000", "194151.338000", "194151.341000", "194151.343000", "194151.346000", "194151.349000", "194151.351000", "194151.354000", "194151.357000", "194151.359000", "194151.362000", "194151.364000", "194151.367000", "194151.369000", "194151.371000", "194151.374000", "194151.376000", "194151.379000", "194151.381000", "194151.384000", "194151.386000", "194211.338000", "194211.341000", "194211.344000", "194211.346000", "194211.361000", "194211.364000", "194211.366000", "194211.369000", "194211.371000", "194211.374000", "194211.376000", "194211.379000", "194211.381000", "194211.384000", "194211.386000", "194211.389000", "194211.391000", "194211.394000", "194211.396000", "194211.399000", "194231.338000", "194231.341000", "194231.344000", "194231.346000", "194231.349000", "194231.351000", "194231.354000", "194231.356000", "194231.359000", "194231.361000", "194231.364000", "194231.366000", "194231.369000", "194231.371000", "194231.374000", "194231.376000", "194231.379000", "194231.381000", "194231.384000", "194231.386000", "194251.337000", "194251.340000", "194251.343000", "194251.345000", "194251.348000", "194251.350000", "194251.353000", "194251.355000", "194251.358000", "194251.360000", "194251.362000", "194251.365000", "194251.368000", "194251.370000", "194251.373000", "194251.375000", "194251.378000", "194251.380000", "194251.383000", "194251.385000", "194311.339000", "194311.341000", "194311.344000", "194311.346000", "194311.349000", "194311.351000", "194311.354000", "194311.356000", "194311.359000", "194311.361000", "194311.364000", "194311.367000", "194311.369000", "194311.371000", "194311.374000", "194311.376000", "194311.385000", "194311.388000", "194311.390000", "194311.392000", "194331.339000", "194331.341000", "194331.344000", "194331.346000", "194331.349000", "194331.351000", "194331.354000", "194331.357000", "194331.359000", "194331.362000", "194331.364000", "194331.367000", "194331.369000", "194331.372000", "194331.374000", "194331.377000", "194331.379000", "194331.382000", "194331.385000", "194331.387000", "194351.338000", "194351.341000", "194351.344000", "194351.346000", "194351.348000", "194351.351000", "194351.353000", "194351.356000", "194351.358000", "194351.361000", "194351.363000", "194351.366000", "194351.369000", "194351.371000", "194351.374000", "194351.376000", "194351.379000", "194351.381000", "194351.384000", "194351.386000", "194411.339000", "194411.341000", "194411.344000", "194411.346000", "194411.349000", "194411.351000", "194411.354000", "194411.356000", "194411.358000", "194411.361000", "194411.363000", "194411.366000", "194411.368000", "194411.371000", "194411.373000", "194411.376000", "194411.379000", "194411.381000", "194411.383000", "194411.386000", "194424.604000", "194424.607000", "194424.610000", "194424.613000", "194424.617000", "194424.620000", "194424.623000", "194424.627000", "194424.630000", "194424.632000", "194424.635000", "194424.637000", "194424.640000", "194424.643000"],
      "InstanceNumber": [1, 2, 3, 4, 5, 6, 7, 8, 9, 10, 11, 12, 13, 14, 15, 16, 17, 18, 19, 20, 21, 22, 23, 24, 25, 26, 27, 28, 29, 30, 31, 32, 33, 34, 35, 36, 37, 38, 39, 40, 41, 42, 43, 44, 45, 46, 47, 48, 49, 50, 51, 52, 53, 54, 55, 56, 57, 58, 59, 60, 61, 62, 63, 64, 65, 66, 67, 68, 69, 70, 71, 72, 73, 74, 75, 76, 77, 78, 79, 80, 81, 82, 83, 84, 85, 86, 87, 88, 89, 90, 91, 92, 93, 94, 95, 96, 97, 98, 99, 100, 101, 102, 103, 104, 105, 106, 107, 108, 109, 110, 111, 112, 113, 114, 115, 116, 117, 118, 119, 120, 121, 122, 123, 124, 125, 126, 127, 128, 129, 130, 131, 132, 133, 134, 135, 136, 137, 138, 139, 140, 141, 142, 143, 144, 145, 146, 147, 148, 149, 150, 151, 152, 153, 154, 155, 156, 157, 158, 159, 160, 161, 162, 163, 164, 165, 166, 167, 168, 169, 170, 171, 172, 173, 174, 175, 176, 177, 178, 179, 180, 181, 182, 183, 184, 185, 186, 187, 188, 189, 190, 191, 192, 193, 194, 195, 196, 197, 198, 199, 200, 201, 202, 203, 204, 205, 206, 207, 208, 209, 210, 211, 212, 213, 214, 215, 216, 217, 218, 219, 220, 221, 222, 223, 224, 225, 226, 227, 228, 229, 230, 231, 232, 233, 234, 235, 236, 237, 238, 239, 240, 241, 242, 243, 244, 245, 246, 247, 248, 249, 250, 251, 252, 253, 254, 255, 256, 257, 258, 259, 260, 261, 262, 263, 264],
      "LargestImagePixelValue": [14829, 14384, 14316, 14174, 14166, 13923, 14073, 14055, 14038, 13900, 13930, 14032, 14009, 13860, 13943, 13968, 14150, 13947, 13880, 14017, 14220, 14099, 13977, 14217, 14445, 14395, 14419, 14518, 14635, 14527, 14642, 14695, 14723, 14786, 14773, 14797, 15053, 14808, 14775, 14716, 14758, 14833, 14552, 14839, 14792, 14681, 14551, 14617, 14634, 14778, 14723, 14867, 14656, 14622, 14660, 14677, 14765, 14577, 14615, 14853, 14967, 14479, 14700, 14738, 14751, 14503, 14832, 14906, 14971, 14552, 14772, 14907, 14709, 14623, 14771, 14807, 14767, 14729, 14698, 14754, 14720, 14797, 14861, 14898, 14691, 14866, 14873, 14547, 14696, 14884, 14766, 14564, 14643, 14712, 14692, 14580, 14535, 14608, 14751, 14521, 14674, 14887, 14549, 14458, 14556, 14807, 14713, 14738, 14892, 14782, 14708, 14522, 14839, 14748, 14602, 14457, 14743, 14724, 14532, 14632, 14785, 14882, 14714, 14646, 14815, 14702, 14546, 14445, 14594, 14665, 14481, 14639, 14744, 14586, 14442, 14793, 14952, 14629, 14618, 14764, 14621, 14587, 14787, 14747, 14549, 14674, 14637, 14675, 14614, 14833, 14725, 14488, 14504, 14547, 14605, 14483, 14564, 14559, 14609, 14551, 14655, 14947, 14664, 14519, 14800, 14864, 14561, 14468, 14598, 14601, 14579, 14454, 14517, 14594, 14608, 14498, 14675, 14763, 14527, 14648, 14875, 14753, 14476, 14701, 14678, 14658, 14462, 14412, 14589, 14510, 14507, 14469, 14578, 14614, 14473, 14600, 14755, 14581, 14548, 14506, 14587, 14572, 14342, 14492, 14587, 14634, 14531, 14619, 14662, 14565, 14532, 14553, 14573, 14472, 14612, 14714, 14538, 14368, 14570, 14663, 14479, 14414, 14573, 14572, 14460, 14418, 14653, 14624, 14420, 14590, 14662, 14481, 14473, 14663, 14686, 14519, 14502, 14662, 14498, 14487, 14755, 14665, 14763, 14427, 14498, 14728, 14530, 14461, 14666, 14748, 14546, 14557, 14814, 14498, 14550, 14763, 14878, 14520, 14565, 14669, 14667, 14555, 14466, 14798],
      "TriggerTime": [8102.5, 9102.5, 10102.5, 11102.5, 12102.5, 13102.5, 14102.5, 15102.5, 16102.5, 17102.5, 18102.5, 19102.5, 20102.5, 21102.5, 22102.5, 23102.5, 24102.5, 25102.5, 26102.5, 27102.5, 28102.5, 29102.5, 30102.5, 31102.5, 32102.5, 33102.5, 34102.5, 35102.5, 36102.5, 37102.5, 38102.5, 39102.5, 40102.5, 41102.5, 42102.5, 43102.5, 44102.5, 45102.5, 46102.5, 47102.5, 48102.5, 49102.5, 50102.5, 51102.5, 52102.5, 53102.5, 54102.5, 55102.5, 56102.5, 57102.5, 58102.5, 59102.5, 60102.5, 61102.5, 62102.5, 63102.5, 64102.5, 65102.5, 66102.5, 67102.5, 68102.5, 69102.5, 70102.5, 71102.5, 72102.5, 73102.5, 74102.5, 75102.5, 76102.5, 77102.5, 78102.5, 79102.5, 80102.5, 81102.5, 82102.5, 83102.5, 84102.5, 85102.5, 86102.5, 87102.5, 88102.5, 89102.5, 90102.5, 91102.5, 92102.5, 93102.5, 94102.5, 95102.5, 96102.5, 97102.5, 98102.5, 99102.5, 100102.5, 101102.5, 102102.5, 103102.5, 104102.5, 105102.5, 106102.5, 107102.5, 108102.5, 109102.5, 110102.5, 111102.5, 112102.5, 113102.5, 114102.5, 115102.5, 116102.5, 117102.5, 118102.5, 119102.5, 120102.5, 121102.5, 122102.5, 123102.5, 124102.5, 125102.5, 126102.5, 127102.5, 128102.5, 129102.5, 130102.5, 131102.5, 132102.5, 133102.5, 134102.5, 135102.5, 136102.5, 137102.5, 138102.5, 139102.5, 140102.5, 141102.5, 142102.5, 143102.5, 144102.5, 145102.5, 146102.5, 147102.5, 148102.5, 149102.5, 150102.5, 151102.5, 152102.5, 153102.5, 154102.5, 155102.5, 156102.5, 157102.5, 158102.5, 159102.5, 160102.5, 161102.5, 162102.5, 163102.5, 164102.5, 165102.5, 166102.5, 167102.5, 168102.5, 169102.5, 170102.5, 171102.5, 172102.5, 173102.5, 174102.5, 175102.5, 176102.5, 177102.5, 178102.5, 179102.5, 180102.5, 181102.5, 182102.5, 183102.5, 184102.5, 185102.5, 186102.5, 187102.5, 188102.5, 189102.5, 190102.5, 191102.5, 192102.5, 193102.5, 194102.5, 195102.5, 196102.5, 197102.5, 198102.5, 199102.5, 200102.5, 201102.5, 202102.5, 203102.5, 204102.5, 205102.5, 206102.5, 207102.5, 208102.5, 209102.5, 210102.5, 211102.5, 212102.5, 213102.5, 214102.5, 215102.5, 216102.5, 217102.5, 218102.5, 219102.5, 220102.5, 221102.5, 222102.5, 223102.5, 224102.5, 225102.5, 226102.5, 227102.5, 228102.5, 229102.5, 230102.5, 231102.5, 232102.5, 233102.5, 234102.5, 235102.5, 236102.5, 237102.5, 238102.5, 239102.5, 240102.5, 241102.5, 242102.5, 243102.5, 244102.5, 245102.5, 246102.5, 247102.5, 248102.5, 249102.5, 250102.5, 251102.5, 252102.5, 253102.5, 254102.5, 255102.5, 256102.5, 257102.5, 258102.5, 259102.5, 260102.5, 261102.5, 262102.5, 263102.5, 264102.5, 265102.5, 266102.5, 267102.5, 268102.5, 269102.5, 270102.5, 271102.5],
      "WindowCenter": [4998.0, 4977.0, 4976.0, 4967.0, 4964.0, 4977.0, 4980.0, 4981.0, 4979.0, 4967.0, 4961.0, 4965.0, 4977.0, 4965.0, 4975.0, 4965.0, 4963.0, 4951.0, 4950.0, 4951.0, 4948.0, 4950.0, 4949.0, 4947.0, 4961.0, 4957.0, 4957.0, 4957.0, 4968.0, 4958.0, 4971.0, 4973.0, 4972.0, 4971.0, 4982.0, 4972.0, 4980.0, 4972.0, 4970.0, 4972.0, 4986.0, 4985.0, 4975.0, 4982.0, 4986.0, 4985.0, 4974.0, 4986.0, 4988.0, 4988.0, 4986.0, 4985.0, 4987.0, 4985.0, 4977.0, 4974.0, 4974.0, 4983.0, 4988.0, 4985.0, 4999.0, 4976.0, 4986.0, 4972.0, 4976.0, 4971.0, 4973.0, 4981.0, 4984.0, 4973.0, 4983.0, 4983.0, 4972.0, 4972.0, 4972.0, 4987.0, 4983.0, 4985.0, 4988.0, 4984.0, 4983.0, 4984.0, 4985.0, 4986.0, 4987.0, 4985.0, 4972.0, 4975.0, 4984.0, 4994.0, 4999.0, 4996.0, 4987.0, 4985.0, 4984.0, 4971.0, 4973.0, 4985.0, 4984.0, 4974.0, 4986.0, 4994.0, 4986.0, 4972.0, 4974.0, 4987.0, 4988.0, 4982.0, 4984.0, 4985.0, 4983.0, 4975.0, 4984.0, 4986.0, 4984.0, 4972.0, 4971.0, 4971.0, 4970.0, 4970.0, 4981.0, 4983.0, 4984.0, 4983.0, 4973.0, 4973.0, 4972.0, 4973.0, 4984.0, 4984.0, 4972.0, 4976.0, 4971.0, 4972.0, 4961.0, 4970.0, 4981.0, 4970.0, 4970.0, 4972.0, 4971.0, 4972.0, 4983.0, 4972.0, 4970.0, 4971.0, 4970.0, 4973.0, 4972.0, 4969.0, 4971.0, 4972.0, 4972.0, 4977.0, 4985.0, 4973.0, 4985.0, 4977.0, 4985.0, 4977.0, 4986.0, 4985.0, 4987.0, 4974.0, 4973.0, 4981.0, 4975.0, 4972.0, 4983.0, 4982.0, 4986.0, 4975.0, 4974.0, 4983.0, 4984.0, 4972.0, 4981.0, 4982.0, 4974.0, 4986.0, 4983.0, 4984.0, 4978.0, 4983.0, 4985.0, 4983.0, 4975.0, 4973.0, 4974.0, 4972.0, 4972.0, 4974.0, 4983.0, 4973.0, 4975.0, 4971.0, 4972.0, 4976.0, 4972.0, 4975.0, 4975.0, 4981.0, 4973.0, 4971.0, 4971.0, 4973.0, 4964.0, 4972.0, 4974.0, 4975.0, 4958.0, 4958.0, 4970.0, 4975.0, 4983.0, 4984.0, 4974.0, 4975.0, 4986.0, 4973.0, 4972.0, 4972.0, 4981.0, 4982.0, 4978.0, 4976.0, 4987.0, 4986.0, 4976.0, 4984.0, 4983.0, 4975.0, 4976.0, 4984.0, 4975.0, 4971.0, 4970.0, 4981.0, 4973.0, 4976.0, 4984.0, 4986.0, 4990.0, 4972.0, 4975.0, 4983.0, 4976.0, 4984.0, 4986.0, 4987.0, 4973.0, 4972.0, 4984.0, 4973.0, 4974.0, 4983.0, 4987.0, 4990.0, 4987.0, 4986.0, 4986.0, 4972.0, 4959.0, 4969.0],
