{
  "AcquisitionMatrixPE": 106,
  "AcquisitionNumber": 1,
  "AcquisitionTime": "19:20:42.842500",
  "BandwidthPerPixelPhaseEncode": 16.846,
  "BaseResolution": 106,
  "BodyPartExamined": "BRAIN",
  "CoilCombinationMethod": "Sum of Squares",
  "ConsistencyInfo": "N4_VE11C_LATEST_20160120",
  "ConversionSoftware": "dcm2niix",
  "ConversionSoftwareVersion": "v1.0.20220720",
  "DerivedVendorReportedEchoSpacing": 0.000560012,
  "DeviceSerialNumber": "166108",
  "DwellTime": 1.8e-06,
  "EchoTime": 0.0352,
  "EchoTrainLength": 106,
  "EffectiveEchoSpacing": 0.000560012,
  "FlipAngle": 60,
  "HeudiconvVersion": "1.3.0",
  "ImageComments": "Unaliased MB4/PE3/LB",
  "ImageOrientationPatientDICOM": [1, 0, 0, 0, 0.894154, -0.447759],
  "ImageOrientationText": "Tra>Cor(-26.6)",
  "ImageType": [
    "ORIGINAL",
    "PRIMARY",
    "M",
    "MB",
    "ND",
    "MOSAIC"
],
  "ImagingFrequency": 123.244,
  "InPlanePhaseEncodingDirectionDICOM": "COL",
  "InstitutionAddress": "Bedford Way 26,London,London,GB,WC1H 0AP",
  "InstitutionName": "University College",
  "InstitutionalDepartmentName": "Department",
  "MRAcquisitionType": "2D",
  "MagneticFieldStrength": 3,
  "Manufacturer": "Siemens",
  "ManufacturersModelName": "Prisma",
  "MatrixCoilMode": "SENSE",
  "Modality": "MR",
  "MultibandAccelerationFactor": 4,
  "NonlinearGradientCorrection": false,
  "PartialFourier": 1,
  "PatientPosition": "HFS",
  "PercentPhaseFOV": 100,
  "PercentSampling": 100,
  "PhaseEncodingDirection": "j-",
  "PhaseEncodingSteps": 106,
  "PhaseResolution": 1,
  "PixelBandwidth": 2620,
  "ProcedureStepDescription": "Egor^MovieProject2",
  "ProtocolName": "func-bold_task-pRF_run-03",
  "PulseSequenceDetails": "%CustomerSeq%\\cmrr_mbep2d_bold",
  "ReceiveCoilActiveElements": "HEA;HEP",
  "ReceiveCoilName": "Head_32",
  "ReconMatrixPE": 106,
  "RepetitionTime": 1,
  "SAR": 0.0813153,
  "ScanOptions": "FS\\EXT",
  "ScanningSequence": "EP",
  "SequenceName": "epfid2d1_106",
  "SequenceVariant": "SK\\SS",
  "SeriesDescription": "func-bold_task-pRF_run-03",
  "SeriesNumber": 14,
  "ShimSetting": [-1556, 648, 7408, 370, -181, 206, 226, -87],
  "SliceThickness": 2,
  "SliceTiming": [0, 0.4075, 0.8175, 0.245, 0.6525, 0.0825, 0.49, 0.8975, 0.3275, 0.735, 0.1625, 0.5725, 0, 0.4075, 0.8175, 0.245, 0.6525, 0.0825, 0.49, 0.8975, 0.3275, 0.735, 0.1625, 0.5725, 0, 0.4075, 0.8175, 0.245, 0.6525, 0.0825, 0.49, 0.8975, 0.3275, 0.735, 0.1625, 0.5725, 0, 0.4075, 0.8175, 0.245, 0.6525, 0.0825, 0.49, 0.8975, 0.3275, 0.735, 0.1625, 0.5725],
  "SoftwareVersions": "syngo MR E11",
  "SpacingBetweenSlices": 2,
  "StationName": "AWP166108",
  "TaskName": "retinotopy",
  "TotalReadoutTime": 0.0588013,
  "TxRefAmp": 235.739,
  "WipMemBlock": "e552c34f-f520-49e6-9dc5-305395986f35||Sequence: R016 ve11c/master r/e634e98; Dec 19 2017 11:00:25 by eja",
  "dcmmeta_affine": [
    [-2.0, 0.0, 0.0, 106.0],
    [0.0, 1.7883085012435913, -0.8955181837081909, -68.86302947998047],
    [0.0, 0.8955181837081909, 1.7883085012435913, -47.2620735168457],
    [0.0, 0.0, 0.0, 1.0]
],
  "dcmmeta_reorient_transform": [
    [0.0, -1.0, 0.0, 105.0],
    [1.0, 0.0, 0.0, 0.0],
    [0.0, 0.0, 1.0, 0.0],
    [0.0, 0.0, 0.0, 1.0]
],
  "dcmmeta_shape": [106, 106, 48, 356],
  "dcmmeta_slice_dim": 2,
  "dcmmeta_version": 0.6,
  "global": {
    "const": {
      "AcquisitionMatrix": [106, 0, 0, 106],
      "AngioFlag": "N",
      "BitsAllocated": 16,
      "BitsStored": 16,
      "BodyPartExamined": "BRAIN",
      "CardiacNumberOfImages": 1,
      "Columns": 742,
      "EchoNumbers": 1,
      "EchoTime": 35.2,
      "EchoTrainLength": 106,
      "FlipAngle": 60.0,
      "HighBit": 15,
      "ImageOrientationPatient": [1.0, 0.0, 0.0, 0.0, 0.89415423930183, -0.4477590829213],
      "ImagePositionPatient": [-742.0, -687.59146053083, 331.54211090796],
      "ImageType": [
        "ORIGINAL",
        "PRIMARY",
        "M",
        "MB",
        "ND",
        "MOSAIC"
],
      "ImagedNucleus": "1H",
      "ImagingFrequency": 123.243652,
      "InPlanePhaseEncodingDirection": "COL",
      "MRAcquisitionType": "2D",
      "MagneticFieldStrength": 3.0,
      "Manufacturer": "SIEMENS",
      "ManufacturerModelName": "Prisma",
      "Modality": "MR",
      "NominalInterval": 0,
      "NumberOfAverages": 1.0,
      "NumberOfPhaseEncodingSteps": 106,
      "PercentPhaseFieldOfView": 100.0,
      "PercentSampling": 100.0,
      "PerformedProcedureStepStartTime": "174449.426000",
      "PhotometricInterpretation": "MONOCHROME2",
      "PixelBandwidth": 2620.0,
      "PixelRepresentation": 0,
      "PixelSpacing": [2.0, 2.0],
      "ProtocolName": "func-bold_task-pRF_run-03",
      "RepetitionTime": 1000.0,
      "Rows": 742,
      "SAR": 0.08131533123907,
      "SamplesPerPixel": 1,
      "ScanOptions": [
        "FS",
        "EXT"
],
      "ScanningSequence": "EP",
      "SequenceName": "epfid2d1_106",
      "SequenceVariant": [
        "SK",
        "SS"
],
      "SeriesDescription": "func-bold_task-pRF_run-03",
      "SeriesNumber": 14,
      "SeriesTime": "192119.030000",
      "SliceLocation": -11.425537816396,
      "SliceThickness": 2.0,
      "SmallestImagePixelValue": 0,
      "SoftwareVersions": "syngo MR E11",
      "SpacingBetweenSlices": 2.0000000101119,
      "SpecificCharacterSet": "ISO_IR 100",
      "StudyID": "1",
      "StudyTime": "174449.359000",
      "TransmitCoilName": "Body",
      "VariableFlipAngleFlag": "N",
      "WindowCenterWidthExplanation": "Algo1",
      "dBdt": 0.0},
    "slices": {}
  },
  "time": {
    "samples": {
      "AcquisitionNumber": [1, 2, 3, 4, 5, 6, 7, 8, 9, 10, 11, 12, 13, 14, 15, 16, 17, 18, 19, 20, 21, 22, 23, 24, 25, 26, 27, 28, 29, 30, 31, 32, 33, 34, 35, 36, 37, 38, 39, 40, 41, 42, 43, 44, 45, 46, 47, 48, 49, 50, 51, 52, 53, 54, 55, 56, 57, 58, 59, 60, 61, 62, 63, 64, 65, 66, 67, 68, 69, 70, 71, 72, 73, 74, 75, 76, 77, 78, 79, 80, 81, 82, 83, 84, 85, 86, 87, 88, 89, 90, 91, 92, 93, 94, 95, 96, 97, 98, 99, 100, 101, 102, 103, 104, 105, 106, 107, 108, 109, 110, 111, 112, 113, 114, 115, 116, 117, 118, 119, 120, 121, 122, 123, 124, 125, 126, 127, 128, 129, 130, 131, 132, 133, 134, 135, 136, 137, 138, 139, 140, 141, 142, 143, 144, 145, 146, 147, 148, 149, 150, 151, 152, 153, 154, 155, 156, 157, 158, 159, 160, 161, 162, 163, 164, 165, 166, 167, 168, 169, 170, 171, 172, 173, 174, 175, 176, 177, 178, 179, 180, 181, 182, 183, 184, 185, 186, 187, 188, 189, 190, 191, 192, 193, 194, 195, 196, 197, 198, 199, 200, 201, 202, 203, 204, 205, 206, 207, 208, 209, 210, 211, 212, 213, 214, 215, 216, 217, 218, 219, 220, 221, 222, 223, 224, 225, 226, 227, 228, 229, 230, 231, 232, 233, 234, 235, 236, 237, 238, 239, 240, 241, 242, 243, 244, 245, 246, 247, 248, 249, 250, 251, 252, 253, 254, 255, 256, 257, 258, 259, 260, 261, 262, 263, 264, 265, 266, 267, 268, 269, 270, 271, 272, 273, 274, 275, 276, 277, 278, 279, 280, 281, 282, 283, 284, 285, 286, 287, 288, 289, 290, 291, 292, 293, 294, 295, 296, 297, 298, 299, 300, 301, 302, 303, 304, 305, 306, 307, 308, 309, 310, 311, 312, 313, 314, 315, 316, 317, 318, 319, 320, 321, 322, 323, 324, 325, 326, 327, 328, 329, 330, 331, 332, 333, 334, 335, 336, 337, 338, 339, 340, 341, 342, 343, 344, 345, 346, 347, 348, 349, 350, 351, 352, 353, 354, 355, 356],
      "AcquisitionTime": ["192042.842500", "192043.842500", "192044.842500", "192045.842500", "192046.842500", "192047.842500", "192048.842500", "192049.842500", "192050.842500", "192051.842500", "192052.842500", "192053.842500", "192054.842500", "192055.842500", "192056.842500", "192057.842500", "192058.842500", "192059.842500", "192100.842500", "192101.842500", "192102.842500", "192103.842500", "192104.842500", "192105.842500", "192106.842500", "192107.842500", "192108.842500", "192109.842500", "192110.842500", "192111.842500", "192112.842500", "192113.842500", "192114.842500", "192115.842500", "192116.842500", "192117.842500", "192118.842500", "192119.842500", "192120.842500", "192121.842500", "192122.842500", "192123.842500", "192124.842500", "192125.842500", "192126.842500", "192127.842500", "192128.842500", "192129.842500", "192130.842500", "192131.842500", "192132.842500", "192133.842500", "192134.842500", "192135.842500", "192136.842500", "192137.842500", "192138.842500", "192139.842500", "192140.842500", "192141.842500", "192142.842500", "192143.842500", "192144.842500", "192145.842500", "192146.842500", "192147.842500", "192148.842500", "192149.842500", "192150.842500", "192151.842500", "192152.842500", "192153.842500", "192154.842500", "192155.842500", "192156.842500", "192157.842500", "192158.842500", "192159.842500", "192200.842500", "192201.842500", "192202.842500", "192203.842500", "192204.842500", "192205.842500", "192206.842500", "192207.842500", "192208.842500", "192209.842500", "192210.842500", "192211.842500", "192212.842500", "192213.842500", "192214.842500", "192215.842500", "192216.842500", "192217.842500", "192218.842500", "192219.842500", "192220.842500", "192221.842500", "192222.842500", "192223.842500", "192224.842500", "192225.842500", "192226.842500", "192227.842500", "192228.842500", "192229.842500", "192230.842500", "192231.842500", "192232.842500", "192233.842500", "192234.842500", "192235.842500", "192236.842500", "192237.842500", "192238.842500", "192239.842500", "192240.842500", "192241.842500", "192242.842500", "192243.842500", "192244.842500", "192245.842500", "192246.842500", "192247.842500", "192248.842500", "192249.842500", "192250.842500", "192251.842500", "192252.842500", "192253.842500", "192254.842500", "192255.842500", "192256.842500", "192257.842500", "192258.842500", "192259.842500", "192300.842500", "192301.842500", "192302.842500", "192303.842500", "192304.842500", "192305.842500", "192306.842500", "192307.842500", "192308.842500", "192309.842500", "192310.842500", "192311.842500", "192312.842500", "192313.842500", "192314.842500", "192315.842500", "192316.842500", "192317.842500", "192318.842500", "192319.842500", "192320.842500", "192321.842500", "192322.842500", "192323.842500", "192324.842500", "192325.842500", "192326.842500", "192327.842500", "192328.842500", "192329.842500", "192330.842500", "192331.842500", "192332.842500", "192333.842500", "192334.842500", "192335.842500", "192336.842500", "192337.842500", "192338.842500", "192339.842500", "192340.842500", "192341.842500", "192342.842500", "192343.842500", "192344.842500", "192345.842500", "192346.842500", "192347.842500", "192348.842500", "192349.842500", "192350.842500", "192351.842500", "192352.842500", "192353.842500", "192354.842500", "192355.842500", "192356.842500", "192357.842500", "192358.842500", "192359.842500", "192400.842500", "192401.842500", "192402.842500", "192403.842500", "192404.842500", "192405.842500", "192406.842500", "192407.842500", "192408.842500", "192409.842500", "192410.842500", "192411.842500", "192412.842500", "192413.842500", "192414.842500", "192415.842500", "192416.842500", "192417.842500", "192418.842500", "192419.842500", "192420.842500", "192421.842500", "192422.842500", "192423.842500", "192424.842500", "192425.842500", "192426.842500", "192427.842500", "192428.842500", "192429.842500", "192430.842500", "192431.842500", "192432.842500", "192433.842500", "192434.842500", "192435.842500", "192436.842500", "192437.842500", "192438.842500", "192439.842500", "192440.842500", "192441.842500", "192442.842500", "192443.842500", "192444.842500", "192445.842500", "192446.842500", "192447.842500", "192448.842500", "192449.842500", "192450.842500", "192451.842500", "192452.842500", "192453.842500", "192454.842500", "192455.842500", "192456.842500", "192457.842500", "192458.842500", "192459.842500", "192500.842500", "192501.842500", "192502.842500", "192503.842500", "192504.842500", "192505.842500", "192506.842500", "192507.842500", "192508.842500", "192509.842500", "192510.842500", "192511.842500", "192512.842500", "192513.842500", "192514.842500", "192515.842500", "192516.842500", "192517.842500", "192518.842500", "192519.842500", "192520.842500", "192521.842500", "192522.842500", "192523.842500", "192524.842500", "192525.842500", "192526.842500", "192527.842500", "192528.842500", "192529.842500", "192530.842500", "192531.842500", "192532.842500", "192533.842500", "192534.842500", "192535.842500", "192536.842500", "192537.842500", "192538.842500", "192539.842500", "192540.842500", "192541.842500", "192542.842500", "192543.842500", "192544.842500", "192545.842500", "192546.842500", "192547.842500", "192548.842500", "192549.842500", "192550.842500", "192551.842500", "192552.842500", "192553.842500", "192554.842500", "192555.842500", "192556.842500", "192557.842500", "192558.842500", "192559.842500", "192600.842500", "192601.842500", "192602.842500", "192603.842500", "192604.842500", "192605.842500", "192606.842500", "192607.842500", "192608.842500", "192609.842500", "192610.842500", "192611.842500", "192612.842500", "192613.842500", "192614.842500", "192615.842500", "192616.842500", "192617.842500", "192618.842500", "192619.842500", "192620.842500", "192621.842500", "192622.842500", "192623.842500", "192624.842500", "192625.842500", "192626.842500", "192627.842500", "192628.842500", "192629.842500", "192630.842500", "192631.842500", "192632.842500", "192633.842500", "192634.842500", "192635.842500", "192636.842500", "192637.842500"],
      "ContentTime": ["192119.032000", "192119.035000", "192119.038000", "192119.040000", "192119.043000", "192119.045000", "192119.048000", "192119.050000", "192119.053000", "192119.055000", "192119.058000", "192119.060000", "192119.063000", "192119.066000", "192119.068000", "192119.081000", "192119.084000", "192119.086000", "192119.089000", "192119.091000", "192119.094000", "192119.096000", "192119.099000", "192119.101000", "192119.110000", "192119.113000", "192119.115000", "192119.118000", "192119.120000", "192119.123000", "192119.125000", "192119.128000", "192119.130000", "192119.133000", "192119.135000", "192138.998000", "192139.002000", "192139.005000", "192139.007000", "192139.010000", "192139.012000", "192139.015000", "192139.017000", "192139.020000", "192139.022000", "192139.025000", "192139.027000", "192139.030000", "192139.040000", "192139.042000", "192139.045000", "192139.047000", "192139.050000", "192139.052000", "192139.055000", "192158.997000", "192159.001000", "192159.004000", "192159.006000", "192159.009000", "192159.011000", "192159.014000", "192159.016000", "192159.019000", "192159.022000", "192159.024000", "192159.027000", "192159.029000", "192159.032000", "192159.034000", "192159.037000", "192159.040000", "192159.042000", "192159.045000", "192159.047000", "192218.998000", "192219.001000", "192219.004000", "192219.006000", "192219.009000", "192219.011000", "192219.014000", "192219.016000", "192219.019000", "192219.021000", "192219.024000", "192219.026000", "192219.029000", "192219.031000", "192219.034000", "192219.036000", "192219.039000", "192219.041000", "192219.044000", "192219.046000", "192238.997000", "192239.001000", "192239.004000", "192239.006000", "192239.008000", "192239.011000", "192239.013000", "192239.016000", "192239.018000", "192239.021000", "192239.023000", "192239.026000", "192239.028000", "192239.031000", "192239.033000", "192239.036000", "192239.041000", "192239.044000", "192239.046000", "192239.049000", "192258.997000", "192259.001000", "192259.008000", "192259.011000", "192259.013000", "192259.016000", "192259.018000", "192259.021000", "192259.024000", "192259.026000", "192259.029000", "192259.032000", "192259.034000", "192259.037000", "192259.040000", "192259.042000", "192259.045000", "192259.047000", "192259.050000", "192259.052000", "192318.998000", "192319.001000", "192319.004000", "192319.006000", "192319.009000", "192319.011000", "192319.014000", "192319.016000", "192319.019000", "192319.021000", "192319.024000", "192319.026000", "192319.029000", "192319.031000", "192319.034000", "192319.036000", "192319.039000", "192319.041000", "192319.044000", "192319.046000", "192338.997000", "192339.001000", "192339.003000", "192339.006000", "192339.008000", "192339.011000", "192339.014000", "192339.016000", "192339.019000", "192339.022000", "192339.024000", "192339.027000", "192339.030000", "192339.032000", "192339.035000", "192339.038000", "192339.040000", "192339.043000", "192339.046000", "192339.048000", "192358.998000", "192359.002000", "192359.005000", "192359.007000", "192359.010000", "192359.012000", "192359.015000", "192359.017000", "192359.020000", "192359.022000", "192359.025000", "192359.027000", "192359.030000", "192359.032000", "192359.035000", "192359.037000", "192359.040000", "192359.042000", "192359.045000", "192359.047000", "192418.997000", "192419.001000", "192419.004000", "192419.007000", "192419.009000", "192419.012000", "192419.014000", "192419.017000", "192419.029000", "192419.032000", "192419.034000", "192419.037000", "192419.039000", "192419.042000", "192419.044000", "192419.047000", "192419.049000", "192419.052000", "192419.055000", "192419.057000", "192438.997000", "192439.001000", "192439.003000", "192439.015000", "192439.018000", "192439.020000", "192439.023000", "192439.025000", "192439.028000", "192439.030000", "192439.033000", "192439.035000", "192439.038000", "192439.040000", "192439.043000", "192439.045000", "192439.048000", "192439.050000", "192439.053000", "192439.055000", "192458.997000", "192459.001000", "192459.004000", "192459.006000", "192459.008000", "192459.011000", "192459.013000", "192459.016000", "192459.018000", "192459.021000", "192459.023000", "192459.026000", "192459.028000", "192459.031000", "192459.033000", "192459.036000", "192459.038000", "192459.041000", "192459.043000", "192459.046000", "192518.997000", "192519.001000", "192519.004000", "192519.007000", "192519.009000", "192519.012000", "192519.015000", "192519.017000", "192519.020000", "192519.022000", "192519.025000", "192519.027000", "192519.030000", "192519.032000", "192519.035000", "192519.037000", "192519.040000", "192519.042000", "192519.045000", "192519.047000", "192538.997000", "192539.001000", "192539.004000", "192539.006000", "192539.009000", "192539.011000", "192539.014000", "192539.016000", "192539.019000", "192539.021000", "192539.024000", "192539.026000", "192539.029000", "192539.031000", "192539.034000", "192539.036000", "192539.039000", "192539.041000", "192539.044000", "192539.046000", "192558.997000", "192559.001000", "192559.004000", "192559.006000", "192559.009000", "192559.011000", "192559.014000", "192559.016000", "192559.018000", "192559.021000", "192559.023000", "192559.026000", "192559.029000", "192559.031000", "192559.033000", "192559.036000", "192559.039000", "192559.041000", "192559.043000", "192559.046000", "192618.998000", "192619.002000", "192619.005000", "192619.008000", "192619.010000", "192619.013000", "192619.015000", "192619.018000", "192619.020000", "192619.023000", "192619.025000", "192619.028000", "192619.030000", "192619.033000", "192619.035000", "192619.038000", "192619.040000", "192619.043000", "192619.046000", "192619.048000", "192638.998000", "192639.001000", "192639.004000", "192639.006000", "192639.009000", "192639.011000", "192639.014000", "192639.016000", "192639.019000", "192639.021000", "192639.024000", "192639.026000", "192639.029000", "192639.031000", "192639.034000", "192639.037000", "192639.039000", "192639.041000", "192639.044000", "192639.047000", "192639.877000"],
      "InstanceCreationTime": ["192119.032000", "192119.035000", "192119.038000", "192119.040000", "192119.043000", "192119.045000", "192119.048000", "192119.050000", "192119.053000", "192119.055000", "192119.058000", "192119.060000", "192119.063000", "192119.066000", "192119.068000", "192119.081000", "192119.084000", "192119.086000", "192119.089000", "192119.091000", "192119.094000", "192119.096000", "192119.099000", "192119.101000", "192119.110000", "192119.113000", "192119.115000", "192119.118000", "192119.120000", "192119.123000", "192119.125000", "192119.128000", "192119.130000", "192119.133000", "192119.135000", "192138.998000", "192139.002000", "192139.005000", "192139.007000", "192139.010000", "192139.012000", "192139.015000", "192139.017000", "192139.020000", "192139.022000", "192139.025000", "192139.027000", "192139.030000", "192139.040000", "192139.042000", "192139.045000", "192139.047000", "192139.050000", "192139.052000", "192139.055000", "192158.997000", "192159.001000", "192159.004000", "192159.006000", "192159.009000", "192159.011000", "192159.014000", "192159.016000", "192159.019000", "192159.022000", "192159.024000", "192159.027000", "192159.029000", "192159.032000", "192159.034000", "192159.037000", "192159.040000", "192159.042000", "192159.045000", "192159.047000", "192218.998000", "192219.001000", "192219.004000", "192219.006000", "192219.009000", "192219.011000", "192219.014000", "192219.016000", "192219.019000", "192219.021000", "192219.024000", "192219.026000", "192219.029000", "192219.031000", "192219.034000", "192219.036000", "192219.039000", "192219.041000", "192219.044000", "192219.046000", "192238.997000", "192239.001000", "192239.004000", "192239.006000", "192239.008000", "192239.011000", "192239.013000", "192239.016000", "192239.018000", "192239.021000", "192239.023000", "192239.026000", "192239.028000", "192239.031000", "192239.033000", "192239.036000", "192239.041000", "192239.044000", "192239.046000", "192239.049000", "192258.997000", "192259.001000", "192259.008000", "192259.011000", "192259.013000", "192259.016000", "192259.018000", "192259.021000", "192259.024000", "192259.026000", "192259.029000", "192259.032000", "192259.034000", "192259.037000", "192259.040000", "192259.042000", "192259.045000", "192259.047000", "192259.050000", "192259.052000", "192318.998000", "192319.001000", "192319.004000", "192319.006000", "192319.009000", "192319.011000", "192319.014000", "192319.016000", "192319.019000", "192319.021000", "192319.024000", "192319.026000", "192319.029000", "192319.031000", "192319.034000", "192319.036000", "192319.039000", "192319.041000", "192319.044000", "192319.046000", "192338.997000", "192339.001000", "192339.003000", "192339.006000", "192339.008000", "192339.011000", "192339.014000", "192339.016000", "192339.019000", "192339.022000", "192339.024000", "192339.027000", "192339.030000", "192339.032000", "192339.035000", "192339.038000", "192339.040000", "192339.043000", "192339.046000", "192339.048000", "192358.998000", "192359.002000", "192359.005000", "192359.007000", "192359.010000", "192359.012000", "192359.015000", "192359.017000", "192359.020000", "192359.022000", "192359.025000", "192359.027000", "192359.030000", "192359.032000", "192359.035000", "192359.037000", "192359.040000", "192359.042000", "192359.045000", "192359.047000", "192418.997000", "192419.001000", "192419.004000", "192419.007000", "192419.009000", "192419.012000", "192419.014000", "192419.017000", "192419.029000", "192419.032000", "192419.034000", "192419.037000", "192419.039000", "192419.042000", "192419.044000", "192419.047000", "192419.049000", "192419.052000", "192419.055000", "192419.057000", "192438.997000", "192439.001000", "192439.003000", "192439.015000", "192439.018000", "192439.020000", "192439.023000", "192439.025000", "192439.028000", "192439.030000", "192439.033000", "192439.035000", "192439.038000", "192439.040000", "192439.043000", "192439.045000", "192439.048000", "192439.050000", "192439.053000", "192439.055000", "192458.997000", "192459.001000", "192459.004000", "192459.006000", "192459.008000", "192459.011000", "192459.013000", "192459.016000", "192459.018000", "192459.021000", "192459.023000", "192459.026000", "192459.028000", "192459.031000", "192459.033000", "192459.036000", "192459.038000", "192459.041000", "192459.043000", "192459.046000", "192518.997000", "192519.001000", "192519.004000", "192519.007000", "192519.009000", "192519.012000", "192519.015000", "192519.017000", "192519.020000", "192519.022000", "192519.025000", "192519.027000", "192519.030000", "192519.032000", "192519.035000", "192519.037000", "192519.040000", "192519.042000", "192519.045000", "192519.047000", "192538.997000", "192539.001000", "192539.004000", "192539.006000", "192539.009000", "192539.011000", "192539.014000", "192539.016000", "192539.019000", "192539.021000", "192539.024000", "192539.026000", "192539.029000", "192539.031000", "192539.034000", "192539.036000", "192539.039000", "192539.041000", "192539.044000", "192539.046000", "192558.997000", "192559.001000", "192559.004000", "192559.006000", "192559.009000", "192559.011000", "192559.014000", "192559.016000", "192559.018000", "192559.021000", "192559.023000", "192559.026000", "192559.029000", "192559.031000", "192559.033000", "192559.036000", "192559.039000", "192559.041000", "192559.043000", "192559.046000", "192618.998000", "192619.002000", "192619.005000", "192619.008000", "192619.010000", "192619.013000", "192619.015000", "192619.018000", "192619.020000", "192619.023000", "192619.025000", "192619.028000", "192619.030000", "192619.033000", "192619.035000", "192619.038000", "192619.040000", "192619.043000", "192619.046000", "192619.048000", "192638.998000", "192639.001000", "192639.004000", "192639.006000", "192639.009000", "192639.011000", "192639.014000", "192639.016000", "192639.019000", "192639.021000", "192639.024000", "192639.026000", "192639.029000", "192639.031000", "192639.034000", "192639.037000", "192639.039000", "192639.041000", "192639.044000", "192639.047000", "192639.877000"],
      "InstanceNumber": [1, 2, 3, 4, 5, 6, 7, 8, 9, 10, 11, 12, 13, 14, 15, 16, 17, 18, 19, 20, 21, 22, 23, 24, 25, 26, 27, 28, 29, 30, 31, 32, 33, 34, 35, 36, 37, 38, 39, 40, 41, 42, 43, 44, 45, 46, 47, 48, 49, 50, 51, 52, 53, 54, 55, 56, 57, 58, 59, 60, 61, 62, 63, 64, 65, 66, 67, 68, 69, 70, 71, 72, 73, 74, 75, 76, 77, 78, 79, 80, 81, 82, 83, 84, 85, 86, 87, 88, 89, 90, 91, 92, 93, 94, 95, 96, 97, 98, 99, 100, 101, 102, 103, 104, 105, 106, 107, 108, 109, 110, 111, 112, 113, 114, 115, 116, 117, 118, 119, 120, 121, 122, 123, 124, 125, 126, 127, 128, 129, 130, 131, 132, 133, 134, 135, 136, 137, 138, 139, 140, 141, 142, 143, 144, 145, 146, 147, 148, 149, 150, 151, 152, 153, 154, 155, 156, 157, 158, 159, 160, 161, 162, 163, 164, 165, 166, 167, 168, 169, 170, 171, 172, 173, 174, 175, 176, 177, 178, 179, 180, 181, 182, 183, 184, 185, 186, 187, 188, 189, 190, 191, 192, 193, 194, 195, 196, 197, 198, 199, 200, 201, 202, 203, 204, 205, 206, 207, 208, 209, 210, 211, 212, 213, 214, 215, 216, 217, 218, 219, 220, 221, 222, 223, 224, 225, 226, 227, 228, 229, 230, 231, 232, 233, 234, 235, 236, 237, 238, 239, 240, 241, 242, 243, 244, 245, 246, 247, 248, 249, 250, 251, 252, 253, 254, 255, 256, 257, 258, 259, 260, 261, 262, 263, 264, 265, 266, 267, 268, 269, 270, 271, 272, 273, 274, 275, 276, 277, 278, 279, 280, 281, 282, 283, 284, 285, 286, 287, 288, 289, 290, 291, 292, 293, 294, 295, 296, 297, 298, 299, 300, 301, 302, 303, 304, 305, 306, 307, 308, 309, 310, 311, 312, 313, 314, 315, 316, 317, 318, 319, 320, 321, 322, 323, 324, 325, 326, 327, 328, 329, 330, 331, 332, 333, 334, 335, 336, 337, 338, 339, 340, 341, 342, 343, 344, 345, 346, 347, 348, 349, 350, 351, 352, 353, 354, 355, 356],
      "LargestImagePixelValue": [14055, 13532, 13263, 13360, 13184, 13024, 13006, 13099, 12941, 13041, 13119, 12941, 12950, 12941, 12999, 13031, 13073, 13019, 12952, 12926, 12940, 12837, 12928, 13047, 13048, 12924, 12990, 13003, 12965, 12978, 12877, 12941, 12776, 12842, 12824, 12955, 12788, 13003, 12967, 13002, 12997, 12956, 12826, 12882, 12939, 12887, 13053, 13243, 12948, 12927, 12980, 12963, 12891, 12859, 12828, 12920, 13096, 12942, 12849, 12915, 13074, 12842, 13016, 12916, 13025, 12743, 12834, 12738, 12958, 12782, 12869, 12898, 12927, 12968, 12849, 12963, 13020, 13073, 12782, 12721, 12704, 12981, 12822, 12886, 12880, 12857, 12821, 12935, 12941, 12859, 12829, 13002, 12937, 12870, 12892, 13128, 13016, 13091, 12919, 13040, 12865, 12955, 12955, 13124, 13212, 13017, 12799, 12910, 12842, 12873, 12825, 12965, 13276, 13154, 13043, 13031, 13262, 13141, 13002, 13065, 13119, 12800, 12975, 12976, 13356, 13060, 13068, 13273, 13183, 13162, 12979, 13214, 13044, 12883, 12841, 13016, 13009, 12944, 13182, 13112, 12869, 13014, 13102, 12985, 12817, 13108, 13430, 13035, 12922, 13242, 13284, 13105, 12929, 13224, 13090, 13003, 12874, 13402, 13227, 13003, 13220, 13210, 12955, 13055, 13196, 13066, 12852, 13080, 13173, 12828, 13208, 13483, 13127, 12987, 13282, 13426, 13268, 13028, 13394, 13264, 13134, 13130, 13239, 12806, 13064, 13333, 13136, 13111, 13373, 13534, 13395, 13236, 13205, 13358, 13119, 13133, 13322, 13230, 13115, 13252, 13398, 13456, 13370, 13555, 13406, 13394, 13472, 13436, 13327, 13551, 13324, 13209, 13120, 13101, 13078, 13138, 13168, 13086, 13162, 13120, 13267, 13462, 13376, 13540, 13503, 13379, 13235, 13324, 13337, 13263, 13080, 13482, 13252, 13244, 13334, 13539, 13286, 13257, 13133, 13543, 13529, 13317, 13530, 13405, 13356, 13253, 13298, 13128, 13013, 13505, 13456, 13201, 13181, 13282, 13302, 13202, 13253, 13549, 13416, 13171, 13602, 13521, 13368, 13255, 13363, 13594, 13346, 13456, 13601, 13365, 13143, 13478, 13536, 13473, 13432, 13354, 13367, 13118, 13217, 13377, 13137, 13118, 13274, 13241, 13248, 13342, 13662, 13412, 13329, 13369, 13356, 13356, 13321, 13166, 13397, 13276, 13202, 13200, 13232, 13379, 13280, 13166, 13206, 13329, 13281, 13189, 13296, 13411, 13406, 13411, 13291, 13405, 13406, 13347, 13397, 13226, 13269, 13175, 13214, 13538, 13448, 13266, 13249, 13390, 13265, 13194, 13218, 13273, 13371, 13310, 13368, 13570, 13276, 13504, 13618, 13640, 13315, 13083, 13246, 13673, 13403, 13265, 13379, 13420, 13077, 12963, 13293, 13374, 13250, 13241, 13462, 13590, 13461, 13563, 13624, 13659],
