{
  "AcquisitionMatrixPE": 106,
  "AcquisitionNumber": 1,
  "AcquisitionTime": "11:15:20.437500",
  "BandwidthPerPixelPhaseEncode": 16.846,
  "BaseResolution": 106,
  "BodyPartExamined": "BRAIN",
  "CoilCombinationMethod": "Sum of Squares",
  "ConsistencyInfo": "N4_VE11C_LATEST_20160120",
  "ConversionSoftware": "dcm2niix",
  "ConversionSoftwareVersion": "v1.0.20220720",
  "DerivedVendorReportedEchoSpacing": 0.000560012,
  "DeviceSerialNumber": "166108",
  "DwellTime": 1.8e-06,
  "EchoTime": 0.0352,
  "EchoTrainLength": 106,
  "EffectiveEchoSpacing": 0.000560012,
  "FlipAngle": 60,
  "HeudiconvVersion": "1.3.0",
  "ImageComments": "Unaliased MB4/PE3/LB",
  "ImageOrientationPatientDICOM": [1, 0, 0, 0, 0.991216, -0.132256],
  "ImageOrientationText": "Tra>Cor(-7.6)",
  "ImageType": [
    "ORIGINAL",
    "PRIMARY",
    "M",
    "MB",
    "ND",
    "MOSAIC"
],
  "ImagingFrequency": 123.244,
  "InPlanePhaseEncodingDirectionDICOM": "COL",
  "InstitutionAddress": "Bedford Way 26,London,London,GB,WC1H 0AP",
  "InstitutionName": "University College",
  "InstitutionalDepartmentName": "Department",
  "MRAcquisitionType": "2D",
  "MagneticFieldStrength": 3,
  "Manufacturer": "Siemens",
  "ManufacturersModelName": "Prisma",
  "MatrixCoilMode": "SENSE",
  "Modality": "MR",
  "MultibandAccelerationFactor": 4,
  "NonlinearGradientCorrection": false,
  "PartialFourier": 1,
  "PatientPosition": "HFS",
  "PercentPhaseFOV": 100,
  "PercentSampling": 100,
  "PhaseEncodingDirection": "j-",
  "PhaseEncodingSteps": 106,
  "PhaseResolution": 1,
  "PixelBandwidth": 2620,
  "ProcedureStepDescription": "Egor^MovieProject2",
  "ProtocolName": "func-bold_task-pRF_run-02",
  "PulseSequenceDetails": "%CustomerSeq%\\cmrr_mbep2d_bold",
  "ReceiveCoilActiveElements": "HEA;HEP",
  "ReceiveCoilName": "Head_32",
  "ReconMatrixPE": 106,
  "RepetitionTime": 1,
  "SAR": 0.0649584,
  "ScanOptions": "FS\\EXT",
  "ScanningSequence": "EP",
  "SequenceName": "epfid2d1_106",
  "SequenceVariant": "SK\\SS",
  "SeriesDescription": "func-bold_task-pRF_run-02",
  "SeriesNumber": 14,
  "ShimSetting": [-1574, 605, 7466, 488, -19, 213, 149, -47],
  "SliceThickness": 2,
  "SliceTiming": [0, 0.4075, 0.8175, 0.245, 0.6525, 0.0825, 0.49, 0.8975, 0.3275, 0.735, 0.1625, 0.5725, 0, 0.4075, 0.8175, 0.245, 0.6525, 0.0825, 0.49, 0.8975, 0.3275, 0.735, 0.1625, 0.5725, 0, 0.4075, 0.8175, 0.245, 0.6525, 0.0825, 0.49, 0.8975, 0.3275, 0.735, 0.1625, 0.5725, 0, 0.4075, 0.8175, 0.245, 0.6525, 0.0825, 0.49, 0.8975, 0.3275, 0.735, 0.1625, 0.5725],
  "SoftwareVersions": "syngo MR E11",
  "SpacingBetweenSlices": 2,
  "StationName": "AWP166108",
  "TaskName": "retinotopy",
  "TotalReadoutTime": 0.0588013,
  "TxRefAmp": 220.585,
  "WipMemBlock": "a8738a98-310b-4cdb-b3eb-5c5df4d4ebc9||Sequence: R016 ve11c/master r/e634e98; Dec 19 2017 11:00:25 by eja",
  "dcmmeta_affine": [
    [-2.0, 0.0, 0.0, 106.0],
    [0.0, 1.9824310541152954, -0.2645127773284912, -90.08482360839844],
    [0.0, 0.2645128071308136, 1.9824310541152954, -35.66709518432617],
    [0.0, 0.0, 0.0, 1.0]
],
  "dcmmeta_reorient_transform": [
    [0.0, -1.0, 0.0, 105.0],
    [1.0, 0.0, 0.0, 0.0],
    [0.0, 0.0, 1.0, 0.0],
    [0.0, 0.0, 0.0, 1.0]
],
  "dcmmeta_shape": [106, 106, 48, 356],
  "dcmmeta_slice_dim": 2,
  "dcmmeta_version": 0.6,
  "global": {
    "const": {
      "AcquisitionMatrix": [106, 0, 0, 106],
      "AngioFlag": "N",
      "BitsAllocated": 16,
      "BitsStored": 16,
      "BodyPartExamined": "BRAIN",
      "CardiacNumberOfImages": 1,
      "Columns": 742,
      "EchoNumbers": 1,
      "EchoTime": 35.2,
      "EchoTrainLength": 106,
      "FlipAngle": 60.0,
      "HighBit": 15,
      "ImageOrientationPatient": [1.0, 0.0, 0.0, 0.0, 0.99121553937119, -0.132256396855],
      "ImagePositionPatient": [-742.0, -748.48352284953, 76.221814749506],
      "ImageType": [
        "ORIGINAL",
        "PRIMARY",
        "M",
        "MB",
        "ND",
        "MOSAIC"
],
      "ImagedNucleus": "1H",
      "ImagingFrequency": 123.243686,
      "InPlanePhaseEncodingDirection": "COL",
      "MRAcquisitionType": "2D",
      "MagneticFieldStrength": 3.0,
      "Manufacturer": "SIEMENS",
      "ManufacturerModelName": "Prisma",
      "Modality": "MR",
      "NominalInterval": 0,
      "NumberOfAverages": 1.0,
      "NumberOfPhaseEncodingSteps": 106,
      "PercentPhaseFieldOfView": 100.0,
      "PercentSampling": 100.0,
      "PerformedProcedureStepStartTime": "101956.343000",
      "PhotometricInterpretation": "MONOCHROME2",
      "PixelBandwidth": 2620.0,
      "PixelRepresentation": 0,
      "PixelSpacing": [2.0, 2.0],
      "ProtocolName": "func-bold_task-pRF_run-02",
      "RepetitionTime": 1000.0,
      "Rows": 742,
      "SAR": 0.06495835659978,
      "SamplesPerPixel": 1,
      "ScanOptions": [
        "FS",
        "EXT"
],
      "ScanningSequence": "EP",
      "SequenceName": "epfid2d1_106",
      "SequenceVariant": [
        "SK",
        "SS"
],
      "SeriesDescription": "func-bold_task-pRF_run-02",
      "SeriesNumber": 14,
      "SeriesTime": "111547.867000",
      "SliceLocation": -23.439486618649,
      "SliceThickness": 2.0,
      "SmallestImagePixelValue": 0,
      "SoftwareVersions": "syngo MR E11",
      "SpacingBetweenSlices": 1.9999999264936,
      "SpecificCharacterSet": "ISO_IR 100",
      "StudyID": "1",
      "StudyTime": "101956.283000",
      "TransmitCoilName": "Body",
      "VariableFlipAngleFlag": "N",
      "WindowCenterWidthExplanation": "Algo1",
      "dBdt": 0.0},
    "slices": {}
  },
  "time": {
    "samples": {
      "AcquisitionNumber": [1, 2, 3, 4, 5, 6, 7, 8, 9, 10, 11, 12, 13, 14, 15, 16, 17, 18, 19, 20, 21, 22, 23, 24, 25, 26, 27, 28, 29, 30, 31, 32, 33, 34, 35, 36, 37, 38, 39, 40, 41, 42, 43, 44, 45, 46, 47, 48, 49, 50, 51, 52, 53, 54, 55, 56, 57, 58, 59, 60, 61, 62, 63, 64, 65, 66, 67, 68, 69, 70, 71, 72, 73, 74, 75, 76, 77, 78, 79, 80, 81, 82, 83, 84, 85, 86, 87, 88, 89, 90, 91, 92, 93, 94, 95, 96, 97, 98, 99, 100, 101, 102, 103, 104, 105, 106, 107, 108, 109, 110, 111, 112, 113, 114, 115, 116, 117, 118, 119, 120, 121, 122, 123, 124, 125, 126, 127, 128, 129, 130, 131, 132, 133, 134, 135, 136, 137, 138, 139, 140, 141, 142, 143, 144, 145, 146, 147, 148, 149, 150, 151, 152, 153, 154, 155, 156, 157, 158, 159, 160, 161, 162, 163, 164, 165, 166, 167, 168, 169, 170, 171, 172, 173, 174, 175, 176, 177, 178, 179, 180, 181, 182, 183, 184, 185, 186, 187, 188, 189, 190, 191, 192, 193, 194, 195, 196, 197, 198, 199, 200, 201, 202, 203, 204, 205, 206, 207, 208, 209, 210, 211, 212, 213, 214, 215, 216, 217, 218, 219, 220, 221, 222, 223, 224, 225, 226, 227, 228, 229, 230, 231, 232, 233, 234, 235, 236, 237, 238, 239, 240, 241, 242, 243, 244, 245, 246, 247, 248, 249, 250, 251, 252, 253, 254, 255, 256, 257, 258, 259, 260, 261, 262, 263, 264, 265, 266, 267, 268, 269, 270, 271, 272, 273, 274, 275, 276, 277, 278, 279, 280, 281, 282, 283, 284, 285, 286, 287, 288, 289, 290, 291, 292, 293, 294, 295, 296, 297, 298, 299, 300, 301, 302, 303, 304, 305, 306, 307, 308, 309, 310, 311, 312, 313, 314, 315, 316, 317, 318, 319, 320, 321, 322, 323, 324, 325, 326, 327, 328, 329, 330, 331, 332, 333, 334, 335, 336, 337, 338, 339, 340, 341, 342, 343, 344, 345, 346, 347, 348, 349, 350, 351, 352, 353, 354, 355, 356],
      "AcquisitionTime": ["111520.437500", "111521.437500", "111522.437500", "111523.437500", "111524.437500", "111525.437500", "111526.437500", "111527.437500", "111528.437500", "111529.437500", "111530.437500", "111531.437500", "111532.437500", "111533.437500", "111534.437500", "111535.437500", "111536.437500", "111537.437500", "111538.437500", "111539.437500", "111540.437500", "111541.437500", "111542.437500", "111543.437500", "111544.437500", "111545.437500", "111546.437500", "111547.437500", "111548.437500", "111549.437500", "111550.437500", "111551.437500", "111552.437500", "111553.437500", "111554.437500", "111555.437500", "111556.437500", "111557.437500", "111558.437500", "111559.437500", "111600.437500", "111601.437500", "111602.437500", "111603.437500", "111604.437500", "111605.437500", "111606.437500", "111607.437500", "111608.437500", "111609.437500", "111610.437500", "111611.437500", "111612.437500", "111613.437500", "111614.437500", "111615.437500", "111616.437500", "111617.437500", "111618.437500", "111619.437500", "111620.437500", "111621.437500", "111622.437500", "111623.437500", "111624.437500", "111625.437500", "111626.437500", "111627.437500", "111628.437500", "111629.437500", "111630.437500", "111631.437500", "111632.437500", "111633.437500", "111634.437500", "111635.437500", "111636.437500", "111637.437500", "111638.437500", "111639.437500", "111640.437500", "111641.437500", "111642.437500", "111643.437500", "111644.437500", "111645.437500", "111646.437500", "111647.437500", "111648.437500", "111649.437500", "111650.437500", "111651.437500", "111652.437500", "111653.437500", "111654.437500", "111655.437500", "111656.437500", "111657.437500", "111658.437500", "111659.437500", "111700.437500", "111701.437500", "111702.437500", "111703.437500", "111704.437500", "111705.437500", "111706.437500", "111707.437500", "111708.437500", "111709.437500", "111710.437500", "111711.437500", "111712.437500", "111713.437500", "111714.437500", "111715.437500", "111716.437500", "111717.437500", "111718.437500", "111719.437500", "111720.437500", "111721.437500", "111722.437500", "111723.437500", "111724.437500", "111725.437500", "111726.437500", "111727.437500", "111728.437500", "111729.437500", "111730.437500", "111731.437500", "111732.437500", "111733.437500", "111734.437500", "111735.437500", "111736.437500", "111737.437500", "111738.437500", "111739.437500", "111740.437500", "111741.437500", "111742.437500", "111743.437500", "111744.437500", "111745.437500", "111746.437500", "111747.437500", "111748.437500", "111749.437500", "111750.437500", "111751.437500", "111752.437500", "111753.437500", "111754.437500", "111755.437500", "111756.437500", "111757.437500", "111758.437500", "111759.437500", "111800.437500", "111801.437500", "111802.437500", "111803.437500", "111804.437500", "111805.437500", "111806.437500", "111807.437500", "111808.437500", "111809.437500", "111810.437500", "111811.437500", "111812.437500", "111813.437500", "111814.437500", "111815.437500", "111816.437500", "111817.437500", "111818.437500", "111819.437500", "111820.437500", "111821.437500", "111822.437500", "111823.437500", "111824.437500", "111825.437500", "111826.437500", "111827.437500", "111828.437500", "111829.437500", "111830.437500", "111831.437500", "111832.437500", "111833.437500", "111834.437500", "111835.437500", "111836.437500", "111837.437500", "111838.437500", "111839.437500", "111840.437500", "111841.437500", "111842.437500", "111843.437500", "111844.437500", "111845.437500", "111846.437500", "111847.437500", "111848.437500", "111849.437500", "111850.437500", "111851.437500", "111852.437500", "111853.437500", "111854.437500", "111855.437500", "111856.437500", "111857.437500", "111858.437500", "111859.437500", "111900.437500", "111901.437500", "111902.437500", "111903.437500", "111904.437500", "111905.437500", "111906.437500", "111907.437500", "111908.437500", "111909.437500", "111910.437500", "111911.437500", "111912.437500", "111913.437500", "111914.437500", "111915.437500", "111916.437500", "111917.437500", "111918.437500", "111919.437500", "111920.437500", "111921.437500", "111922.437500", "111923.437500", "111924.437500", "111925.437500", "111926.437500", "111927.437500", "111928.437500", "111929.437500", "111930.437500", "111931.437500", "111932.437500", "111933.437500", "111934.437500", "111935.437500", "111936.437500", "111937.437500", "111938.437500", "111939.437500", "111940.437500", "111941.437500", "111942.437500", "111943.437500", "111944.437500", "111945.437500", "111946.437500", "111947.437500", "111948.437500", "111949.437500", "111950.437500", "111951.437500", "111952.437500", "111953.437500", "111954.437500", "111955.437500", "111956.437500", "111957.437500", "111958.437500", "111959.437500", "112000.437500", "112001.437500", "112002.437500", "112003.437500", "112004.437500", "112005.437500", "112006.437500", "112007.437500", "112008.437500", "112009.437500", "112010.437500", "112011.437500", "112012.437500", "112013.437500", "112014.437500", "112015.437500", "112016.437500", "112017.437500", "112018.437500", "112019.437500", "112020.437500", "112021.437500", "112022.437500", "112023.437500", "112024.437500", "112025.437500", "112026.437500", "112027.437500", "112028.437500", "112029.437500", "112030.437500", "112031.437500", "112032.437500", "112033.437500", "112034.437500", "112035.437500", "112036.437500", "112037.437500", "112038.437500", "112039.437500", "112040.437500", "112041.437500", "112042.437500", "112043.437500", "112044.437500", "112045.437500", "112046.437500", "112047.437500", "112048.437500", "112049.437500", "112050.437500", "112051.437500", "112052.437500", "112053.437500", "112054.437500", "112055.437500", "112056.437500", "112057.437500", "112058.437500", "112059.437500", "112100.437500", "112101.437500", "112102.437500", "112103.437500", "112104.437500", "112105.437500", "112106.437500", "112107.437500", "112108.437500", "112109.437500", "112110.437500", "112111.437500", "112112.437500", "112113.437500", "112114.437500", "112115.437500"],
      "ContentTime": ["111547.870000", "111547.873000", "111547.875000", "111547.878000", "111547.880000", "111547.883000", "111547.885000", "111547.888000", "111547.890000", "111547.893000", "111547.895000", "111547.898000", "111547.900000", "111547.902000", "111547.905000", "111547.908000", "111547.910000", "111547.913000", "111547.915000", "111547.918000", "111547.920000", "111547.922000", "111547.929000", "111547.931000", "111547.934000", "111607.839000", "111607.842000", "111607.845000", "111607.847000", "111607.850000", "111607.852000", "111607.855000", "111607.857000", "111607.860000", "111607.862000", "111607.865000", "111607.867000", "111607.870000", "111607.872000", "111607.875000", "111607.877000", "111607.880000", "111607.882000", "111607.885000", "111607.887000", "111607.890000", "111627.840000", "111627.843000", "111627.845000", "111627.848000", "111627.850000", "111627.853000", "111627.855000", "111627.858000", "111627.860000", "111627.863000", "111627.865000", "111627.868000", "111627.870000", "111627.873000", "111627.875000", "111627.878000", "111627.880000", "111627.883000", "111627.885000", "111627.900000", "111647.839000", "111647.842000", "111647.845000", "111647.847000", "111647.850000", "111647.852000", "111647.855000", "111647.857000", "111647.860000", "111647.862000", "111647.865000", "111647.867000", "111647.870000", "111647.872000", "111647.875000", "111647.877000", "111647.880000", "111647.882000", "111647.885000", "111647.887000", "111707.839000", "111707.842000", "111707.845000", "111707.847000", "111707.850000", "111707.852000", "111707.855000", "111707.857000", "111707.860000", "111707.862000", "111707.865000", "111707.867000", "111707.870000", "111707.872000", "111707.875000", "111707.877000", "111707.880000", "111707.882000", "111707.885000", "111707.887000", "111727.838000", "111727.841000", "111727.844000", "111727.846000", "111727.849000", "111727.852000", "111727.862000", "111727.864000", "111727.867000", "111727.870000", "111727.872000", "111727.875000", "111727.877000", "111727.880000", "111727.882000", "111727.885000", "111727.887000", "111727.890000", "111727.892000", "111727.894000", "111747.838000", "111747.841000", "111747.844000", "111747.846000", "111747.849000", "111747.851000", "111747.854000", "111747.856000", "111747.859000", "111747.861000", "111747.864000", "111747.866000", "111747.869000", "111747.871000", "111747.874000", "111747.876000", "111747.879000", "111747.881000", "111747.884000", "111747.886000", "111807.838000", "111807.841000", "111807.844000", "111807.846000", "111807.849000", "111807.851000", "111807.854000", "111807.856000", "111807.859000", "111807.861000", "111807.864000", "111807.866000", "111807.869000", "111807.871000", "111807.874000", "111807.876000", "111807.879000", "111807.881000", "111807.884000", "111807.886000", "111827.839000", "111827.842000", "111827.845000", "111827.847000", "111827.850000", "111827.852000", "111827.855000", "111827.857000", "111827.859000", "111827.862000", "111827.865000", "111827.867000", "111827.870000", "111827.872000", "111827.875000", "111827.877000", "111827.880000", "111827.882000", "111827.885000", "111827.887000", "111847.839000", "111847.842000", "111847.845000", "111847.847000", "111847.850000", "111847.852000", "111847.855000", "111847.857000", "111847.860000", "111847.862000", "111847.865000", "111847.867000", "111847.870000", "111847.872000", "111847.875000", "111847.877000", "111847.880000", "111847.883000", "111847.885000", "111847.887000", "111907.839000", "111907.842000", "111907.845000", "111907.856000", "111907.859000", "111907.861000", "111907.864000", "111907.866000", "111907.869000", "111907.879000", "111907.882000", "111907.884000", "111907.887000", "111907.889000", "111907.892000", "111907.894000", "111907.897000", "111907.899000", "111907.902000", "111907.904000", "111927.840000", "111927.842000", "111927.845000", "111927.847000", "111927.850000", "111927.853000", "111927.855000", "111927.858000", "111927.860000", "111927.863000", "111927.865000", "111927.868000", "111927.870000", "111927.873000", "111927.875000", "111927.878000", "111927.880000", "111927.883000", "111927.885000", "111927.888000", "111947.838000", "111947.841000", "111947.844000", "111947.846000", "111947.849000", "111947.852000", "111947.854000", "111947.857000", "111947.859000", "111947.862000", "111947.864000", "111947.867000", "111947.869000", "111947.872000", "111947.874000", "111947.877000", "111947.879000", "111947.882000", "111947.884000", "111947.887000", "112007.838000", "112007.841000", "112007.844000", "112007.846000", "112007.849000", "112007.851000", "112007.854000", "112007.856000", "112007.859000", "112007.861000", "112007.864000", "112007.866000", "112007.869000", "112007.871000", "112007.874000", "112007.876000", "112007.879000", "112007.881000", "112007.884000", "112007.886000", "112027.838000", "112027.841000", "112027.844000", "112027.846000", "112027.849000", "112027.852000", "112027.854000", "112027.857000", "112027.859000", "112027.862000", "112027.864000", "112027.867000", "112027.869000", "112027.872000", "112027.874000", "112027.877000", "112027.879000", "112027.882000", "112027.884000", "112027.887000", "112047.839000", "112047.842000", "112047.845000", "112047.847000", "112047.850000", "112047.852000", "112047.855000", "112047.857000", "112047.860000", "112047.862000", "112047.865000", "112047.867000", "112047.870000", "112047.872000", "112047.875000", "112047.877000", "112047.880000", "112047.882000", "112047.885000", "112047.887000", "112107.839000", "112107.842000", "112107.845000", "112107.847000", "112107.850000", "112107.852000", "112107.855000", "112107.857000", "112107.860000", "112107.863000", "112107.865000", "112107.868000", "112107.870000", "112107.873000", "112107.875000", "112107.878000", "112107.880000", "112107.883000", "112107.885000", "112107.888000", "112117.198000", "112117.201000", "112117.203000", "112117.206000", "112117.208000", "112117.211000", "112117.213000", "112117.216000", "112117.218000", "112117.221000"],
      "InstanceCreationTime": ["111547.870000", "111547.873000", "111547.875000", "111547.878000", "111547.880000", "111547.883000", "111547.885000", "111547.888000", "111547.890000", "111547.893000", "111547.895000", "111547.898000", "111547.900000", "111547.902000", "111547.905000", "111547.908000", "111547.910000", "111547.913000", "111547.915000", "111547.918000", "111547.920000", "111547.922000", "111547.929000", "111547.931000", "111547.934000", "111607.839000", "111607.842000", "111607.845000", "111607.847000", "111607.850000", "111607.852000", "111607.855000", "111607.857000", "111607.860000", "111607.862000", "111607.865000", "111607.867000", "111607.870000", "111607.872000", "111607.875000", "111607.877000", "111607.880000", "111607.882000", "111607.885000", "111607.887000", "111607.890000", "111627.840000", "111627.843000", "111627.845000", "111627.848000", "111627.850000", "111627.853000", "111627.855000", "111627.858000", "111627.860000", "111627.863000", "111627.865000", "111627.868000", "111627.870000", "111627.873000", "111627.875000", "111627.878000", "111627.880000", "111627.883000", "111627.885000", "111627.900000", "111647.839000", "111647.842000", "111647.845000", "111647.847000", "111647.850000", "111647.852000", "111647.855000", "111647.857000", "111647.860000", "111647.862000", "111647.865000", "111647.867000", "111647.870000", "111647.872000", "111647.875000", "111647.877000", "111647.880000", "111647.882000", "111647.885000", "111647.887000", "111707.839000", "111707.842000", "111707.845000", "111707.847000", "111707.850000", "111707.852000", "111707.855000", "111707.857000", "111707.860000", "111707.862000", "111707.865000", "111707.867000", "111707.870000", "111707.872000", "111707.875000", "111707.877000", "111707.880000", "111707.882000", "111707.885000", "111707.887000", "111727.838000", "111727.841000", "111727.844000", "111727.846000", "111727.849000", "111727.852000", "111727.862000", "111727.864000", "111727.867000", "111727.870000", "111727.872000", "111727.875000", "111727.877000", "111727.880000", "111727.882000", "111727.885000", "111727.887000", "111727.890000", "111727.892000", "111727.894000", "111747.838000", "111747.841000", "111747.844000", "111747.846000", "111747.849000", "111747.851000", "111747.854000", "111747.856000", "111747.859000", "111747.861000", "111747.864000", "111747.866000", "111747.869000", "111747.871000", "111747.874000", "111747.876000", "111747.879000", "111747.881000", "111747.884000", "111747.886000", "111807.838000", "111807.841000", "111807.844000", "111807.846000", "111807.849000", "111807.851000", "111807.854000", "111807.856000", "111807.859000", "111807.861000", "111807.864000", "111807.866000", "111807.869000", "111807.871000", "111807.874000", "111807.876000", "111807.879000", "111807.881000", "111807.884000", "111807.886000", "111827.839000", "111827.842000", "111827.845000", "111827.847000", "111827.850000", "111827.852000", "111827.855000", "111827.857000", "111827.859000", "111827.862000", "111827.865000", "111827.867000", "111827.870000", "111827.872000", "111827.875000", "111827.877000", "111827.880000", "111827.882000", "111827.885000", "111827.887000", "111847.839000", "111847.842000", "111847.845000", "111847.847000", "111847.850000", "111847.852000", "111847.855000", "111847.857000", "111847.860000", "111847.862000", "111847.865000", "111847.867000", "111847.870000", "111847.872000", "111847.875000", "111847.877000", "111847.880000", "111847.883000", "111847.885000", "111847.887000", "111907.839000", "111907.842000", "111907.845000", "111907.856000", "111907.859000", "111907.861000", "111907.864000", "111907.866000", "111907.869000", "111907.879000", "111907.882000", "111907.884000", "111907.887000", "111907.889000", "111907.892000", "111907.894000", "111907.897000", "111907.899000", "111907.902000", "111907.904000", "111927.840000", "111927.842000", "111927.845000", "111927.847000", "111927.850000", "111927.853000", "111927.855000", "111927.858000", "111927.860000", "111927.863000", "111927.865000", "111927.868000", "111927.870000", "111927.873000", "111927.875000", "111927.878000", "111927.880000", "111927.883000", "111927.885000", "111927.888000", "111947.838000", "111947.841000", "111947.844000", "111947.846000", "111947.849000", "111947.852000", "111947.854000", "111947.857000", "111947.859000", "111947.862000", "111947.864000", "111947.867000", "111947.869000", "111947.872000", "111947.874000", "111947.877000", "111947.879000", "111947.882000", "111947.884000", "111947.887000", "112007.838000", "112007.841000", "112007.844000", "112007.846000", "112007.849000", "112007.851000", "112007.854000", "112007.856000", "112007.859000", "112007.861000", "112007.864000", "112007.866000", "112007.869000", "112007.871000", "112007.874000", "112007.876000", "112007.879000", "112007.881000", "112007.884000", "112007.886000", "112027.838000", "112027.841000", "112027.844000", "112027.846000", "112027.849000", "112027.852000", "112027.854000", "112027.857000", "112027.859000", "112027.862000", "112027.864000", "112027.867000", "112027.869000", "112027.872000", "112027.874000", "112027.877000", "112027.879000", "112027.882000", "112027.884000", "112027.887000", "112047.839000", "112047.842000", "112047.845000", "112047.847000", "112047.850000", "112047.852000", "112047.855000", "112047.857000", "112047.860000", "112047.862000", "112047.865000", "112047.867000", "112047.870000", "112047.872000", "112047.875000", "112047.877000", "112047.880000", "112047.882000", "112047.885000", "112047.887000", "112107.839000", "112107.842000", "112107.845000", "112107.847000", "112107.850000", "112107.852000", "112107.855000", "112107.857000", "112107.860000", "112107.863000", "112107.865000", "112107.868000", "112107.870000", "112107.873000", "112107.875000", "112107.878000", "112107.880000", "112107.883000", "112107.885000", "112107.888000", "112117.198000", "112117.201000", "112117.203000", "112117.206000", "112117.208000", "112117.211000", "112117.213000", "112117.216000", "112117.218000", "112117.221000"],
      "InstanceNumber": [1, 2, 3, 4, 5, 6, 7, 8, 9, 10, 11, 12, 13, 14, 15, 16, 17, 18, 19, 20, 21, 22, 23, 24, 25, 26, 27, 28, 29, 30, 31, 32, 33, 34, 35, 36, 37, 38, 39, 40, 41, 42, 43, 44, 45, 46, 47, 48, 49, 50, 51, 52, 53, 54, 55, 56, 57, 58, 59, 60, 61, 62, 63, 64, 65, 66, 67, 68, 69, 70, 71, 72, 73, 74, 75, 76, 77, 78, 79, 80, 81, 82, 83, 84, 85, 86, 87, 88, 89, 90, 91, 92, 93, 94, 95, 96, 97, 98, 99, 100, 101, 102, 103, 104, 105, 106, 107, 108, 109, 110, 111, 112, 113, 114, 115, 116, 117, 118, 119, 120, 121, 122, 123, 124, 125, 126, 127, 128, 129, 130, 131, 132, 133, 134, 135, 136, 137, 138, 139, 140, 141, 142, 143, 144, 145, 146, 147, 148, 149, 150, 151, 152, 153, 154, 155, 156, 157, 158, 159, 160, 161, 162, 163, 164, 165, 166, 167, 168, 169, 170, 171, 172, 173, 174, 175, 176, 177, 178, 179, 180, 181, 182, 183, 184, 185, 186, 187, 188, 189, 190, 191, 192, 193, 194, 195, 196, 197, 198, 199, 200, 201, 202, 203, 204, 205, 206, 207, 208, 209, 210, 211, 212, 213, 214, 215, 216, 217, 218, 219, 220, 221, 222, 223, 224, 225, 226, 227, 228, 229, 230, 231, 232, 233, 234, 235, 236, 237, 238, 239, 240, 241, 242, 243, 244, 245, 246, 247, 248, 249, 250, 251, 252, 253, 254, 255, 256, 257, 258, 259, 260, 261, 262, 263, 264, 265, 266, 267, 268, 269, 270, 271, 272, 273, 274, 275, 276, 277, 278, 279, 280, 281, 282, 283, 284, 285, 286, 287, 288, 289, 290, 291, 292, 293, 294, 295, 296, 297, 298, 299, 300, 301, 302, 303, 304, 305, 306, 307, 308, 309, 310, 311, 312, 313, 314, 315, 316, 317, 318, 319, 320, 321, 322, 323, 324, 325, 326, 327, 328, 329, 330, 331, 332, 333, 334, 335, 336, 337, 338, 339, 340, 341, 342, 343, 344, 345, 346, 347, 348, 349, 350, 351, 352, 353, 354, 355, 356],
      "LargestImagePixelValue": [12184, 11809, 11605, 11387, 11367, 11291, 11407, 11175, 11223, 11184, 11112, 11421, 11247, 11230, 11259, 11172, 11062, 10999, 11184, 11072, 11060, 11052, 10967, 10861, 11022, 11022, 11019, 11106, 11031, 10967, 10946, 11034, 10996, 10991, 10859, 11019, 11029, 10993, 10834, 10815, 11013, 10804, 10856, 10699, 10706, 10668, 10750, 10725, 10845, 10904, 10976, 10995, 10934, 11130, 11001, 11009, 10850, 10809, 10947, 10832, 10915, 10871, 11136, 11023, 10958, 11015, 10890, 10873, 10827, 11019, 10868, 10779, 10777, 10690, 10641, 10760, 10682, 10704, 10770, 10750, 10809, 10665, 10641, 10639, 10589, 10638, 10656, 10581, 10475, 10492, 10584, 10571, 10627, 10628, 10711, 10753, 10617, 10654, 10790, 10783, 10616, 10822, 10603, 10649, 10563, 10728, 10817, 10705, 10704, 10638, 10542, 10681, 10673, 10570, 10623, 10665, 10666, 10535, 10615, 10658, 10609, 10682, 10703, 10711, 10800, 10712, 10826, 10819, 10738, 10774, 10705, 10516, 10472, 10445, 10349, 10466, 10676, 10525, 10432, 10592, 10441, 10636, 10588, 10642, 10450, 10565, 10605, 10629, 10716, 10502, 10603, 10642, 10614, 10546, 10470, 10594, 10608, 10412, 10550, 10407, 10549, 10382, 10604, 10486, 10606, 10595, 10573, 10652, 10613, 10719, 10560, 10622, 10599, 10560, 10478, 10491, 10395, 10439, 10396, 10363, 10382, 10390, 10457, 10271, 10504, 10451, 10535, 10403, 10465, 10426, 10455, 10372, 10444, 10454, 10433, 10394, 10435, 10457, 10616, 10704, 10569, 10675, 10618, 10638, 10610, 10673, 10715, 10632, 10595, 10566, 10633, 10551, 10451, 10475, 10504, 10461, 10324, 10414, 10459, 10437, 10316, 10358, 10416, 10511, 10410, 10484, 10679, 10485, 10692, 10672, 10689, 10686, 10739, 10613, 10556, 10486, 10606, 10492, 10380, 10460, 10449, 10530, 10480, 10393, 10383, 10569, 10548, 10613, 10638, 10916, 10627, 10667, 10592, 10609, 10643, 10624, 10640, 10643, 10621, 10604, 10634, 10509, 10691, 10619, 10614, 10685, 10547, 10750, 10602, 10502, 10451, 10623, 10572, 10597, 10652, 10631, 10498, 10541, 10313, 10395, 10361, 10422, 10475, 10514, 10496, 10448, 10547, 10501, 10587, 10531, 10569, 10586, 10498, 10510, 10545, 10650, 10490, 10648, 10588, 10545, 10570, 10522, 10544, 10535, 10344, 10616, 10514, 10497, 10582, 10656, 10465, 10592, 10635, 10719, 10546, 10535, 10462, 10414, 10386, 10522, 10303, 10408, 10323, 10376, 10362, 10278, 10423, 10435, 10435, 10599, 10483, 10564, 10532, 10765, 10543, 10541, 10531, 10546, 10681, 10606, 10589, 10692, 10762, 10537, 10570, 10384, 10395, 10433, 10462, 10476, 10470, 10364, 10394, 10585, 10436, 10425],
