{
  "AcquisitionMatrixPE": 106,
  "AcquisitionNumber": 1,
  "AcquisitionTime": "14:49:17.190000",
  "BandwidthPerPixelPhaseEncode": 16.846,
  "BaseResolution": 106,
  "BodyPartExamined": "BRAIN",
  "CoilCombinationMethod": "Sum of Squares",
  "ConsistencyInfo": "N4_VE11C_LATEST_20160120",
  "ConversionSoftware": "dcm2niix",
  "ConversionSoftwareVersion": "v1.0.20220720",
  "DerivedVendorReportedEchoSpacing": 0.000560012,
  "DeviceSerialNumber": "166108",
  "DwellTime": 1.8e-06,
  "EchoTime": 0.0352,
  "EchoTrainLength": 106,
  "EffectiveEchoSpacing": 0.000560012,
  "FlipAngle": 60,
  "HeudiconvVersion": "1.3.0",
  "ImageComments": "Unaliased MB4/PE3/LB",
  "ImageOrientationPatientDICOM": [1, 0, 0, 0, 1, 0],
  "ImageOrientationText": "Tra",
  "ImageType": [
    "ORIGINAL",
    "PRIMARY",
    "M",
    "MB",
    "ND",
    "MOSAIC"
],
  "ImagingFrequency": 123.244,
  "InPlanePhaseEncodingDirectionDICOM": "COL",
  "InstitutionAddress": "Bedford Way 26,London,London,GB,WC1H 0AP",
  "InstitutionName": "University College",
  "InstitutionalDepartmentName": "Department",
  "MRAcquisitionType": "2D",
  "MagneticFieldStrength": 3,
  "Manufacturer": "Siemens",
  "ManufacturersModelName": "Prisma",
  "MatrixCoilMode": "SENSE",
  "Modality": "MR",
  "MultibandAccelerationFactor": 4,
  "NonlinearGradientCorrection": false,
  "PartialFourier": 1,
  "PatientPosition": "HFS",
  "PercentPhaseFOV": 100,
  "PercentSampling": 100,
  "PhaseEncodingDirection": "j-",
  "PhaseEncodingSteps": 106,
  "PhaseResolution": 1,
  "PixelBandwidth": 2620,
  "ProcedureStepDescription": "Egor^MovieProject2",
  "ProtocolName": "task-backtothefuture_run-1",
  "PulseSequenceDetails": "%CustomerSeq%\\cmrr_mbep2d_bold",
  "ReceiveCoilActiveElements": "HEA;HEP",
  "ReceiveCoilName": "Head_32",
  "ReconMatrixPE": 106,
  "RepetitionTime": 1.5,
  "SAR": 0.0752264,
  "ScanOptions": "FS\\EXT",
  "ScanningSequence": "EP",
  "SequenceName": "epfid2d1_106",
  "SequenceVariant": "SK\\SS",
  "SeriesDescription": "task-backtothefuture_run-1",
  "SeriesNumber": 3,
  "ShimSetting": [-1577, 628, 7488, 367, -19, 68, 136, 23],
  "SliceThickness": 2,
  "SliceTiming": [0, 1.07, 0.66, 0.2475, 1.3175, 0.905, 0.495, 0.0825, 1.1525, 0.74, 0.33, 1.4, 0.9875, 0.5775, 0.165, 1.235, 0.8225, 0.4125, 0, 1.07, 0.66, 0.2475, 1.3175, 0.905, 0.495, 0.0825, 1.1525, 0.74, 0.33, 1.4, 0.9875, 0.5775, 0.165, 1.235, 0.8225, 0.4125, 0, 1.07, 0.66, 0.2475, 1.3175, 0.905, 0.495, 0.0825, 1.1525, 0.74, 0.33, 1.4, 0.9875, 0.5775, 0.165, 1.235, 0.8225, 0.4125, 0, 1.07, 0.66, 0.2475, 1.3175, 0.905, 0.495, 0.0825, 1.1525, 0.74, 0.33, 1.4, 0.9875, 0.5775, 0.165, 1.235, 0.8225, 0.4125],
  "SoftwareVersions": "syngo MR E11",
  "SpacingBetweenSlices": 2,
  "StationName": "AWP166108",
  "TaskName": "backtothefuture",
  "TotalReadoutTime": 0.0588013,
  "TxRefAmp": 243.158,
  "WipMemBlock": "6eaca6b8-c9dc-4682-ae56-92979ea054ba||Sequence: R016 ve11c/master r/e634e98; Dec 19 2017 11:00:25 by eja",
  "dcmmeta_affine": [
    [-2.0, 0.0, 0.0, 106.0],
    [0.0, 2.0, 0.0, -94.96385955810547],
    [0.0, 0.0, 2.0, -51.1204833984375],
    [0.0, 0.0, 0.0, 1.0]
],
  "dcmmeta_reorient_transform": [
    [0.0, -1.0, 0.0, 105.0],
    [1.0, 0.0, 0.0, 0.0],
    [0.0, 0.0, 1.0, 0.0],
    [0.0, 0.0, 0.0, 1.0]
],
  "dcmmeta_shape": [106, 106, 72, 1323],
  "dcmmeta_slice_dim": 2,
  "dcmmeta_version": 0.6,
  "global": {
    "const": {
      "AcquisitionMatrix": [106, 0, 0, 106],
      "AngioFlag": "N",
      "BitsAllocated": 16,
      "BitsStored": 16,
      "BodyPartExamined": "BRAIN",
      "CardiacNumberOfImages": 1,
      "Columns": 954,
      "EchoNumbers": 1,
      "EchoTime": 35.2,
      "EchoTrainLength": 106,
      "FlipAngle": 60.0,
      "HighBit": 15,
      "ImageOrientationPatient": [1.0, 0.0, 0.0, 0.0, 1.0, 0.0],
      "ImagePositionPatient": [-954.0, -963.03614425659, -51.120483398438],
      "ImageType": [
        "ORIGINAL",
        "PRIMARY",
        "M",
        "MB",
        "ND",
        "MOSAIC"
],
      "ImagedNucleus": "1H",
      "ImagingFrequency": 123.243636,
      "InPlanePhaseEncodingDirection": "COL",
      "MRAcquisitionType": "2D",
      "MagneticFieldStrength": 3.0,
      "Manufacturer": "SIEMENS",
      "ManufacturerModelName": "Prisma",
      "Modality": "MR",
      "NominalInterval": 0,
      "NumberOfAverages": 1.0,
      "NumberOfPhaseEncodingSteps": 106,
      "PercentPhaseFieldOfView": 100.0,
      "PercentSampling": 100.0,
      "PerformedProcedureStepStartTime": "142513.391000",
      "PhotometricInterpretation": "MONOCHROME2",
      "PixelBandwidth": 2620.0,
      "PixelRepresentation": 0,
      "PixelSpacing": [2.0, 2.0],
      "ProtocolName": "task-backtothefuture_run-1",
      "RepetitionTime": 1500.0,
      "Rows": 954,
      "SAR": 0.07522639147224,
      "SamplesPerPixel": 1,
      "ScanOptions": [
        "FS",
        "EXT"
],
      "ScanningSequence": "EP",
      "SequenceName": "epfid2d1_106",
      "SequenceVariant": [
        "SK",
        "SS"
],
      "SeriesDescription": "task-backtothefuture_run-1",
      "SeriesNumber": 3,
      "SeriesTime": "145015.870000",
      "SliceLocation": -51.120483398438,
      "SliceThickness": 2.0,
      "SmallestImagePixelValue": 0,
      "SoftwareVersions": "syngo MR E11",
      "SpacingBetweenSlices": 2.0,
      "SpecificCharacterSet": "ISO_IR 100",
      "StudyID": "1",
      "StudyTime": "142513.327000",
      "TransmitCoilName": "Body",
      "VariableFlipAngleFlag": "N",
      "WindowCenterWidthExplanation": "Algo1",
      "dBdt": 0.0},
    "slices": {}
  },
  "time": {
    "samples": {
      "AcquisitionNumber": [1, 2, 3, 4, 5, 6, 7, 8, 9, 10, 11, 12, 13, 14, 15, 16, 17, 18, 19, 20, 21, 22, 23, 24, 25, 26, 27, 28, 29, 30, 31, 32, 33, 34, 35, 36, 37, 38, 39, 40, 41, 42, 43, 44, 45, 46, 47, 48, 49, 50, 51, 52, 53, 54, 55, 56, 57, 58, 59, 60, 61, 62, 63, 64, 65, 66, 67, 68, 69, 70, 71, 72, 73, 74, 75, 76, 77, 78, 79, 80, 81, 82, 83, 84, 85, 86, 87, 88, 89, 90, 91, 92, 93, 94, 95, 96, 97, 98, 99, 100, 101, 102, 103, 104, 105, 106, 107, 108, 109, 110, 111, 112, 113, 114, 115, 116, 117, 118, 119, 120, 121, 122, 123, 124, 125, 126, 127, 128, 129, 130, 131, 132, 133, 134, 135, 136, 137, 138, 139, 140, 141, 142, 143, 144, 145, 146, 147, 148, 149, 150, 151, 152, 153, 154, 155, 156, 157, 158, 159, 160, 161, 162, 163, 164, 165, 166, 167, 168, 169, 170, 171, 172, 173, 174, 175, 176, 177, 178, 179, 180, 181, 182, 183, 184, 185, 186, 187, 188, 189, 190, 191, 192, 193, 194, 195, 196, 197, 198, 199, 200, 201, 202, 203, 204, 205, 206, 207, 208, 209, 210, 211, 212, 213, 214, 215, 216, 217, 218, 219, 220, 221, 222, 223, 224, 225, 226, 227, 228, 229, 230, 231, 232, 233, 234, 235, 236, 237, 238, 239, 240, 241, 242, 243, 244, 245, 246, 247, 248, 249, 250, 251, 252, 253, 254, 255, 256, 257, 258, 259, 260, 261, 262, 263, 264, 265, 266, 267, 268, 269, 270, 271, 272, 273, 274, 275, 276, 277, 278, 279, 280, 281, 282, 283, 284, 285, 286, 287, 288, 289, 290, 291, 292, 293, 294, 295, 296, 297, 298, 299, 300, 301, 302, 303, 304, 305, 306, 307, 308, 309, 310, 311, 312, 313, 314, 315, 316, 317, 318, 319, 320, 321, 322, 323, 324, 325, 326, 327, 328, 329, 330, 331, 332, 333, 334, 335, 336, 337, 338, 339, 340, 341, 342, 343, 344, 345, 346, 347, 348, 349, 350, 351, 352, 353, 354, 355, 356, 357, 358, 359, 360, 361, 362, 363, 364, 365, 366, 367, 368, 369, 370, 371, 372, 373, 374, 375, 376, 377, 378, 379, 380, 381, 382, 383, 384, 385, 386, 387, 388, 389, 390, 391, 392, 393, 394, 395, 396, 397, 398, 399, 400, 401, 402, 403, 404, 405, 406, 407, 408, 409, 410, 411, 412, 413, 414, 415, 416, 417, 418, 419, 420, 421, 422, 423, 424, 425, 426, 427, 428, 429, 430, 431, 432, 433, 434, 435, 436, 437, 438, 439, 440, 441, 442, 443, 444, 445, 446, 447, 448, 449, 450, 451, 452, 453, 454, 455, 456, 457, 458, 459, 460, 461, 462, 463, 464, 465, 466, 467, 468, 469, 470, 471, 472, 473, 474, 475, 476, 477, 478, 479, 480, 481, 482, 483, 484, 485, 486, 487, 488, 489, 490, 491, 492, 493, 494, 495, 496, 497, 498, 499, 500, 501, 502, 503, 504, 505, 506, 507, 508, 509, 510, 511, 512, 513, 514, 515, 516, 517, 518, 519, 520, 521, 522, 523, 524, 525, 526, 527, 528, 529, 530, 531, 532, 533, 534, 535, 536, 537, 538, 539, 540, 541, 542, 543, 544, 545, 546, 547, 548, 549, 550, 551, 552, 553, 554, 555, 556, 557, 558, 559, 560, 561, 562, 563, 564, 565, 566, 567, 568, 569, 570, 571, 572, 573, 574, 575, 576, 577, 578, 579, 580, 581, 582, 583, 584, 585, 586, 587, 588, 589, 590, 591, 592, 593, 594, 595, 596, 597, 598, 599, 600, 601, 602, 603, 604, 605, 606, 607, 608, 609, 610, 611, 612, 613, 614, 615, 616, 617, 618, 619, 620, 621, 622, 623, 624, 625, 626, 627, 628, 629, 630, 631, 632, 633, 634, 635, 636, 637, 638, 639, 640, 641, 642, 643, 644, 645, 646, 647, 648, 649, 650, 651, 652, 653, 654, 655, 656, 657, 658, 659, 660, 661, 662, 663, 664, 665, 666, 667, 668, 669, 670, 671, 672, 673, 674, 675, 676, 677, 678, 679, 680, 681, 682, 683, 684, 685, 686, 687, 688, 689, 690, 691, 692, 693, 694, 695, 696, 697, 698, 699, 700, 701, 702, 703, 704, 705, 706, 707, 708, 709, 710, 711, 712, 713, 714, 715, 716, 717, 718, 719, 720, 721, 722, 723, 724, 725, 726, 727, 728, 729, 730, 731, 732, 733, 734, 735, 736, 737, 738, 739, 740, 741, 742, 743, 744, 745, 746, 747, 748, 749, 750, 751, 752, 753, 754, 755, 756, 757, 758, 759, 760, 761, 762, 763, 764, 765, 766, 767, 768, 769, 770, 771, 772, 773, 774, 775, 776, 777, 778, 779, 780, 781, 782, 783, 784, 785, 786, 787, 788, 789, 790, 791, 792, 793, 794, 795, 796, 797, 798, 799, 800, 801, 802, 803, 804, 805, 806, 807, 808, 809, 810, 811, 812, 813, 814, 815, 816, 817, 818, 819, 820, 821, 822, 823, 824, 825, 826, 827, 828, 829, 830, 831, 832, 833, 834, 835, 836, 837, 838, 839, 840, 841, 842, 843, 844, 845, 846, 847, 848, 849, 850, 851, 852, 853, 854, 855, 856, 857, 858, 859, 860, 861, 862, 863, 864, 865, 866, 867, 868, 869, 870, 871, 872, 873, 874, 875, 876, 877, 878, 879, 880, 881, 882, 883, 884, 885, 886, 887, 888, 889, 890, 891, 892, 893, 894, 895, 896, 897, 898, 899, 900, 901, 902, 903, 904, 905, 906, 907, 908, 909, 910, 911, 912, 913, 914, 915, 916, 917, 918, 919, 920, 921, 922, 923, 924, 925, 926, 927, 928, 929, 930, 931, 932, 933, 934, 935, 936, 937, 938, 939, 940, 941, 942, 943, 944, 945, 946, 947, 948, 949, 950, 951, 952, 953, 954, 955, 956, 957, 958, 959, 960, 961, 962, 963, 964, 965, 966, 967, 968, 969, 970, 971, 972, 973, 974, 975, 976, 977, 978, 979, 980, 981, 982, 983, 984, 985, 986, 987, 988, 989, 990, 991, 992, 993, 994, 995, 996, 997, 998, 999, 1000, 1001, 1002, 1003, 1004, 1005, 1006, 1007, 1008, 1009, 1010, 1011, 1012, 1013, 1014, 1015, 1016, 1017, 1018, 1019, 1020, 1021, 1022, 1023, 1024, 1025, 1026, 1027, 1028, 1029, 1030, 1031, 1032, 1033, 1034, 1035, 1036, 1037, 1038, 1039, 1040, 1041, 1042, 1043, 1044, 1045, 1046, 1047, 1048, 1049, 1050, 1051, 1052, 1053, 1054, 1055, 1056, 1057, 1058, 1059, 1060, 1061, 1062, 1063, 1064, 1065, 1066, 1067, 1068, 1069, 1070, 1071, 1072, 1073, 1074, 1075, 1076, 1077, 1078, 1079, 1080, 1081, 1082, 1083, 1084, 1085, 1086, 1087, 1088, 1089, 1090, 1091, 1092, 1093, 1094, 1095, 1096, 1097, 1098, 1099, 1100, 1101, 1102, 1103, 1104, 1105, 1106, 1107, 1108, 1109, 1110, 1111, 1112, 1113, 1114, 1115, 1116, 1117, 1118, 1119, 1120, 1121, 1122, 1123, 1124, 1125, 1126, 1127, 1128, 1129, 1130, 1131, 1132, 1133, 1134, 1135, 1136, 1137, 1138, 1139, 1140, 1141, 1142, 1143, 1144, 1145, 1146, 1147, 1148, 1149, 1150, 1151, 1152, 1153, 1154, 1155, 1156, 1157, 1158, 1159, 1160, 1161, 1162, 1163, 1164, 1165, 1166, 1167, 1168, 1169, 1170, 1171, 1172, 1173, 1174, 1175, 1176, 1177, 1178, 1179, 1180, 1181, 1182, 1183, 1184, 1185, 1186, 1187, 1188, 1189, 1190, 1191, 1192, 1193, 1194, 1195, 1196, 1197, 1198, 1199, 1200, 1201, 1202, 1203, 1204, 1205, 1206, 1207, 1208, 1209, 1210, 1211, 1212, 1213, 1214, 1215, 1216, 1217, 1218, 1219, 1220, 1221, 1222, 1223, 1224, 1225, 1226, 1227, 1228, 1229, 1230, 1231, 1232, 1233, 1234, 1235, 1236, 1237, 1238, 1239, 1240, 1241, 1242, 1243, 1244, 1245, 1246, 1247, 1248, 1249, 1250, 1251, 1252, 1253, 1254, 1255, 1256, 1257, 1258, 1259, 1260, 1261, 1262, 1263, 1264, 1265, 1266, 1267, 1268, 1269, 1270, 1271, 1272, 1273, 1274, 1275, 1276, 1277, 1278, 1279, 1280, 1281, 1282, 1283, 1284, 1285, 1286, 1287, 1288, 1289, 1290, 1291, 1292, 1293, 1294, 1295, 1296, 1297, 1298, 1299, 1300, 1301, 1302, 1303, 1304, 1305, 1306, 1307, 1308, 1309, 1310, 1311, 1312, 1313, 1314, 1315, 1316, 1317, 1318, 1319, 1320, 1321, 1322, 1323],
      "AcquisitionTime": ["144917.190000", "144918.690000", "144920.190000", "144921.690000", "144923.190000", "144924.690000", "144926.190000", "144927.690000", "144929.190000", "144930.690000", "144932.190000", "144933.690000", "144935.190000", "144936.690000", "144938.190000", "144939.690000", "144941.190000", "144942.690000", "144944.190000", "144945.690000", "144947.190000", "144948.690000", "144950.190000", "144951.690000", "144953.190000", "144954.690000", "144956.190000", "144957.690000", "144959.190000", "145000.690000", "145002.190000", "145003.690000", "145005.190000", "145006.690000", "145008.190000", "145009.690000", "145011.190000", "145012.690000", "145014.190000", "145015.690000", "145017.190000", "145018.690000", "145020.190000", "145021.690000", "145023.190000", "145024.690000", "145026.190000", "145027.690000", "145029.190000", "145030.690000", "145032.190000", "145033.690000", "145035.190000", "145036.690000", "145038.190000", "145039.690000", "145041.190000", "145042.690000", "145044.190000", "145045.690000", "145047.190000", "145048.690000", "145050.190000", "145051.690000", "145053.190000", "145054.690000", "145056.190000", "145057.690000", "145059.190000", "145100.690000", "145102.190000", "145103.690000", "145105.190000", "145106.690000", "145108.190000", "145109.690000", "145111.190000", "145112.690000", "145114.190000", "145115.690000", "145117.190000", "145118.690000", "145120.190000", "145121.690000", "145123.190000", "145124.690000", "145126.190000", "145127.690000", "145129.190000", "145130.690000", "145132.190000", "145133.690000", "145135.190000", "145136.690000", "145138.190000", "145139.690000", "145141.190000", "145142.690000", "145144.190000", "145145.690000", "145147.190000", "145148.690000", "145150.190000", "145151.690000", "145153.190000", "145154.690000", "145156.190000", "145157.690000", "145159.190000", "145200.690000", "145202.190000", "145203.690000", "145205.190000", "145206.690000", "145208.190000", "145209.690000", "145211.190000", "145212.690000", "145214.190000", "145215.690000", "145217.190000", "145218.690000", "145220.190000", "145221.690000", "145223.190000", "145224.690000", "145226.190000", "145227.690000", "145229.190000", "145230.690000", "145232.190000", "145233.690000", "145235.190000", "145236.690000", "145238.190000", "145239.690000", "145241.190000", "145242.690000", "145244.190000", "145245.690000", "145247.190000", "145248.690000", "145250.190000", "145251.690000", "145253.190000", "145254.690000", "145256.190000", "145257.690000", "145259.190000", "145300.690000", "145302.190000", "145303.690000", "145305.190000", "145306.690000", "145308.190000", "145309.690000", "145311.190000", "145312.690000", "145314.190000", "145315.690000", "145317.190000", "145318.690000", "145320.190000", "145321.690000", "145323.190000", "145324.690000", "145326.190000", "145327.690000", "145329.190000", "145330.690000", "145332.190000", "145333.690000", "145335.190000", "145336.690000", "145338.190000", "145339.690000", "145341.190000", "145342.690000", "145344.190000", "145345.690000", "145347.190000", "145348.690000", "145350.190000", "145351.690000", "145353.190000", "145354.690000", "145356.190000", "145357.690000", "145359.190000", "145400.690000", "145402.190000", "145403.690000", "145405.190000", "145406.690000", "145408.190000", "145409.690000", "145411.190000", "145412.690000", "145414.190000", "145415.690000", "145417.190000", "145418.690000", "145420.190000", "145421.690000", "145423.190000", "145424.690000", "145426.190000", "145427.690000", "145429.190000", "145430.690000", "145432.190000", "145433.690000", "145435.190000", "145436.690000", "145438.190000", "145439.690000", "145441.190000", "145442.690000", "145444.190000", "145445.690000", "145447.190000", "145448.690000", "145450.190000", "145451.690000", "145453.190000", "145454.690000", "145456.190000", "145457.690000", "145459.190000", "145500.690000", "145502.190000", "145503.690000", "145505.190000", "145506.690000", "145508.190000", "145509.690000", "145511.190000", "145512.690000", "145514.190000", "145515.690000", "145517.190000", "145518.690000", "145520.190000", "145521.690000", "145523.190000", "145524.690000", "145526.190000", "145527.690000", "145529.190000", "145530.690000", "145532.190000", "145533.690000", "145535.190000", "145536.690000", "145538.190000", "145539.690000", "145541.190000", "145542.690000", "145544.190000", "145545.690000", "145547.190000", "145548.690000", "145550.190000", "145551.690000", "145553.190000", "145554.690000", "145556.190000", "145557.690000", "145559.190000", "145600.690000", "145602.190000", "145603.690000", "145605.190000", "145606.690000", "145608.190000", "145609.690000", "145611.190000", "145612.690000", "145614.190000", "145615.690000", "145617.190000", "145618.690000", "145620.190000", "145621.690000", "145623.190000", "145624.690000", "145626.190000", "145627.690000", "145629.190000", "145630.690000", "145632.190000", "145633.690000", "145635.190000", "145636.690000", "145638.190000", "145639.690000", "145641.190000", "145642.690000", "145644.190000", "145645.690000", "145647.190000", "145648.690000", "145650.190000", "145651.690000", "145653.190000", "145654.690000", "145656.190000", "145657.690000", "145659.190000", "145700.690000", "145702.190000", "145703.690000", "145705.190000", "145706.690000", "145708.190000", "145709.690000", "145711.190000", "145712.690000", "145714.190000", "145715.690000", "145717.190000", "145718.690000", "145720.190000", "145721.690000", "145723.190000", "145724.690000", "145726.190000", "145727.690000", "145729.190000", "145730.690000", "145732.190000", "145733.690000", "145735.190000", "145736.690000", "145738.190000", "145739.690000", "145741.190000", "145742.690000", "145744.190000", "145745.690000", "145747.190000", "145748.690000", "145750.190000", "145751.690000", "145753.190000", "145754.690000", "145756.190000", "145757.690000", "145759.190000", "145800.690000", "145802.190000", "145803.690000", "145805.190000", "145806.690000", "145808.190000", "145809.690000", "145811.190000", "145812.690000", "145814.190000", "145815.690000", "145817.190000", "145818.690000", "145820.190000", "145821.690000", "145823.190000", "145824.690000", "145826.190000", "145827.690000", "145829.190000", "145830.690000", "145832.190000", "145833.690000", "145835.190000", "145836.690000", "145838.190000", "145839.690000", "145841.190000", "145842.690000", "145844.190000", "145845.690000", "145847.190000", "145848.690000", "145850.190000", "145851.690000", "145853.190000", "145854.690000", "145856.190000", "145857.690000", "145859.190000", "145900.690000", "145902.190000", "145903.690000", "145905.190000", "145906.690000", "145908.190000", "145909.690000", "145911.190000", "145912.690000", "145914.190000", "145915.690000", "145917.190000", "145918.690000", "145920.190000", "145921.690000", "145923.190000", "145924.690000", "145926.190000", "145927.690000", "145929.190000", "145930.690000", "145932.190000", "145933.690000", "145935.190000", "145936.690000", "145938.190000", "145939.690000", "145941.190000", "145942.690000", "145944.190000", "145945.690000", "145947.190000", "145948.690000", "145950.190000", "145951.690000", "145953.190000", "145954.690000", "145956.190000", "145957.690000", "145959.190000", "150000.690000", "150002.190000", "150003.690000", "150005.190000", "150006.690000", "150008.190000", "150009.690000", "150011.190000", "150012.690000", "150014.190000", "150015.690000", "150017.190000", "150018.690000", "150020.190000", "150021.690000", "150023.190000", "150024.690000", "150026.190000", "150027.690000", "150029.190000", "150030.690000", "150032.190000", "150033.690000", "150035.190000", "150036.690000", "150038.190000", "150039.690000", "150041.190000", "150042.690000", "150044.190000", "150045.690000", "150047.190000", "150048.690000", "150050.190000", "150051.690000", "150053.190000", "150054.690000", "150056.190000", "150057.690000", "150059.190000", "150100.690000", "150102.190000", "150103.690000", "150105.190000", "150106.690000", "150108.190000", "150109.690000", "150111.190000", "150112.690000", "150114.190000", "150115.690000", "150117.190000", "150118.690000", "150120.190000", "150121.690000", "150123.190000", "150124.690000", "150126.190000", "150127.690000", "150129.190000", "150130.690000", "150132.190000", "150133.690000", "150135.190000", "150136.690000", "150138.190000", "150139.690000", "150141.190000", "150142.690000", "150144.190000", "150145.690000", "150147.190000", "150148.690000", "150150.190000", "150151.690000", "150153.190000", "150154.690000", "150156.190000", "150157.690000", "150159.190000", "150200.690000", "150202.190000", "150203.690000", "150205.190000", "150206.690000", "150208.190000", "150209.690000", "150211.190000", "150212.690000", "150214.190000", "150215.690000", "150217.190000", "150218.690000", "150220.190000", "150221.690000", "150223.190000", "150224.690000", "150226.190000", "150227.690000", "150229.190000", "150230.690000", "150232.190000", "150233.690000", "150235.190000", "150236.690000", "150238.190000", "150239.690000", "150241.190000", "150242.690000", "150244.190000", "150245.690000", "150247.190000", "150248.690000", "150250.190000", "150251.690000", "150253.190000", "150254.690000", "150256.190000", "150257.690000", "150259.190000", "150300.690000", "150302.190000", "150303.690000", "150305.190000", "150306.690000", "150308.190000", "150309.690000", "150311.190000", "150312.690000", "150314.190000", "150315.690000", "150317.190000", "150318.690000", "150320.190000", "150321.690000", "150323.190000", "150324.690000", "150326.190000", "150327.690000", "150329.190000", "150330.690000", "150332.190000", "150333.690000", "150335.190000", "150336.690000", "150338.190000", "150339.690000", "150341.190000", "150342.690000", "150344.190000", "150345.690000", "150347.190000", "150348.690000", "150350.190000", "150351.690000", "150353.190000", "150354.690000", "150356.190000", "150357.690000", "150359.190000", "150400.690000", "150402.190000", "150403.690000", "150405.190000", "150406.690000", "150408.190000", "150409.690000", "150411.190000", "150412.690000", "150414.190000", "150415.690000", "150417.190000", "150418.690000", "150420.190000", "150421.690000", "150423.190000", "150424.690000", "150426.190000", "150427.690000", "150429.190000", "150430.690000", "150432.190000", "150433.690000", "150435.190000", "150436.690000", "150438.190000", "150439.690000", "150441.190000", "150442.690000", "150444.190000", "150445.690000", "150447.190000", "150448.690000", "150450.190000", "150451.690000", "150453.190000", "150454.690000", "150456.190000", "150457.690000", "150459.190000", "150500.690000", "150502.190000", "150503.690000", "150505.190000", "150506.690000", "150508.190000", "150509.690000", "150511.190000", "150512.690000", "150514.190000", "150515.690000", "150517.190000", "150518.690000", "150520.190000", "150521.690000", "150523.190000", "150524.690000", "150526.190000", "150527.690000", "150529.190000", "150530.690000", "150532.190000", "150533.690000", "150535.190000", "150536.690000", "150538.190000", "150539.690000", "150541.190000", "150542.690000", "150544.190000", "150545.690000", "150547.190000", "150548.690000", "150550.190000", "150551.690000", "150553.190000", "150554.690000", "150556.190000", "150557.690000", "150559.190000", "150600.690000", "150602.190000", "150603.690000", "150605.190000", "150606.690000", "150608.190000", "150609.690000", "150611.190000", "150612.690000", "150614.190000", "150615.690000", "150617.190000", "150618.690000", "150620.190000", "150621.690000", "150623.190000", "150624.690000", "150626.190000", "150627.690000", "150629.190000", "150630.690000", "150632.190000", "150633.690000", "150635.190000", "150636.690000", "150638.190000", "150639.690000", "150641.190000", "150642.690000", "150644.190000", "150645.690000", "150647.190000", "150648.690000", "150650.190000", "150651.690000", "150653.190000", "150654.690000", "150656.190000", "150657.690000", "150659.190000", "150700.690000", "150702.190000", "150703.690000", "150705.190000", "150706.690000", "150708.190000", "150709.690000", "150711.190000", "150712.690000", "150714.190000", "150715.690000", "150717.190000", "150718.690000", "150720.190000", "150721.690000", "150723.190000", "150724.690000", "150726.190000", "150727.690000", "150729.190000", "150730.690000", "150732.190000", "150733.690000", "150735.190000", "150736.690000", "150738.190000", "150739.690000", "150741.190000", "150742.690000", "150744.190000", "150745.690000", "150747.190000", "150748.690000", "150750.190000", "150751.690000", "150753.190000", "150754.690000", "150756.190000", "150757.690000", "150759.190000", "150800.690000", "150802.190000", "150803.690000", "150805.190000", "150806.690000", "150808.190000", "150809.690000", "150811.190000", "150812.690000", "150814.190000", "150815.690000", "150817.190000", "150818.690000", "150820.190000", "150821.690000", "150823.190000", "150824.690000", "150826.190000", "150827.690000", "150829.190000", "150830.690000", "150832.190000", "150833.690000", "150835.190000", "150836.690000", "150838.190000", "150839.690000", "150841.190000", "150842.690000", "150844.190000", "150845.690000", "150847.190000", "150848.690000", "150850.190000", "150851.690000", "150853.190000", "150854.690000", "150856.190000", "150857.690000", "150859.190000", "150900.690000", "150902.190000", "150903.690000", "150905.190000", "150906.690000", "150908.190000", "150909.690000", "150911.190000", "150912.690000", "150914.190000", "150915.690000", "150917.190000", "150918.690000", "150920.190000", "150921.690000", "150923.190000", "150924.690000", "150926.190000", "150927.690000", "150929.190000", "150930.690000", "150932.190000", "150933.690000", "150935.190000", "150936.690000", "150938.190000", "150939.690000", "150941.190000", "150942.690000", "150944.190000", "150945.690000", "150947.190000", "150948.690000", "150950.190000", "150951.690000", "150953.190000", "150954.690000", "150956.190000", "150957.690000", "150959.190000", "151000.690000", "151002.190000", "151003.690000", "151005.190000", "151006.690000", "151008.190000", "151009.690000", "151011.190000", "151012.690000", "151014.190000", "151015.690000", "151017.190000", "151018.690000", "151020.190000", "151021.690000", "151023.190000", "151024.690000", "151026.190000", "151027.690000", "151029.190000", "151030.690000", "151032.190000", "151033.690000", "151035.190000", "151036.690000", "151038.190000", "151039.690000", "151041.190000", "151042.690000", "151044.190000", "151045.690000", "151047.190000", "151048.690000", "151050.190000", "151051.690000", "151053.190000", "151054.690000", "151056.190000", "151057.690000", "151059.190000", "151100.690000", "151102.190000", "151103.690000", "151105.190000", "151106.690000", "151108.190000", "151109.690000", "151111.190000", "151112.690000", "151114.190000", "151115.690000", "151117.190000", "151118.690000", "151120.190000", "151121.690000", "151123.190000", "151124.690000", "151126.190000", "151127.690000", "151129.190000", "151130.690000", "151132.190000", "151133.690000", "151135.190000", "151136.690000", "151138.190000", "151139.690000", "151141.190000", "151142.690000", "151144.190000", "151145.690000", "151147.190000", "151148.690000", "151150.190000", "151151.690000", "151153.190000", "151154.690000", "151156.190000", "151157.690000", "151159.190000", "151200.690000", "151202.190000", "151203.690000", "151205.190000", "151206.690000", "151208.190000", "151209.690000", "151211.190000", "151212.690000", "151214.190000", "151215.690000", "151217.190000", "151218.690000", "151220.190000", "151221.690000", "151223.190000", "151224.690000", "151226.190000", "151227.690000", "151229.190000", "151230.690000", "151232.190000", "151233.690000", "151235.190000", "151236.690000", "151238.190000", "151239.690000", "151241.190000", "151242.690000", "151244.190000", "151245.690000", "151247.190000", "151248.690000", "151250.190000", "151251.690000", "151253.190000", "151254.690000", "151256.190000", "151257.690000", "151259.190000", "151300.690000", "151302.190000", "151303.690000", "151305.190000", "151306.690000", "151308.190000", "151309.690000", "151311.190000", "151312.690000", "151314.190000", "151315.690000", "151317.190000", "151318.690000", "151320.190000", "151321.690000", "151323.190000", "151324.690000", "151326.190000", "151327.690000", "151329.190000", "151330.690000", "151332.190000", "151333.690000", "151335.190000", "151336.690000", "151338.190000", "151339.690000", "151341.190000", "151342.690000", "151344.190000", "151345.690000", "151347.190000", "151348.690000", "151350.190000", "151351.690000", "151353.190000", "151354.690000", "151356.190000", "151357.690000", "151359.190000", "151400.690000", "151402.190000", "151403.690000", "151405.190000", "151406.690000", "151408.190000", "151409.690000", "151411.190000", "151412.690000", "151414.190000", "151415.690000", "151417.190000", "151418.690000", "151420.190000", "151421.690000", "151423.190000", "151424.690000", "151426.190000", "151427.690000", "151429.190000", "151430.690000", "151432.190000", "151433.690000", "151435.190000", "151436.690000", "151438.190000", "151439.690000", "151441.190000", "151442.690000", "151444.190000", "151445.690000", "151447.190000", "151448.690000", "151450.190000", "151451.690000", "151453.190000", "151454.690000", "151456.190000", "151457.690000", "151459.190000", "151500.690000", "151502.190000", "151503.690000", "