{
  "AcquisitionMatrixPE": 106,
  "AcquisitionNumber": 1,
  "AcquisitionTime": "15:40:11.007500",
  "BandwidthPerPixelPhaseEncode": 16.846,
  "BaseResolution": 106,
  "BodyPartExamined": "BRAIN",
  "CoilCombinationMethod": "Sum of Squares",
  "ConsistencyInfo": "N4_VE11C_LATEST_20160120",
  "ConversionSoftware": "dcm2niix",
  "ConversionSoftwareVersion": "v1.0.20220720",
  "DerivedVendorReportedEchoSpacing": 0.000560012,
  "DeviceSerialNumber": "166108",
  "DwellTime": 1.8e-06,
  "EchoTime": 0.0352,
  "EchoTrainLength": 106,
  "EffectiveEchoSpacing": 0.000560012,
  "FlipAngle": 60,
  "HeudiconvVersion": "1.3.0",
  "ImageComments": "Unaliased MB4/PE3/LB",
  "ImageOrientationPatientDICOM": [1, 0, 0, 0, 1, 0],
  "ImageOrientationText": "Tra",
  "ImageType": [
    "ORIGINAL",
    "PRIMARY",
    "M",
    "MB",
    "ND",
    "MOSAIC"
],
  "ImagingFrequency": 123.244,
  "InPlanePhaseEncodingDirectionDICOM": "COL",
  "InstitutionAddress": "Bedford Way 26,London,London,GB,WC1H 0AP",
  "InstitutionName": "University College",
  "InstitutionalDepartmentName": "Department",
  "MRAcquisitionType": "2D",
  "MagneticFieldStrength": 3,
  "Manufacturer": "Siemens",
  "ManufacturersModelName": "Prisma",
  "MatrixCoilMode": "SENSE",
  "Modality": "MR",
  "MultibandAccelerationFactor": 4,
  "NonlinearGradientCorrection": false,
  "PartialFourier": 1,
  "PatientPosition": "HFS",
  "PercentPhaseFOV": 100,
  "PercentSampling": 100,
  "PhaseEncodingDirection": "j-",
  "PhaseEncodingSteps": 106,
  "PhaseResolution": 1,
  "PixelBandwidth": 2620,
  "ProcedureStepDescription": "Egor^MovieProject2",
  "ProtocolName": "task-backtothefuture_run-2",
  "PulseSequenceDetails": "%CustomerSeq%\\cmrr_mbep2d_bold",
  "ReceiveCoilActiveElements": "HEA;HEP",
  "ReceiveCoilName": "Head_32",
  "ReconMatrixPE": 106,
  "RepetitionTime": 1.5,
  "SAR": 0.0729725,
  "ScanOptions": "FS\\EXT",
  "ScanningSequence": "EP",
  "SequenceName": "epfid2d1_106",
  "SequenceVariant": "SK\\SS",
  "SeriesDescription": "task-backtothefuture_run-2",
  "SeriesNumber": 8,
  "ShimSetting": [-1593, 614, 7473, 326, -120, -1, 97, 18],
  "SliceThickness": 2,
  "SliceTiming": [0, 1.07, 0.6575, 0.2475, 1.3175, 0.905, 0.495, 0.0825, 1.1525, 0.74, 0.33, 1.3975, 0.9875, 0.5775, 0.165, 1.235, 0.8225, 0.4125, 0, 1.07, 0.6575, 0.2475, 1.3175, 0.905, 0.495, 0.0825, 1.1525, 0.74, 0.33, 1.3975, 0.9875, 0.5775, 0.165, 1.235, 0.8225, 0.4125, 0, 1.07, 0.6575, 0.2475, 1.3175, 0.905, 0.495, 0.0825, 1.1525, 0.74, 0.33, 1.3975, 0.9875, 0.5775, 0.165, 1.235, 0.8225, 0.4125, 0, 1.07, 0.6575, 0.2475, 1.3175, 0.905, 0.495, 0.0825, 1.1525, 0.74, 0.33, 1.3975, 0.9875, 0.5775, 0.165, 1.235, 0.8225, 0.4125],
  "SoftwareVersions": "syngo MR E11",
  "SpacingBetweenSlices": 2,
  "StationName": "AWP166108",
  "TaskName": "backtothefuture",
  "TotalReadoutTime": 0.0588013,
  "TxRefAmp": 242.199,
  "WipMemBlock": "f54d3385-b1d3-477c-ace3-8b3dddeb8c92||Sequence: R016 ve11c/master r/e634e98; Dec 19 2017 11:00:25 by eja",
  "dcmmeta_affine": [
    [-2.0, 0.0, 0.0, 106.0],
    [0.0, 2.0, 0.0, -81.71084594726562],
    [0.0, 0.0, 2.0, -52.32530212402344],
    [0.0, 0.0, 0.0, 1.0]
],
  "dcmmeta_reorient_transform": [
    [0.0, -1.0, 0.0, 105.0],
    [1.0, 0.0, 0.0, 0.0],
    [0.0, 0.0, 1.0, 0.0],
    [0.0, 0.0, 0.0, 1.0]
],
  "dcmmeta_shape": [106, 106, 72, 1522],
  "dcmmeta_slice_dim": 2,
  "dcmmeta_version": 0.6,
  "global": {
    "const": {
      "AcquisitionMatrix": [106, 0, 0, 106],
      "AngioFlag": "N",
      "BitsAllocated": 16,
      "BitsStored": 16,
      "BodyPartExamined": "BRAIN",
      "CardiacNumberOfImages": 1,
      "Columns": 954,
      "EchoNumbers": 1,
      "EchoTime": 35.2,
      "EchoTrainLength": 106,
      "FlipAngle": 60.0,
      "HighBit": 15,
      "ImageOrientationPatient": [1.0, 0.0, 0.0, 0.0, 1.0, 0.0],
      "ImagePositionPatient": [-954.0, -976.28915596008, -52.325302124023],
      "ImageType": [
        "ORIGINAL",
        "PRIMARY",
        "M",
        "MB",
        "ND",
        "MOSAIC"
],
      "ImagedNucleus": "1H",
      "ImagingFrequency": 123.24367,
      "InPlanePhaseEncodingDirection": "COL",
      "MRAcquisitionType": "2D",
      "MagneticFieldStrength": 3.0,
      "Manufacturer": "SIEMENS",
      "ManufacturerModelName": "Prisma",
      "Modality": "MR",
      "NominalInterval": 0,
      "NumberOfAverages": 1.0,
      "NumberOfPhaseEncodingSteps": 106,
      "PercentPhaseFieldOfView": 100.0,
      "PercentSampling": 100.0,
      "PerformedProcedureStepStartTime": "142513.391000",
      "PhotometricInterpretation": "MONOCHROME2",
      "PixelBandwidth": 2620.0,
      "PixelRepresentation": 0,
      "PixelSpacing": [2.0, 2.0],
      "ProtocolName": "task-backtothefuture_run-2",
      "RepetitionTime": 1500.0,
      "Rows": 954,
      "SAR": 0.07297251798435,
      "SamplesPerPixel": 1,
      "ScanOptions": [
        "FS",
        "EXT"
],
      "ScanningSequence": "EP",
      "SequenceName": "epfid2d1_106",
      "SequenceVariant": [
        "SK",
        "SS"
],
      "SeriesDescription": "task-backtothefuture_run-2",
      "SeriesNumber": 8,
      "SeriesTime": "154055.867000",
      "SliceLocation": -52.325302124023,
      "SliceThickness": 2.0,
      "SmallestImagePixelValue": 0,
      "SoftwareVersions": "syngo MR E11",
      "SpacingBetweenSlices": 2.0,
      "SpecificCharacterSet": "ISO_IR 100",
      "StudyID": "1",
      "StudyTime": "142513.327000",
      "TransmitCoilName": "Body",
      "VariableFlipAngleFlag": "N",
      "WindowCenterWidthExplanation": "Algo1",
      "dBdt": 0.0},
    "slices": {}
  },
  "time": {
    "samples": {
      "AcquisitionNumber": [1, 2, 3, 4, 5, 6, 7, 8, 9, 10, 11, 12, 13, 14, 15, 16, 17, 18, 19, 20, 21, 22, 23, 24, 25, 26, 27, 28, 29, 30, 31, 32, 33, 34, 35, 36, 37, 38, 39, 40, 41, 42, 43, 44, 45, 46, 47, 48, 49, 50, 51, 52, 53, 54, 55, 56, 57, 58, 59, 60, 61, 62, 63, 64, 65, 66, 67, 68, 69, 70, 71, 72, 73, 74, 75, 76, 77, 78, 79, 80, 81, 82, 83, 84, 85, 86, 87, 88, 89, 90, 91, 92, 93, 94, 95, 96, 97, 98, 99, 100, 101, 102, 103, 104, 105, 106, 107, 108, 109, 110, 111, 112, 113, 114, 115, 116, 117, 118, 119, 120, 121, 122, 123, 124, 125, 126, 127, 128, 129, 130, 131, 132, 133, 134, 135, 136, 137, 138, 139, 140, 141, 142, 143, 144, 145, 146, 147, 148, 149, 150, 151, 152, 153, 154, 155, 156, 157, 158, 159, 160, 161, 162, 163, 164, 165, 166, 167, 168, 169, 170, 171, 172, 173, 174, 175, 176, 177, 178, 179, 180, 181, 182, 183, 184, 185, 186, 187, 188, 189, 190, 191, 192, 193, 194, 195, 196, 197, 198, 199, 200, 201, 202, 203, 204, 205, 206, 207, 208, 209, 210, 211, 212, 213, 214, 215, 216, 217, 218, 219, 220, 221, 222, 223, 224, 225, 226, 227, 228, 229, 230, 231, 232, 233, 234, 235, 236, 237, 238, 239, 240, 241, 242, 243, 244, 245, 246, 247, 248, 249, 250, 251, 252, 253, 254, 255, 256, 257, 258, 259, 260, 261, 262, 263, 264, 265, 266, 267, 268, 269, 270, 271, 272, 273, 274, 275, 276, 277, 278, 279, 280, 281, 282, 283, 284, 285, 286, 287, 288, 289, 290, 291, 292, 293, 294, 295, 296, 297, 298, 299, 300, 301, 302, 303, 304, 305, 306, 307, 308, 309, 310, 311, 312, 313, 314, 315, 316, 317, 318, 319, 320, 321, 322, 323, 324, 325, 326, 327, 328, 329, 330, 331, 332, 333, 334, 335, 336, 337, 338, 339, 340, 341, 342, 343, 344, 345, 346, 347, 348, 349, 350, 351, 352, 353, 354, 355, 356, 357, 358, 359, 360, 361, 362, 363, 364, 365, 366, 367, 368, 369, 370, 371, 372, 373, 374, 375, 376, 377, 378, 379, 380, 381, 382, 383, 384, 385, 386, 387, 388, 389, 390, 391, 392, 393, 394, 395, 396, 397, 398, 399, 400, 401, 402, 403, 404, 405, 406, 407, 408, 409, 410, 411, 412, 413, 414, 415, 416, 417, 418, 419, 420, 421, 422, 423, 424, 425, 426, 427, 428, 429, 430, 431, 432, 433, 434, 435, 436, 437, 438, 439, 440, 441, 442, 443, 444, 445, 446, 447, 448, 449, 450, 451, 452, 453, 454, 455, 456, 457, 458, 459, 460, 461, 462, 463, 464, 465, 466, 467, 468, 469, 470, 471, 472, 473, 474, 475, 476, 477, 478, 479, 480, 481, 482, 483, 484, 485, 486, 487, 488, 489, 490, 491, 492, 493, 494, 495, 496, 497, 498, 499, 500, 501, 502, 503, 504, 505, 506, 507, 508, 509, 510, 511, 512, 513, 514, 515, 516, 517, 518, 519, 520, 521, 522, 523, 524, 525, 526, 527, 528, 529, 530, 531, 532, 533, 534, 535, 536, 537, 538, 539, 540, 541, 542, 543, 544, 545, 546, 547, 548, 549, 550, 551, 552, 553, 554, 555, 556, 557, 558, 559, 560, 561, 562, 563, 564, 565, 566, 567, 568, 569, 570, 571, 572, 573, 574, 575, 576, 577, 578, 579, 580, 581, 582, 583, 584, 585, 586, 587, 588, 589, 590, 591, 592, 593, 594, 595, 596, 597, 598, 599, 600, 601, 602, 603, 604, 605, 606, 607, 608, 609, 610, 611, 612, 613, 614, 615, 616, 617, 618, 619, 620, 621, 622, 623, 624, 625, 626, 627, 628, 629, 630, 631, 632, 633, 634, 635, 636, 637, 638, 639, 640, 641, 642, 643, 644, 645, 646, 647, 648, 649, 650, 651, 652, 653, 654, 655, 656, 657, 658, 659, 660, 661, 662, 663, 664, 665, 666, 667, 668, 669, 670, 671, 672, 673, 674, 675, 676, 677, 678, 679, 680, 681, 682, 683, 684, 685, 686, 687, 688, 689, 690, 691, 692, 693, 694, 695, 696, 697, 698, 699, 700, 701, 702, 703, 704, 705, 706, 707, 708, 709, 710, 711, 712, 713, 714, 715, 716, 717, 718, 719, 720, 721, 722, 723, 724, 725, 726, 727, 728, 729, 730, 731, 732, 733, 734, 735, 736, 737, 738, 739, 740, 741, 742, 743, 744, 745, 746, 747, 748, 749, 750, 751, 752, 753, 754, 755, 756, 757, 758, 759, 760, 761, 762, 763, 764, 765, 766, 767, 768, 769, 770, 771, 772, 773, 774, 775, 776, 777, 778, 779, 780, 781, 782, 783, 784, 785, 786, 787, 788, 789, 790, 791, 792, 793, 794, 795, 796, 797, 798, 799, 800, 801, 802, 803, 804, 805, 806, 807, 808, 809, 810, 811, 812, 813, 814, 815, 816, 817, 818, 819, 820, 821, 822, 823, 824, 825, 826, 827, 828, 829, 830, 831, 832, 833, 834, 835, 836, 837, 838, 839, 840, 841, 842, 843, 844, 845, 846, 847, 848, 849, 850, 851, 852, 853, 854, 855, 856, 857, 858, 859, 860, 861, 862, 863, 864, 865, 866, 867, 868, 869, 870, 871, 872, 873, 874, 875, 876, 877, 878, 879, 880, 881, 882, 883, 884, 885, 886, 887, 888, 889, 890, 891, 892, 893, 894, 895, 896, 897, 898, 899, 900, 901, 902, 903, 904, 905, 906, 907, 908, 909, 910, 911, 912, 913, 914, 915, 916, 917, 918, 919, 920, 921, 922, 923, 924, 925, 926, 927, 928, 929, 930, 931, 932, 933, 934, 935, 936, 937, 938, 939, 940, 941, 942, 943, 944, 945, 946, 947, 948, 949, 950, 951, 952, 953, 954, 955, 956, 957, 958, 959, 960, 961, 962, 963, 964, 965, 966, 967, 968, 969, 970, 971, 972, 973, 974, 975, 976, 977, 978, 979, 980, 981, 982, 983, 984, 985, 986, 987, 988, 989, 990, 991, 992, 993, 994, 995, 996, 997, 998, 999, 1000, 1001, 1002, 1003, 1004, 1005, 1006, 1007, 1008, 1009, 1010, 1011, 1012, 1013, 1014, 1015, 1016, 1017, 1018, 1019, 1020, 1021, 1022, 1023, 1024, 1025, 1026, 1027, 1028, 1029, 1030, 1031, 1032, 1033, 1034, 1035, 1036, 1037, 1038, 1039, 1040, 1041, 1042, 1043, 1044, 1045, 1046, 1047, 1048, 1049, 1050, 1051, 1052, 1053, 1054, 1055, 1056, 1057, 1058, 1059, 1060, 1061, 1062, 1063, 1064, 1065, 1066, 1067, 1068, 1069, 1070, 1071, 1072, 1073, 1074, 1075, 1076, 1077, 1078, 1079, 1080, 1081, 1082, 1083, 1084, 1085, 1086, 1087, 1088, 1089, 1090, 1091, 1092, 1093, 1094, 1095, 1096, 1097, 1098, 1099, 1100, 1101, 1102, 1103, 1104, 1105, 1106, 1107, 1108, 1109, 1110, 1111, 1112, 1113, 1114, 1115, 1116, 1117, 1118, 1119, 1120, 1121, 1122, 1123, 1124, 1125, 1126, 1127, 1128, 1129, 1130, 1131, 1132, 1133, 1134, 1135, 1136, 1137, 1138, 1139, 1140, 1141, 1142, 1143, 1144, 1145, 1146, 1147, 1148, 1149, 1150, 1151, 1152, 1153, 1154, 1155, 1156, 1157, 1158, 1159, 1160, 1161, 1162, 1163, 1164, 1165, 1166, 1167, 1168, 1169, 1170, 1171, 1172, 1173, 1174, 1175, 1176, 1177, 1178, 1179, 1180, 1181, 1182, 1183, 1184, 1185, 1186, 1187, 1188, 1189, 1190, 1191, 1192, 1193, 1194, 1195, 1196, 1197, 1198, 1199, 1200, 1201, 1202, 1203, 1204, 1205, 1206, 1207, 1208, 1209, 1210, 1211, 1212, 1213, 1214, 1215, 1216, 1217, 1218, 1219, 1220, 1221, 1222, 1223, 1224, 1225, 1226, 1227, 1228, 1229, 1230, 1231, 1232, 1233, 1234, 1235, 1236, 1237, 1238, 1239, 1240, 1241, 1242, 1243, 1244, 1245, 1246, 1247, 1248, 1249, 1250, 1251, 1252, 1253, 1254, 1255, 1256, 1257, 1258, 1259, 1260, 1261, 1262, 1263, 1264, 1265, 1266, 1267, 1268, 1269, 1270, 1271, 1272, 1273, 1274, 1275, 1276, 1277, 1278, 1279, 1280, 1281, 1282, 1283, 1284, 1285, 1286, 1287, 1288, 1289, 1290, 1291, 1292, 1293, 1294, 1295, 1296, 1297, 1298, 1299, 1300, 1301, 1302, 1303, 1304, 1305, 1306, 1307, 1308, 1309, 1310, 1311, 1312, 1313, 1314, 1315, 1316, 1317, 1318, 1319, 1320, 1321, 1322, 1323, 1324, 1325, 1326, 1327, 1328, 1329, 1330, 1331, 1332, 1333, 1334, 1335, 1336, 1337, 1338, 1339, 1340, 1341, 1342, 1343, 1344, 1345, 1346, 1347, 1348, 1349, 1350, 1351, 1352, 1353, 1354, 1355, 1356, 1357, 1358, 1359, 1360, 1361, 1362, 1363, 1364, 1365, 1366, 1367, 1368, 1369, 1370, 1371, 1372, 1373, 1374, 1375, 1376, 1377, 1378, 1379, 1380, 1381, 1382, 1383, 1384, 1385, 1386, 1387, 1388, 1389, 1390, 1391, 1392, 1393, 1394, 1395, 1396, 1397, 1398, 1399, 1400, 1401, 1402, 1403, 1404, 1405, 1406, 1407, 1408, 1409, 1410, 1411, 1412, 1413, 1414, 1415, 1416, 1417, 1418, 1419, 1420, 1421, 1422, 1423, 1424, 1425, 1426, 1427, 1428, 1429, 1430, 1431, 1432, 1433, 1434, 1435, 1436, 1437, 1438, 1439, 1440, 1441, 1442, 1443, 1444, 1445, 1446, 1447, 1448, 1449, 1450, 1451, 1452, 1453, 1454, 1455, 1456, 1457, 1458, 1459, 1460, 1461, 1462, 1463, 1464, 1465, 1466, 1467, 1468, 1469, 1470, 1471, 1472, 1473, 1474, 1475, 1476, 1477, 1478, 1479, 1480, 1481, 1482, 1483, 1484, 1485, 1486, 1487, 1488, 1489, 1490, 1491, 1492, 1493, 1494, 1495, 1496, 1497, 1498, 1499, 1500, 1501, 1502, 1503, 1504, 1505, 1506, 1507, 1508, 1509, 1510, 1511, 1512, 1513, 1514, 1515, 1516, 1517, 1518, 1519, 1520, 1521, 1522],
      "AcquisitionTime": ["154011.007500", "154012.507500", "154014.007500", "154015.507500", "154017.007500", "154018.507500", "154020.007500", "154021.507500", "154023.007500", "154024.507500", "154026.007500", "154027.507500", "154029.007500", "154030.507500", "154032.007500", "154033.507500", "154035.007500", "154036.507500", "154038.007500", "154039.507500", "154041.007500", "154042.507500", "154044.007500", "154045.507500", "154047.007500", "154048.507500", "154050.007500", "154051.507500", "154053.007500", "154054.507500", "154056.007500", "154057.507500", "154059.007500", "154100.507500", "154102.007500", "154103.507500", "154105.007500", "154106.507500", "154108.007500", "154109.507500", "154111.007500", "154112.507500", "154114.007500", "154115.507500", "154117.007500", "154118.507500", "154120.007500", "154121.507500", "154123.007500", "154124.507500", "154126.007500", "154127.507500", "154129.007500", "154130.507500", "154132.007500", "154133.507500", "154135.007500", "154136.507500", "154138.007500", "154139.507500", "154141.007500", "154142.507500", "154144.007500", "154145.507500", "154147.007500", "154148.507500", "154150.007500", "154151.507500", "154153.007500", "154154.507500", "154156.007500", "154157.507500", "154159.007500", "154200.507500", "154202.007500", "154203.507500", "154205.007500", "154206.507500", "154208.007500", "154209.507500", "154211.007500", "154212.507500", "154214.007500", "154215.507500", "154217.007500", "154218.507500", "154220.007500", "154221.507500", "154223.007500", "154224.507500", "154226.007500", "154227.507500", "154229.007500", "154230.507500", "154232.007500", "154233.507500", "154235.007500", "154236.507500", "154238.007500", "154239.507500", "154241.007500", "154242.507500", "154244.007500", "154245.507500", "154247.007500", "154248.507500", "154250.007500", "154251.507500", "154253.007500", "154254.507500", "154256.007500", "154257.507500", "154259.007500", "154300.507500", "154302.007500", "154303.507500", "154305.007500", "154306.507500", "154308.007500", "154309.507500", "154311.007500", "154312.507500", "154314.007500", "154315.507500", "154317.007500", "154318.507500", "154320.007500", "154321.507500", "154323.007500", "154324.507500", "154326.007500", "154327.507500", "154329.007500", "154330.507500", "154332.007500", "154333.507500", "154335.007500", "154336.507500", "154338.007500", "154339.507500", "154341.007500", "154342.507500", "154344.007500", "154345.507500", "154347.007500", "154348.507500", "154350.007500", "154351.507500", "154353.007500", "154354.507500", "154356.007500", "154357.507500", "154359.007500", "154400.507500", "154402.007500", "154403.507500", "154405.007500", "154406.507500", "154408.007500", "154409.507500", "154411.007500", "154412.507500", "154414.007500", "154415.507500", "154417.007500", "154418.507500", "154420.007500", "154421.507500", "154423.007500", "154424.507500", "154426.007500", "154427.507500", "154429.007500", "154430.507500", "154432.007500", "154433.507500", "154435.007500", "154436.507500", "154438.007500", "154439.507500", "154441.007500", "154442.507500", "154444.007500", "154445.507500", "154447.007500", "154448.507500", "154450.007500", "154451.507500", "154453.007500", "154454.507500", "154456.007500", "154457.507500", "154459.007500", "154500.507500", "154502.007500", "154503.507500", "154505.007500", "154506.507500", "154508.007500", "154509.507500", "154511.007500", "154512.507500", "154514.007500", "154515.507500", "154517.007500", "154518.507500", "154520.007500", "154521.507500", "154523.007500", "154524.507500", "154526.007500", "154527.507500", "154529.007500", "154530.507500", "154532.007500", "154533.507500", "154535.007500", "154536.507500", "154538.007500", "154539.507500", "154541.007500", "154542.507500", "154544.007500", "154545.507500", "154547.007500", "154548.507500", "154550.007500", "154551.507500", "154553.007500", "154554.507500", "154556.007500", "154557.507500", "154559.007500", "154600.507500", "154602.007500", "154603.507500", "154605.007500", "154606.507500", "154608.007500", "154609.507500", "154611.007500", "154612.507500", "154614.007500", "154615.507500", "154617.007500", "154618.507500", "154620.007500", "154621.507500", "154623.007500", "154624.507500", "154626.007500", "154627.507500", "154629.007500", "154630.507500", "154632.007500", "154633.507500", "154635.007500", "154636.507500", "154638.007500", "154639.507500", "154641.007500", "154642.507500", "154644.007500", "154645.507500", "154647.007500", "154648.507500", "154650.007500", "154651.507500", "154653.007500", "154654.507500", "154656.007500", "154657.507500", "154659.007500", "154700.507500", "154702.007500", "154703.507500", "154705.007500", "154706.507500", "154708.007500", "154709.507500", "154711.007500", "154712.507500", "154714.007500", "154715.507500", "154717.007500", "154718.507500", "154720.007500", "154721.507500", "154723.007500", "154724.507500", "154726.007500", "154727.507500", "154729.007500", "154730.507500", "154732.007500", "154733.507500", "154735.007500", "154736.507500", "154738.007500", "154739.507500", "154741.007500", "154742.507500", "154744.007500", "154745.507500", "154747.007500", "154748.507500", "154750.007500", "154751.507500", "154753.007500", "154754.507500", "154756.007500", "154757.507500", "154759.007500", "154800.507500", "154802.007500", "154803.507500", "154805.007500", "154806.507500", "154808.007500", "154809.507500", "154811.007500", "154812.507500", "154814.007500", "154815.507500", "154817.007500", "154818.507500", "154820.007500", "154821.507500", "154823.007500", "154824.507500", "154826.007500", "154827.507500", "154829.007500", "154830.507500", "154832.007500", "154833.507500", "154835.007500", "154836.507500", "154838.007500", "154839.507500", "154841.007500", "154842.507500", "154844.007500", "154845.507500", "154847.007500", "154848.507500", "154850.007500", "154851.507500", "154853.007500", "154854.507500", "154856.007500", "154857.507500", "154859.007500", "154900.507500", "154902.007500", "154903.507500", "154905.007500", "154906.507500", "154908.007500", "154909.507500", "154911.007500", "154912.507500", "154914.007500", "154915.507500", "154917.007500", "154918.507500", "154920.007500", "154921.507500", "154923.007500", "154924.507500", "154926.007500", "154927.507500", "154929.007500", "154930.507500", "154932.007500", "154933.507500", "154935.007500", "154936.507500", "154938.007500", "154939.507500", "154941.007500", "154942.507500", "154944.007500", "154945.507500", "154947.007500", "154948.507500", "154950.007500", "154951.507500", "154953.007500", "154954.507500", "154956.007500", "154957.507500", "154959.007500", "155000.507500", "155002.007500", "155003.507500", "155005.007500", "155006.507500", "155008.007500", "155009.507500", "155011.007500", "155012.507500", "155014.007500", "155015.507500", "155017.007500", "155018.507500", "155020.007500", "155021.507500", "155023.007500", "155024.507500", "155026.007500", "155027.507500", "155029.007500", "155030.507500", "155032.007500", "155033.507500", "155035.007500", "155036.507500", "155038.007500", "155039.507500", "155041.007500", "155042.507500", "155044.007500", "155045.507500", "155047.007500", "155048.507500", "155050.007500", "155051.507500", "155053.007500", "155054.507500", "155056.007500", "155057.507500", "155059.007500", "155100.507500", "155102.007500", "155103.507500", "155105.007500", "155106.507500", "155108.007500", "155109.507500", "155111.007500", "155112.507500", "155114.007500", "155115.507500", "155117.007500", "155118.507500", "155120.007500", "155121.507500", "155123.007500", "155124.507500", "155126.007500", "155127.507500", "155129.007500", "155130.507500", "155132.007500", "155133.507500", "155135.007500", "155136.507500", "155138.007500", "155139.507500", "155141.007500", "155142.507500", "155144.007500", "155145.507500", "155147.007500", "155148.507500", "155150.007500", "155151.507500", "155153.007500", "155154.507500", "155156.007500", "155157.507500", "155159.007500", "155200.507500", "155202.007500", "155203.507500", "155205.007500", "155206.507500", "155208.007500", "155209.507500", "155211.007500", "155212.507500", "155214.007500", "155215.507500", "155217.007500", "155218.507500", "155220.007500", "155221.507500", "155223.007500", "155224.507500", "155226.007500", "155227.507500", "155229.007500", "155230.507500", "155232.007500", "155233.507500", "155235.007500", "155236.507500", "155238.007500", "155239.507500", "155241.007500", "155242.507500", "155244.007500", "155245.507500", "155247.007500", "155248.507500", "155250.007500", "155251.507500", "155253.007500", "155254.507500", "155256.007500", "155257.507500", "155259.007500", "155300.507500", "155302.007500", "155303.507500", "155305.007500", "155306.507500", "155308.007500", "155309.507500", "155311.007500", "155312.507500", "155314.007500", "155315.507500", "155317.007500", "155318.507500", "155320.007500", "155321.507500", "155323.007500", "155324.507500", "155326.007500", "155327.507500", "155329.007500", "155330.507500", "155332.007500", "155333.507500", "155335.007500", "155336.507500", "155338.007500", "155339.507500", "155341.007500", "155342.507500", "155344.007500", "155345.507500", "155347.007500", "155348.507500", "155350.007500", "155351.507500", "155353.007500", "155354.507500", "155356.007500", "155357.507500", "155359.007500", "155400.507500", "155402.007500", "155403.507500", "155405.007500", "155406.507500", "155408.007500", "155409.507500", "155411.007500", "155412.507500", "155414.007500", "155415.507500", "155417.007500", "155418.507500", "155420.007500", "155421.507500", "155423.007500", "155424.507500", "155426.007500", "155427.507500", "155429.007500", "155430.507500", "155432.007500", "155433.507500", "155435.007500", "155436.507500", "155438.007500", "155439.507500", "155441.007500", "155442.507500", "155444.007500", "155445.507500", "155447.007500", "155448.507500", "155450.007500", "155451.507500", "155453.007500", "155454.507500", "155456.007500", "155457.507500", "155459.007500", "155500.507500", "155502.007500", "155503.507500", "155505.007500", "155506.507500", "155508.007500", "155509.507500", "155511.007500", "155512.507500", "155514.007500", "155515.507500", "155517.007500", "155518.507500", "155520.007500", "155521.507500", "155523.007500", "155524.507500", "155526.007500", "155527.507500", "155529.007500", "155530.507500", "155532.007500", "155533.507500", "155535.007500", "155536.507500", "155538.007500", "155539.507500", "155541.007500", "155542.507500", "155544.007500", "155545.507500", "155547.007500", "155548.507500", "155550.007500", "155551.507500", "155553.007500", "155554.507500", "155556.007500", "155557.507500", "155559.007500", "155600.507500", "155602.007500", "155603.507500", "155605.007500", "155606.507500", "155608.007500", "155609.507500", "155611.007500", "155612.507500", "155614.007500", "155615.507500", "155617.007500", "155618.507500", "155620.007500", "155621.507500", "155623.007500", "155624.507500", "155626.007500", "155627.507500", "155629.007500", "155630.507500", "155632.007500", "155633.507500", "155635.007500", "155636.507500", "155638.007500", "155639.507500", "155641.007500", "155642.507500", "155644.007500", "155645.507500", "155647.007500", "155648.507500", "155650.007500", "155651.507500", "155653.007500", "155654.507500", "155656.007500", "155657.507500", "155659.007500", "155700.507500", "155702.007500", "155703.507500", "155705.007500", "155706.507500", "155708.007500", "155709.507500", "155711.007500", "155712.507500", "155714.007500", "155715.507500", "155717.007500", "155718.507500", "155720.007500", "155721.507500", "155723.007500", "155724.507500", "155726.007500", "155727.507500", "155729.007500", "155730.507500", "155732.007500", "155733.507500", "155735.007500", "155736.507500", "155738.007500", "155739.507500", "155741.007500", "155742.507500", "155744.007500", "155745.507500", "155747.007500", "155748.507500", "155750.007500", "155751.507500", "155753.007500", "155754.507500", "155756.007500", "155757.507500", "155759.007500", "155800.507500", "155802.007500", "155803.507500", "155805.007500", "155806.507500", "155808.007500", "155809.507500", "155811.007500", "155812.507500", "155814.007500", "155815.507500", "155817.007500", "155818.507500", "155820.007500", "155821.507500", "155823.007500", "155824.507500", "155826.007500", "155827.507500", "155829.007500", "155830.507500", "155832.007500", "155833.507500", "155835.007500", "155836.507500", "155838.007500", "155839.507500", "155841.007500", "155842.507500", "155844.007500", "155845.507500", "155847.007500", "155848.507500", "155850.007500", "155851.507500", "155853.007500", "155854.507500", "155856.007500", "155857.507500", "155859.007500", "155900.507500", "155902.007500", "155903.507500", "155905.007500", "155906.507500", "155908.007500", "155909.507500", "155911.007500", "155912.507500", "155914.007500", "155915.507500", "155917.007500", "155918.507500", "155920.007500", "155921.507500", "155923.007500", "155924.507500", "155926.007500", "155927.507500", "155929.007500", "155930.507500", "155932.007500", "155933.507500", "155935.007500", "155936.507500", "155938.007500", "155939.507500", "155941.007500", "155942.507500", "155944.007500", "155945.507500", "155947.007500", "155948.507500", "155950.007500", "155951.507500", "155953.007500", "155954.507500", "155956.007500", "155957.507500", "155959.007500", "160000.507500", "160002.007500", "160003.507500", "160005.007500", "160006.507500", "160008.007500", "160009.507500", "160011.007500", "160012.507500", "160014.007500", "160015.507500", "160017.007500", "160018.507500", "160020.007500", "160021.507500", "160023.007500", "160024.507500", "160026.007500", "160027.507500", "160029.007500", "160030.507500", "160032.007500", "160033.507500", "160035.007500", "160036.507500", "160038.007500", "160039.507500", "160041.007500", "160042.507500", "160044.007500", "160045.507500", "160047.007500", "160048.507500", "160050.007500", "160051.507500", "160053.007500", "160054.507500", "160056.007500", "160057.507500", "160059.007500", "160100.507500", "160102.007500", "160103.507500", "160105.007500", "160106.507500", "160108.007500", "160109.507500", "160111.007500", "160112.507500", "160114.007500", "160115.507500", "160117.007500", "160118.507500", "160120.007500", "160121.507500", "160123.007500", "160124.507500", "160126.007500", "160127.507500", "160129.007500", "160130.507500", "160132.007500", "160133.507500", "160135.007500", "160136.507500", "160138.007500", "160139.507500", "160141.007500", "160142.507500", "160144.007500", "160145.507500", "160147.007500", "160148.507500", "160150.007500", "160151.507500", "160153.007500", "160154.507500", "160156.007500", "160157.507500", "160159.007500", "160200.507500", "160202.007500", "160203.507500", "160205.007500", "160206.507500", "160208.007500", "160209.507500", "160211.007500", "160212.507500", "160214.007500", "160215.507500", "160217.007500", "160218.507500", "160220.007500", "160221.507500", "160223.007500", "160224.507500", "160226.007500", "160227.507500", "160229.007500", "160230.507500", "160232.007500", "160233.507500", "160235.007500", "160236.507500", "160238.007500", "160239.507500", "160241.007500", "160242.507500", "160244.007500", "160245.507500", "160247.007500", "160248.507500", "160250.007500", "160251.507500", "160253.007500", "160254.507500", "160256.007500", "160257.507500", "160259.007500", "160300.507500", "160302.007500", "160303.507500", "160305.007500", "160306.507500", "160308.007500", "160309.507500", "160311.007500", "160312.507500", "160314.007500", "160315.507500", "160317.007500", "160318.507500", "160320.007500", "160321.507500", "160323.007500", "160324.507500", "160326.007500", "160327.507500", "160329.007500", "160330.507500", "160332.007500", "160333.507500", "160335.007500", "160336.507500", "160338.007500", "160339.507500", "160341.007500", "160342.507500", "160344.007500", "160345.507500", "160347.007500", "160348.507500", "160350.007500", "160351.507500", "160353.007500", "160354.507500", "160356.007500", "160357.507500", "160359.007500", "160400.507500", "160402.007500", "160403.507500", "160405.007500", "160406.507500", "160408.007500", "160409.507500", "160411.007