{
  "AcquisitionMatrixPE": 106,
  "AcquisitionNumber": 1,
  "AcquisitionTime": "16:32:13.727500",
  "BandwidthPerPixelPhaseEncode": 16.846,
  "BaseResolution": 106,
  "BodyPartExamined": "BRAIN",
  "CoilCombinationMethod": "Sum of Squares",
  "ConsistencyInfo": "N4_VE11C_LATEST_20160120",
  "ConversionSoftware": "dcm2niix",
  "ConversionSoftwareVersion": "v1.0.20220720",
  "DerivedVendorReportedEchoSpacing": 0.000560012,
  "DeviceSerialNumber": "166108",
  "DwellTime": 1.8e-06,
  "EchoTime": 0.0352,
  "EchoTrainLength": 106,
  "EffectiveEchoSpacing": 0.000560012,
  "FlipAngle": 60,
  "HeudiconvVersion": "1.3.0",
  "ImageComments": "Unaliased MB4/PE3/LB",
  "ImageOrientationPatientDICOM": [1, 0, 0, 0, 1, 0],
  "ImageOrientationText": "Tra",
  "ImageType": [
    "ORIGINAL",
    "PRIMARY",
    "M",
    "MB",
    "ND",
    "MOSAIC"
],
  "ImagingFrequency": 123.244,
  "InPlanePhaseEncodingDirectionDICOM": "COL",
  "InstitutionAddress": "Bedford Way 26,London,London,GB,WC1H 0AP",
  "InstitutionName": "University College",
  "InstitutionalDepartmentName": "Department",
  "MRAcquisitionType": "2D",
  "MagneticFieldStrength": 3,
  "Manufacturer": "Siemens",
  "ManufacturersModelName": "Prisma",
  "MatrixCoilMode": "SENSE",
  "Modality": "MR",
  "MultibandAccelerationFactor": 4,
  "NonlinearGradientCorrection": false,
  "PartialFourier": 1,
  "PatientPosition": "HFS",
  "PercentPhaseFOV": 100,
  "PercentSampling": 100,
  "PhaseEncodingDirection": "j-",
  "PhaseEncodingSteps": 106,
  "PhaseResolution": 1,
  "PixelBandwidth": 2620,
  "ProcedureStepDescription": "Egor^MovieProject2",
  "ProtocolName": "task-backtothefuture_run-3",
  "PulseSequenceDetails": "%CustomerSeq%\\cmrr_mbep2d_bold",
  "ReceiveCoilActiveElements": "HEA;HEP",
  "ReceiveCoilName": "Head_32",
  "ReconMatrixPE": 106,
  "RepetitionTime": 1.5,
  "SAR": 0.0751158,
  "ScanOptions": "FS\\EXT",
  "ScanningSequence": "EP",
  "SequenceName": "epfid2d1_106",
  "SequenceVariant": "SK\\SS",
  "SeriesDescription": "task-backtothefuture_run-3",
  "SeriesNumber": 13,
  "ShimSetting": [-1617, 668, 7438, 360, -137, 148, 68, 17],
  "SliceThickness": 2,
  "SliceTiming": [0, 1.07, 0.6575, 0.2475, 1.3175, 0.905, 0.495, 0.0825, 1.1525, 0.74, 0.33, 1.3975, 0.9875, 0.5775, 0.165, 1.235, 0.8225, 0.4125, 0, 1.07, 0.6575, 0.2475, 1.3175, 0.905, 0.495, 0.0825, 1.1525, 0.74, 0.33, 1.3975, 0.9875, 0.5775, 0.165, 1.235, 0.8225, 0.4125, 0, 1.07, 0.6575, 0.2475, 1.3175, 0.905, 0.495, 0.0825, 1.1525, 0.74, 0.33, 1.3975, 0.9875, 0.5775, 0.165, 1.235, 0.8225, 0.4125, 0, 1.07, 0.6575, 0.2475, 1.3175, 0.905, 0.495, 0.0825, 1.1525, 0.74, 0.33, 1.3975, 0.9875, 0.5775, 0.165, 1.235, 0.8225, 0.4125],
  "SoftwareVersions": "syngo MR E11",
  "SpacingBetweenSlices": 2,
  "StationName": "AWP166108",
  "TaskName": "backtothefuture",
  "TotalReadoutTime": 0.0588013,
  "TxRefAmp": 242.954,
  "WipMemBlock": "00fb67fe-cb45-4c7a-81fb-d47257c5259c||Sequence: R016 ve11c/master r/e634e98; Dec 19 2017 11:00:25 by eja",
  "dcmmeta_affine": [
    [-2.0, 0.0, 0.0, 106.0],
    [0.0, 2.0, 0.0, -92.55421447753906],
    [0.0, 0.0, 2.0, -50.51807403564453],
    [0.0, 0.0, 0.0, 1.0]
],
  "dcmmeta_reorient_transform": [
    [0.0, -1.0, 0.0, 105.0],
    [1.0, 0.0, 0.0, 0.0],
    [0.0, 0.0, 1.0, 0.0],
    [0.0, 0.0, 0.0, 1.0]
],
  "dcmmeta_shape": [106, 106, 72, 1608],
  "dcmmeta_slice_dim": 2,
  "dcmmeta_version": 0.6,
  "global": {
    "const": {
      "AcquisitionMatrix": [106, 0, 0, 106],
      "AngioFlag": "N",
      "BitsAllocated": 16,
      "BitsStored": 16,
      "BodyPartExamined": "BRAIN",
      "CardiacNumberOfImages": 1,
      "Columns": 954,
      "EchoNumbers": 1,
      "EchoTime": 35.2,
      "EchoTrainLength": 106,
      "FlipAngle": 60.0,
      "HighBit": 15,
      "ImageOrientationPatient": [1.0, 0.0, 0.0, 0.0, 1.0, 0.0],
      "ImagePositionPatient": [-954.0, -965.44578266144, -50.518074035645],
      "ImageType": [
        "ORIGINAL",
        "PRIMARY",
        "M",
        "MB",
        "ND",
        "MOSAIC"
],
      "ImagedNucleus": "1H",
      "ImagingFrequency": 123.24369,
      "InPlanePhaseEncodingDirection": "COL",
      "MRAcquisitionType": "2D",
      "MagneticFieldStrength": 3.0,
      "Manufacturer": "SIEMENS",
      "ManufacturerModelName": "Prisma",
      "Modality": "MR",
      "NominalInterval": 0,
      "NumberOfAverages": 1.0,
      "NumberOfPhaseEncodingSteps": 106,
      "PercentPhaseFieldOfView": 100.0,
      "PercentSampling": 100.0,
      "PerformedProcedureStepStartTime": "142513.391000",
      "PhotometricInterpretation": "MONOCHROME2",
      "PixelBandwidth": 2620.0,
      "PixelRepresentation": 0,
      "PixelSpacing": [2.0, 2.0],
      "ProtocolName": "task-backtothefuture_run-3",
      "RepetitionTime": 1500.0,
      "Rows": 954,
      "SAR": 0.0751158055338,
      "SamplesPerPixel": 1,
      "ScanOptions": [
        "FS",
        "EXT"
],
      "ScanningSequence": "EP",
      "SequenceName": "epfid2d1_106",
      "SequenceVariant": [
        "SK",
        "SS"
],
      "SeriesDescription": "task-backtothefuture_run-3",
      "SeriesNumber": 13,
      "SeriesTime": "163255.867000",
      "SliceLocation": -50.518074035645,
      "SliceThickness": 2.0,
      "SmallestImagePixelValue": 0,
      "SoftwareVersions": "syngo MR E11",
      "SpacingBetweenSlices": 2.0,
      "SpecificCharacterSet": "ISO_IR 100",
      "StudyID": "1",
      "StudyTime": "142513.327000",
      "TransmitCoilName": "Body",
      "VariableFlipAngleFlag": "N",
      "WindowCenterWidthExplanation": "Algo1",
      "dBdt": 0.0},
    "slices": {}
  },
  "time": {
    "samples": {
      "AcquisitionNumber": [1, 2, 3, 4, 5, 6, 7, 8, 9, 10, 11, 12, 13, 14, 15, 16, 17, 18, 19, 20, 21, 22, 23, 24, 25, 26, 27, 28, 29, 30, 31, 32, 33, 34, 35, 36, 37, 38, 39, 40, 41, 42, 43, 44, 45, 46, 47, 48, 49, 50, 51, 52, 53, 54, 55, 56, 57, 58, 59, 60, 61, 62, 63, 64, 65, 66, 67, 68, 69, 70, 71, 72, 73, 74, 75, 76, 77, 78, 79, 80, 81, 82, 83, 84, 85, 86, 87, 88, 89, 90, 91, 92, 93, 94, 95, 96, 97, 98, 99, 100, 101, 102, 103, 104, 105, 106, 107, 108, 109, 110, 111, 112, 113, 114, 115, 116, 117, 118, 119, 120, 121, 122, 123, 124, 125, 126, 127, 128, 129, 130, 131, 132, 133, 134, 135, 136, 137, 138, 139, 140, 141, 142, 143, 144, 145, 146, 147, 148, 149, 150, 151, 152, 153, 154, 155, 156, 157, 158, 159, 160, 161, 162, 163, 164, 165, 166, 167, 168, 169, 170, 171, 172, 173, 174, 175, 176, 177, 178, 179, 180, 181, 182, 183, 184, 185, 186, 187, 188, 189, 190, 191, 192, 193, 194, 195, 196, 197, 198, 199, 200, 201, 202, 203, 204, 205, 206, 207, 208, 209, 210, 211, 212, 213, 214, 215, 216, 217, 218, 219, 220, 221, 222, 223, 224, 225, 226, 227, 228, 229, 230, 231, 232, 233, 234, 235, 236, 237, 238, 239, 240, 241, 242, 243, 244, 245, 246, 247, 248, 249, 250, 251, 252, 253, 254, 255, 256, 257, 258, 259, 260, 261, 262, 263, 264, 265, 266, 267, 268, 269, 270, 271, 272, 273, 274, 275, 276, 277, 278, 279, 280, 281, 282, 283, 284, 285, 286, 287, 288, 289, 290, 291, 292, 293, 294, 295, 296, 297, 298, 299, 300, 301, 302, 303, 304, 305, 306, 307, 308, 309, 310, 311, 312, 313, 314, 315, 316, 317, 318, 319, 320, 321, 322, 323, 324, 325, 326, 327, 328, 329, 330, 331, 332, 333, 334, 335, 336, 337, 338, 339, 340, 341, 342, 343, 344, 345, 346, 347, 348, 349, 350, 351, 352, 353, 354, 355, 356, 357, 358, 359, 360, 361, 362, 363, 364, 365, 366, 367, 368, 369, 370, 371, 372, 373, 374, 375, 376, 377, 378, 379, 380, 381, 382, 383, 384, 385, 386, 387, 388, 389, 390, 391, 392, 393, 394, 395, 396, 397, 398, 399, 400, 401, 402, 403, 404, 405, 406, 407, 408, 409, 410, 411, 412, 413, 414, 415, 416, 417, 418, 419, 420, 421, 422, 423, 424, 425, 426, 427, 428, 429, 430, 431, 432, 433, 434, 435, 436, 437, 438, 439, 440, 441, 442, 443, 444, 445, 446, 447, 448, 449, 450, 451, 452, 453, 454, 455, 456, 457, 458, 459, 460, 461, 462, 463, 464, 465, 466, 467, 468, 469, 470, 471, 472, 473, 474, 475, 476, 477, 478, 479, 480, 481, 482, 483, 484, 485, 486, 487, 488, 489, 490, 491, 492, 493, 494, 495, 496, 497, 498, 499, 500, 501, 502, 503, 504, 505, 506, 507, 508, 509, 510, 511, 512, 513, 514, 515, 516, 517, 518, 519, 520, 521, 522, 523, 524, 525, 526, 527, 528, 529, 530, 531, 532, 533, 534, 535, 536, 537, 538, 539, 540, 541, 542, 543, 544, 545, 546, 547, 548, 549, 550, 551, 552, 553, 554, 555, 556, 557, 558, 559, 560, 561, 562, 563, 564, 565, 566, 567, 568, 569, 570, 571, 572, 573, 574, 575, 576, 577, 578, 579, 580, 581, 582, 583, 584, 585, 586, 587, 588, 589, 590, 591, 592, 593, 594, 595, 596, 597, 598, 599, 600, 601, 602, 603, 604, 605, 606, 607, 608, 609, 610, 611, 612, 613, 614, 615, 616, 617, 618, 619, 620, 621, 622, 623, 624, 625, 626, 627, 628, 629, 630, 631, 632, 633, 634, 635, 636, 637, 638, 639, 640, 641, 642, 643, 644, 645, 646, 647, 648, 649, 650, 651, 652, 653, 654, 655, 656, 657, 658, 659, 660, 661, 662, 663, 664, 665, 666, 667, 668, 669, 670, 671, 672, 673, 674, 675, 676, 677, 678, 679, 680, 681, 682, 683, 684, 685, 686, 687, 688, 689, 690, 691, 692, 693, 694, 695, 696, 697, 698, 699, 700, 701, 702, 703, 704, 705, 706, 707, 708, 709, 710, 711, 712, 713, 714, 715, 716, 717, 718, 719, 720, 721, 722, 723, 724, 725, 726, 727, 728, 729, 730, 731, 732, 733, 734, 735, 736, 737, 738, 739, 740, 741, 742, 743, 744, 745, 746, 747, 748, 749, 750, 751, 752, 753, 754, 755, 756, 757, 758, 759, 760, 761, 762, 763, 764, 765, 766, 767, 768, 769, 770, 771, 772, 773, 774, 775, 776, 777, 778, 779, 780, 781, 782, 783, 784, 785, 786, 787, 788, 789, 790, 791, 792, 793, 794, 795, 796, 797, 798, 799, 800, 801, 802, 803, 804, 805, 806, 807, 808, 809, 810, 811, 812, 813, 814, 815, 816, 817, 818, 819, 820, 821, 822, 823, 824, 825, 826, 827, 828, 829, 830, 831, 832, 833, 834, 835, 836, 837, 838, 839, 840, 841, 842, 843, 844, 845, 846, 847, 848, 849, 850, 851, 852, 853, 854, 855, 856, 857, 858, 859, 860, 861, 862, 863, 864, 865, 866, 867, 868, 869, 870, 871, 872, 873, 874, 875, 876, 877, 878, 879, 880, 881, 882, 883, 884, 885, 886, 887, 888, 889, 890, 891, 892, 893, 894, 895, 896, 897, 898, 899, 900, 901, 902, 903, 904, 905, 906, 907, 908, 909, 910, 911, 912, 913, 914, 915, 916, 917, 918, 919, 920, 921, 922, 923, 924, 925, 926, 927, 928, 929, 930, 931, 932, 933, 934, 935, 936, 937, 938, 939, 940, 941, 942, 943, 944, 945, 946, 947, 948, 949, 950, 951, 952, 953, 954, 955, 956, 957, 958, 959, 960, 961, 962, 963, 964, 965, 966, 967, 968, 969, 970, 971, 972, 973, 974, 975, 976, 977, 978, 979, 980, 981, 982, 983, 984, 985, 986, 987, 988, 989, 990, 991, 992, 993, 994, 995, 996, 997, 998, 999, 1000, 1001, 1002, 1003, 1004, 1005, 1006, 1007, 1008, 1009, 1010, 1011, 1012, 1013, 1014, 1015, 1016, 1017, 1018, 1019, 1020, 1021, 1022, 1023, 1024, 1025, 1026, 1027, 1028, 1029, 1030, 1031, 1032, 1033, 1034, 1035, 1036, 1037, 1038, 1039, 1040, 1041, 1042, 1043, 1044, 1045, 1046, 1047, 1048, 1049, 1050, 1051, 1052, 1053, 1054, 1055, 1056, 1057, 1058, 1059, 1060, 1061, 1062, 1063, 1064, 1065, 1066, 1067, 1068, 1069, 1070, 1071, 1072, 1073, 1074, 1075, 1076, 1077, 1078, 1079, 1080, 1081, 1082, 1083, 1084, 1085, 1086, 1087, 1088, 1089, 1090, 1091, 1092, 1093, 1094, 1095, 1096, 1097, 1098, 1099, 1100, 1101, 1102, 1103, 1104, 1105, 1106, 1107, 1108, 1109, 1110, 1111, 1112, 1113, 1114, 1115, 1116, 1117, 1118, 1119, 1120, 1121, 1122, 1123, 1124, 1125, 1126, 1127, 1128, 1129, 1130, 1131, 1132, 1133, 1134, 1135, 1136, 1137, 1138, 1139, 1140, 1141, 1142, 1143, 1144, 1145, 1146, 1147, 1148, 1149, 1150, 1151, 1152, 1153, 1154, 1155, 1156, 1157, 1158, 1159, 1160, 1161, 1162, 1163, 1164, 1165, 1166, 1167, 1168, 1169, 1170, 1171, 1172, 1173, 1174, 1175, 1176, 1177, 1178, 1179, 1180, 1181, 1182, 1183, 1184, 1185, 1186, 1187, 1188, 1189, 1190, 1191, 1192, 1193, 1194, 1195, 1196, 1197, 1198, 1199, 1200, 1201, 1202, 1203, 1204, 1205, 1206, 1207, 1208, 1209, 1210, 1211, 1212, 1213, 1214, 1215, 1216, 1217, 1218, 1219, 1220, 1221, 1222, 1223, 1224, 1225, 1226, 1227, 1228, 1229, 1230, 1231, 1232, 1233, 1234, 1235, 1236, 1237, 1238, 1239, 1240, 1241, 1242, 1243, 1244, 1245, 1246, 1247, 1248, 1249, 1250, 1251, 1252, 1253, 1254, 1255, 1256, 1257, 1258, 1259, 1260, 1261, 1262, 1263, 1264, 1265, 1266, 1267, 1268, 1269, 1270, 1271, 1272, 1273, 1274, 1275, 1276, 1277, 1278, 1279, 1280, 1281, 1282, 1283, 1284, 1285, 1286, 1287, 1288, 1289, 1290, 1291, 1292, 1293, 1294, 1295, 1296, 1297, 1298, 1299, 1300, 1301, 1302, 1303, 1304, 1305, 1306, 1307, 1308, 1309, 1310, 1311, 1312, 1313, 1314, 1315, 1316, 1317, 1318, 1319, 1320, 1321, 1322, 1323, 1324, 1325, 1326, 1327, 1328, 1329, 1330, 1331, 1332, 1333, 1334, 1335, 1336, 1337, 1338, 1339, 1340, 1341, 1342, 1343, 1344, 1345, 1346, 1347, 1348, 1349, 1350, 1351, 1352, 1353, 1354, 1355, 1356, 1357, 1358, 1359, 1360, 1361, 1362, 1363, 1364, 1365, 1366, 1367, 1368, 1369, 1370, 1371, 1372, 1373, 1374, 1375, 1376, 1377, 1378, 1379, 1380, 1381, 1382, 1383, 1384, 1385, 1386, 1387, 1388, 1389, 1390, 1391, 1392, 1393, 1394, 1395, 1396, 1397, 1398, 1399, 1400, 1401, 1402, 1403, 1404, 1405, 1406, 1407, 1408, 1409, 1410, 1411, 1412, 1413, 1414, 1415, 1416, 1417, 1418, 1419, 1420, 1421, 1422, 1423, 1424, 1425, 1426, 1427, 1428, 1429, 1430, 1431, 1432, 1433, 1434, 1435, 1436, 1437, 1438, 1439, 1440, 1441, 1442, 1443, 1444, 1445, 1446, 1447, 1448, 1449, 1450, 1451, 1452, 1453, 1454, 1455, 1456, 1457, 1458, 1459, 1460, 1461, 1462, 1463, 1464, 1465, 1466, 1467, 1468, 1469, 1470, 1471, 1472, 1473, 1474, 1475, 1476, 1477, 1478, 1479, 1480, 1481, 1482, 1483, 1484, 1485, 1486, 1487, 1488, 1489, 1490, 1491, 1492, 1493, 1494, 1495, 1496, 1497, 1498, 1499, 1500, 1501, 1502, 1503, 1504, 1505, 1506, 1507, 1508, 1509, 1510, 1511, 1512, 1513, 1514, 1515, 1516, 1517, 1518, 1519, 1520, 1521, 1522, 1523, 1524, 1525, 1526, 1527, 1528, 1529, 1530, 1531, 1532, 1533, 1534, 1535, 1536, 1537, 1538, 1539, 1540, 1541, 1542, 1543, 1544, 1545, 1546, 1547, 1548, 1549, 1550, 1551, 1552, 1553, 1554, 1555, 1556, 1557, 1558, 1559, 1560, 1561, 1562, 1563, 1564, 1565, 1566, 1567, 1568, 1569, 1570, 1571, 1572, 1573, 1574, 1575, 1576, 1577, 1578, 1579, 1580, 1581, 1582, 1583, 1584, 1585, 1586, 1587, 1588, 1589, 1590, 1591, 1592, 1593, 1594, 1595, 1596, 1597, 1598, 1599, 1600, 1601, 1602, 1603, 1604, 1605, 1606, 1607, 1608],
      "AcquisitionTime": ["163213.727500", "163215.227500", "163216.727500", "163218.227500", "163219.727500", "163221.227500", "163222.727500", "163224.227500", "163225.727500", "163227.227500", "163228.727500", "163230.227500", "163231.727500", "163233.227500", "163234.727500", "163236.227500", "163237.727500", "163239.227500", "163240.727500", "163242.227500", "163243.727500", "163245.227500", "163246.727500", "163248.227500", "163249.727500", "163251.227500", "163252.727500", "163254.227500", "163255.727500", "163257.227500", "163258.727500", "163300.227500", "163301.727500", "163303.227500", "163304.727500", "163306.227500", "163307.727500", "163309.227500", "163310.727500", "163312.227500", "163313.727500", "163315.227500", "163316.727500", "163318.227500", "163319.727500", "163321.227500", "163322.727500", "163324.227500", "163325.727500", "163327.227500", "163328.727500", "163330.227500", "163331.727500", "163333.227500", "163334.727500", "163336.227500", "163337.727500", "163339.227500", "163340.727500", "163342.227500", "163343.727500", "163345.227500", "163346.727500", "163348.227500", "163349.727500", "163351.227500", "163352.727500", "163354.227500", "163355.727500", "163357.227500", "163358.727500", "163400.227500", "163401.727500", "163403.227500", "163404.727500", "163406.227500", "163407.727500", "163409.227500", "163410.727500", "163412.227500", "163413.727500", "163415.227500", "163416.727500", "163418.227500", "163419.727500", "163421.227500", "163422.727500", "163424.227500", "163425.727500", "163427.227500", "163428.727500", "163430.227500", "163431.727500", "163433.227500", "163434.727500", "163436.227500", "163437.727500", "163439.227500", "163440.727500", "163442.227500", "163443.727500", "163445.227500", "163446.727500", "163448.227500", "163449.727500", "163451.227500", "163452.727500", "163454.227500", "163455.727500", "163457.227500", "163458.727500", "163500.227500", "163501.727500", "163503.227500", "163504.727500", "163506.227500", "163507.727500", "163509.227500", "163510.727500", "163512.227500", "163513.727500", "163515.227500", "163516.727500", "163518.227500", "163519.727500", "163521.227500", "163522.727500", "163524.227500", "163525.727500", "163527.227500", "163528.727500", "163530.227500", "163531.727500", "163533.227500", "163534.727500", "163536.227500", "163537.727500", "163539.227500", "163540.727500", "163542.227500", "163543.727500", "163545.227500", "163546.727500", "163548.227500", "163549.727500", "163551.227500", "163552.727500", "163554.227500", "163555.727500", "163557.227500", "163558.727500", "163600.227500", "163601.727500", "163603.227500", "163604.727500", "163606.227500", "163607.727500", "163609.227500", "163610.727500", "163612.227500", "163613.727500", "163615.227500", "163616.727500", "163618.227500", "163619.727500", "163621.227500", "163622.727500", "163624.227500", "163625.727500", "163627.227500", "163628.727500", "163630.227500", "163631.727500", "163633.227500", "163634.727500", "163636.227500", "163637.727500", "163639.227500", "163640.727500", "163642.227500", "163643.727500", "163645.227500", "163646.727500", "163648.227500", "163649.727500", "163651.227500", "163652.727500", "163654.227500", "163655.727500", "163657.227500", "163658.727500", "163700.227500", "163701.727500", "163703.227500", "163704.727500", "163706.227500", "163707.727500", "163709.227500", "163710.727500", "163712.227500", "163713.727500", "163715.227500", "163716.727500", "163718.227500", "163719.727500", "163721.227500", "163722.727500", "163724.227500", "163725.727500", "163727.227500", "163728.727500", "163730.227500", "163731.727500", "163733.227500", "163734.727500", "163736.227500", "163737.727500", "163739.227500", "163740.727500", "163742.227500", "163743.727500", "163745.227500", "163746.727500", "163748.227500", "163749.727500", "163751.227500", "163752.727500", "163754.227500", "163755.727500", "163757.227500", "163758.727500", "163800.227500", "163801.727500", "163803.227500", "163804.727500", "163806.227500", "163807.727500", "163809.227500", "163810.727500", "163812.227500", "163813.727500", "163815.227500", "163816.727500", "163818.227500", "163819.727500", "163821.227500", "163822.727500", "163824.227500", "163825.727500", "163827.227500", "163828.727500", "163830.227500", "163831.727500", "163833.227500", "163834.727500", "163836.227500", "163837.727500", "163839.227500", "163840.727500", "163842.227500", "163843.727500", "163845.227500", "163846.727500", "163848.227500", "163849.727500", "163851.227500", "163852.727500", "163854.227500", "163855.727500", "163857.227500", "163858.727500", "163900.227500", "163901.727500", "163903.227500", "163904.727500", "163906.227500", "163907.727500", "163909.227500", "163910.727500", "163912.227500", "163913.727500", "163915.227500", "163916.727500", "163918.227500", "163919.727500", "163921.227500", "163922.727500", "163924.227500", "163925.727500", "163927.227500", "163928.727500", "163930.227500", "163931.727500", "163933.227500", "163934.727500", "163936.227500", "163937.727500", "163939.227500", "163940.727500", "163942.227500", "163943.727500", "163945.227500", "163946.727500", "163948.227500", "163949.727500", "163951.227500", "163952.727500", "163954.227500", "163955.727500", "163957.227500", "163958.727500", "164000.227500", "164001.727500", "164003.227500", "164004.727500", "164006.227500", "164007.727500", "164009.227500", "164010.727500", "164012.227500", "164013.727500", "164015.227500", "164016.727500", "164018.227500", "164019.727500", "164021.227500", "164022.727500", "164024.227500", "164025.727500", "164027.227500", "164028.727500", "164030.227500", "164031.727500", "164033.227500", "164034.727500", "164036.227500", "164037.727500", "164039.227500", "164040.727500", "164042.227500", "164043.727500", "164045.227500", "164046.727500", "164048.227500", "164049.727500", "164051.227500", "164052.727500", "164054.227500", "164055.727500", "164057.227500", "164058.727500", "164100.227500", "164101.727500", "164103.227500", "164104.727500", "164106.227500", "164107.727500", "164109.227500", "164110.727500", "164112.227500", "164113.727500", "164115.227500", "164116.727500", "164118.227500", "164119.727500", "164121.227500", "164122.727500", "164124.227500", "164125.727500", "164127.227500", "164128.727500", "164130.227500", "164131.727500", "164133.227500", "164134.727500", "164136.227500", "164137.727500", "164139.227500", "164140.727500", "164142.227500", "164143.727500", "164145.227500", "164146.727500", "164148.227500", "164149.727500", "164151.227500", "164152.727500", "164154.227500", "164155.727500", "164157.227500", "164158.727500", "164200.227500", "164201.727500", "164203.227500", "164204.727500", "164206.227500", "164207.727500", "164209.227500", "164210.727500", "164212.227500", "164213.727500", "164215.227500", "164216.727500", "164218.227500", "164219.727500", "164221.227500", "164222.727500", "164224.227500", "164225.727500", "164227.227500", "164228.727500", "164230.227500", "164231.727500", "164233.227500", "164234.727500", "164236.227500", "164237.727500", "164239.227500", "164240.727500", "164242.227500", "164243.727500", "164245.227500", "164246.727500", "164248.227500", "164249.727500", "164251.227500", "164252.727500", "164254.227500", "164255.727500", "164257.227500", "164258.727500", "164300.227500", "164301.727500", "164303.227500", "164304.727500", "164306.227500", "164307.727500", "164309.227500", "164310.727500", "164312.227500", "164313.727500", "164315.227500", "164316.727500", "164318.227500", "164319.727500", "164321.227500", "164322.727500", "164324.227500", "164325.727500", "164327.227500", "164328.727500", "164330.227500", "164331.727500", "164333.227500", "164334.727500", "164336.227500", "164337.727500", "164339.227500", "164340.727500", "164342.227500", "164343.727500", "164345.227500", "164346.727500", "164348.227500", "164349.727500", "164351.227500", "164352.727500", "164354.227500", "164355.727500", "164357.227500", "164358.727500", "164400.227500", "164401.727500", "164403.227500", "164404.727500", "164406.227500", "164407.727500", "164409.227500", "164410.727500", "164412.227500", "164413.727500", "164415.227500", "164416.727500", "164418.227500", "164419.727500", "164421.227500", "164422.727500", "164424.227500", "164425.727500", "164427.227500", "164428.727500", "164430.227500", "164431.727500", "164433.227500", "164434.727500", "164436.227500", "164437.727500", "164439.227500", "164440.727500", "164442.227500", "164443.727500", "164445.227500", "164446.727500", "164448.227500", "164449.727500", "164451.227500", "164452.727500", "164454.227500", "164455.727500", "164457.227500", "164458.727500", "164500.227500", "164501.727500", "164503.227500", "164504.727500", "164506.227500", "164507.727500", "164509.227500", "164510.727500", "164512.227500", "164513.727500", "164515.227500", "164516.727500", "164518.227500", "164519.727500", "164521.227500", "164522.727500", "164524.227500", "164525.727500", "164527.227500", "164528.727500", "164530.227500", "164531.727500", "164533.227500", "164534.727500", "164536.227500", "164537.727500", "164539.227500", "164540.727500", "164542.227500", "164543.727500", "164545.227500", "164546.727500", "164548.227500", "164549.727500", "164551.227500", "164552.727500", "164554.227500", "164555.727500", "164557.227500", "164558.727500", "164600.227500", "164601.727500", "164603.227500", "164604.727500", "164606.227500", "164607.727500", "164609.227500", "164610.727500", "164612.227500", "164613.727500", "164615.227500", "164616.727500", "164618.227500", "164619.727500", "164621.227500", "164622.727500", "164624.227500", "164625.727500", "164627.227500", "164628.727500", "164630.227500", "164631.727500", "164633.227500", "164634.727500", "164636.227500", "164637.727500", "164639.227500", "164640.727500", "164642.227500", "164643.727500", "164645.227500", "164646.727500", "164648.227500", "164649.727500", "164651.227500", "164652.727500", "164654.227500", "164655.727500", "164657.227500", "164658.727500", "164700.227500", "164701.727500", "164703.227500", "164704.727500", "164706.227500", "164707.727500", "164709.227500", "164710.727500", "164712.227500", "164713.727500", "164715.227500", "164716.727500", "164718.227500", "164719.727500", "164721.227500", "164722.727500", "164724.227500", "164725.727500", "164727.227500", "164728.727500", "164730.227500", "164731.727500", "164733.227500", "164734.727500", "164736.227500", "164737.727500", "164739.227500", "164740.727500", "164742.227500", "164743.727500", "164745.227500", "164746.727500", "164748.227500", "164749.727500", "164751.227500", "164752.727500", "164754.227500", "164755.727500", "164757.227500", "164758.727500", "164800.227500", "164801.727500", "164803.227500", "164804.727500", "164806.227500", "164807.727500", "164809.227500", "164810.727500", "164812.227500", "164813.727500", "164815.227500", "164816.727500", "164818.227500", "164819.727500", "164821.227500", "164822.727500", "164824.227500", "164825.727500", "164827.227500", "164828.727500", "164830.227500", "164831.727500", "164833.227500", "164834.727500", "164836.227500", "164837.727500", "164839.227500", "164840.727500", "164842.227500", "164843.727500", "164845.227500", "164846.727500", "164848.227500", "164849.727500", "164851.227500", "164852.727500", "164854.227500", "164855.727500", "164857.227500", "164858.727500", "164900.227500", "164901.727500", "164903.227500", "164904.727500", "164906.227500", "164907.727500", "164909.227500", "164910.727500", "164912.227500", "164913.727500", "164915.227500", "164916.727500", "164918.227500", "164919.727500", "164921.227500", "164922.727500", "164924.227500", "164925.727500", "164927.227500", "164928.727500", "164930.227500", "164931.727500", "164933.227500", "164934.727500", "164936.227500", "164937.727500", "164939.227500", "164940.727500", "164942.227500", "164943.727500", "164945.227500", "164946.727500", "164948.227500", "164949.727500", "164951.227500", "164952.727500", "164954.227500", "164955.727500", "164957.227500", "164958.727500", "165000.227500", "165001.727500", "165003.227500", "165004.727500", "165006.227500", "165007.727500", "165009.227500", "165010.727500", "165012.227500", "165013.727500", "165015.227500", "165016.727500", "165018.227500", "165019.727500", "165021.227500", "165022.727500", "165024.227500", "165025.727500", "165027.227500", "165028.727500", "165030.227500", "165031.727500", "165033.227500", "165034.727500", "165036.227500", "165037.727500", "165039.227500", "165040.727500", "165042.227500", "165043.727500", "165045.227500", "165046.727500", "165048.227500", "165049.727500", "165051.227500", "165052.727500", "165054.227500", "165055.727500", "165057.227500", "165058.727500", "165100.227500", "165101.727500", "165103.227500", "165104.727500", "165106.227500", "165107.727500", "165109.227500", "165110.727500", "165112.227500", "165113.727500", "165115.227500", "165116.727500", "165118.227500", "165119.727500", "165121.227500", "165122.727500", "165124.227500", "165125.727500", "165127.227500", "165128.727500", "165130.227500", "165131.727500", "165133.227500", "165134.727500", "165136.227500", "165137.727500", "165139.227500", "165140.727500", "165142.227500", "165143.727500", "165145.227500", "165146.727500", "165148.227500", "165149.727500", "165151.227500", "165152.727500", "165154.227500", "165155.727500", "165157.227500", "165158.727500", "165200.227500", "165201.727500", "165203.227500", "165204.727500", "165206.227500", "165207.727500", "165209.227500", "165210.727500", "165212.227500", "165213.727500", "165215.227500", "165216.727500", "165218.227500", "165219.727500", "165221.227500", "165222.727500", "165224.227500", "165225.727500", "165227.227500", "165228.727500", "165230.227500", "165231.727500", "165233.227500", "165234.727500", "165236.227500", "165237.727500", "165239.227500", "165240.727500", "165242.227500", "165243.727500", "165245.227500", "165246.727500", "165248.227500", "165249.727500", "165251.227500", "165252.727500", "165254.227500", "165255.727500", "165257.227500", "165258.727500", "165300.227500", "165301.727500", "165303.227500", "165304.727500", "165306.227500", "165307.727500", "165309.227500", "165310.727500", "165312.227500", "165313.727500", "165315.227500", "165316.727500", "165318.227500", "165319.727500", "165321.227500", "165322.727500", "165324.227500", "165325.727500", "165327.227500", "165328.727500", "165330.227500", "165331.727500", "165333.227500", "165334.727500", "165336.227500", "165337.727500", "165339.227500", "165340.727500", "165342.227500", "165343.727500", "165345.227500", "165346.727500", "165348.227500", "165349.727500", "165351.227500", "165352.727500", "165354.227500", "165355.727500", "165357.227500", "165358.727500", "165400.227500", "165401.727500", "165403.227500", "165404.727500", "165406.227500", "165407.727500", "165409.227500", "165410.727500", "165412.227500", "165413.727500", "165415.227500", "165416.727500", "165418.227500", "165419.727500", "165421.227500", "165422.727500", "165424.227500", "165425.727500", "165427.227500", "165428.727500", "165430.227500", "165431.727500", "165433.227500", "165434.727500", "165436.227500", "165437.727500", "165439.227500", "165440.727500", "165442.227500", "165443.727500", "165445.227500", "165446.727500", "165448.227500", "165449.727500", "165451.227500", "165452.727500", "165454.227500", "165455.727500", "165457.227500", "165458.727500", "165500.227500", "165501.727500", "165503.227500", "165504.727500", "165506.227500", "165507.727500", "165509.227500", "165510.727500", "165512.227500", "165513.727500", "165515.227500", "165516.727500", "165518.227500", "165519.727500", "165521.227500", "165522.727500", "165524.227500", "165525.727500", "165527.227500", "16