{
  "AcquisitionMatrixPE": 106,
  "AcquisitionNumber": 1,
  "AcquisitionTime": "14:40:0.745000",
  "BandwidthPerPixelPhaseEncode": 16.846,
  "BaseResolution": 106,
  "BodyPartExamined": "BRAIN",
  "CoilCombinationMethod": "Sum of Squares",
  "ConsistencyInfo": "N4_VE11C_LATEST_20160120",
  "ConversionSoftware": "dcm2niix",
  "ConversionSoftwareVersion": "v1.0.20220720",
  "DerivedVendorReportedEchoSpacing": 0.000560012,
  "DeviceSerialNumber": "166108",
  "DwellTime": 1.8e-06,
  "EchoTime": 0.0352,
  "EchoTrainLength": 106,
  "EffectiveEchoSpacing": 0.000560012,
  "FlipAngle": 60,
  "HeudiconvVersion": "1.3.0",
  "ImageComments": "Unaliased MB4/PE3/LB",
  "ImageOrientationPatientDICOM": [1, 0, 0, 0, 1, 0],
  "ImageOrientationText": "Tra",
  "ImageType": [
    "ORIGINAL",
    "PRIMARY",
    "M",
    "MB",
    "ND",
    "MOSAIC"
],
  "ImagingFrequency": 123.244,
  "InPlanePhaseEncodingDirectionDICOM": "COL",
  "InstitutionAddress": "Bedford Way 26,London,London,GB,WC1H 0AP",
  "InstitutionName": "University College",
  "InstitutionalDepartmentName": "Department",
  "MRAcquisitionType": "2D",
  "MagneticFieldStrength": 3,
  "Manufacturer": "Siemens",
  "ManufacturersModelName": "Prisma",
  "MatrixCoilMode": "SENSE",
  "Modality": "MR",
  "MultibandAccelerationFactor": 4,
  "NonlinearGradientCorrection": false,
  "PartialFourier": 1,
  "PatientPosition": "HFS",
  "PercentPhaseFOV": 100,
  "PercentSampling": 100,
  "PhaseEncodingDirection": "j-",
  "PhaseEncodingSteps": 106,
  "PhaseResolution": 1,
  "PixelBandwidth": 2620,
  "ProcedureStepDescription": "Egor^MovieProject2",
  "ProtocolName": "task-backtothefuture_run-2",
  "PulseSequenceDetails": "%CustomerSeq%\\cmrr_mbep2d_bold",
  "ReceiveCoilActiveElements": "HEA;HEP",
  "ReceiveCoilName": "Head_32",
  "ReconMatrixPE": 106,
  "RepetitionTime": 1.5,
  "SAR": 0.0977438,
  "ScanOptions": "FS\\EXT",
  "ScanningSequence": "EP",
  "SequenceName": "epfid2d1_106",
  "SequenceVariant": "SK\\SS",
  "SeriesDescription": "task-backtothefuture_run-2",
  "SeriesNumber": 7,
  "ShimSetting": [-1537, 608, 7410, 330, -113, 16, 29, -57],
  "SliceThickness": 2,
  "SliceTiming": [0, 1.07, 0.6575, 0.2475, 1.3175, 0.905, 0.495, 0.0825, 1.1525, 0.74, 0.33, 1.3975, 0.9875, 0.5775, 0.165, 1.235, 0.8225, 0.4125, 0, 1.07, 0.6575, 0.2475, 1.3175, 0.905, 0.495, 0.0825, 1.1525, 0.74, 0.33, 1.3975, 0.9875, 0.5775, 0.165, 1.235, 0.8225, 0.4125, 0, 1.07, 0.6575, 0.2475, 1.3175, 0.905, 0.495, 0.0825, 1.1525, 0.74, 0.33, 1.3975, 0.9875, 0.5775, 0.165, 1.235, 0.8225, 0.4125, 0, 1.07, 0.6575, 0.2475, 1.3175, 0.905, 0.495, 0.0825, 1.1525, 0.74, 0.33, 1.3975, 0.9875, 0.5775, 0.165, 1.235, 0.8225, 0.4125],
  "SoftwareVersions": "syngo MR E11",
  "SpacingBetweenSlices": 2,
  "StationName": "AWP166108",
  "TaskName": "backtothefuture",
  "TotalReadoutTime": 0.0588013,
  "TxRefAmp": 231.771,
  "WipMemBlock": "510b0fb0-1d81-463b-9389-2b863efa034a||Sequence: R016 ve11c/master r/e634e98; Dec 19 2017 11:00:25 by eja",
  "dcmmeta_affine": [
    [-2.0, 0.0, 0.0, 106.0],
    [0.0, 2.0, 0.0, -85.32530212402344],
    [0.0, 0.0, 2.0, -55.33734893798828],
    [0.0, 0.0, 0.0, 1.0]
],
  "dcmmeta_reorient_transform": [
    [0.0, -1.0, 0.0, 105.0],
    [1.0, 0.0, 0.0, 0.0],
    [0.0, 0.0, 1.0, 0.0],
    [0.0, 0.0, 0.0, 1.0]
],
  "dcmmeta_shape": [106, 106, 72, 1522],
  "dcmmeta_slice_dim": 2,
  "dcmmeta_version": 0.6,
  "global": {
    "const": {
      "AcquisitionMatrix": [106, 0, 0, 106],
      "AngioFlag": "N",
      "BitsAllocated": 16,
      "BitsStored": 16,
      "BodyPartExamined": "BRAIN",
      "CardiacNumberOfImages": 1,
      "Columns": 954,
      "EchoNumbers": 1,
      "EchoTime": 35.2,
      "EchoTrainLength": 106,
      "FlipAngle": 60.0,
      "HighBit": 15,
      "ImageOrientationPatient": [1.0, 0.0, 0.0, 0.0, 1.0, 0.0],
      "ImagePositionPatient": [-954.0, -972.67469787598, -55.337348937988],
      "ImageType": [
        "ORIGINAL",
        "PRIMARY",
        "M",
        "MB",
        "ND",
        "MOSAIC"
],
      "ImagedNucleus": "1H",
      "ImagingFrequency": 123.243648,
      "InPlanePhaseEncodingDirection": "COL",
      "MRAcquisitionType": "2D",
      "MagneticFieldStrength": 3.0,
      "Manufacturer": "SIEMENS",
      "ManufacturerModelName": "Prisma",
      "Modality": "MR",
      "NominalInterval": 0,
      "NumberOfAverages": 1.0,
      "NumberOfPhaseEncodingSteps": 106,
      "PercentPhaseFieldOfView": 100.0,
      "PercentSampling": 100.0,
      "PerformedProcedureStepStartTime": "133257.358000",
      "PhotometricInterpretation": "MONOCHROME2",
      "PixelBandwidth": 2620.0,
      "PixelRepresentation": 0,
      "PixelSpacing": [2.0, 2.0],
      "ProtocolName": "task-backtothefuture_run-2",
      "RepetitionTime": 1500.0,
      "Rows": 954,
      "SAR": 0.09774376445449,
      "SamplesPerPixel": 1,
      "ScanOptions": [
        "FS",
        "EXT"
],
      "ScanningSequence": "EP",
      "SequenceName": "epfid2d1_106",
      "SequenceVariant": [
        "SK",
        "SS"
],
      "SeriesDescription": "task-backtothefuture_run-2",
      "SeriesNumber": 7,
      "SeriesTime": "144052.007000",
      "SliceLocation": -55.337348937988,
      "SliceThickness": 2.0,
      "SmallestImagePixelValue": 0,
      "SoftwareVersions": "syngo MR E11",
      "SpacingBetweenSlices": 2.0,
      "SpecificCharacterSet": "ISO_IR 100",
      "StudyID": "1",
      "StudyTime": "133257.290000",
      "TransmitCoilName": "Body",
      "VariableFlipAngleFlag": "N",
      "WindowCenterWidthExplanation": "Algo1",
      "dBdt": 0.0},
    "slices": {}
  },
  "time": {
    "samples": {
      "AcquisitionNumber": [1, 2, 3, 4, 5, 6, 7, 8, 9, 10, 11, 12, 13, 14, 15, 16, 17, 18, 19, 20, 21, 22, 23, 24, 25, 26, 27, 28, 29, 30, 31, 32, 33, 34, 35, 36, 37, 38, 39, 40, 41, 42, 43, 44, 45, 46, 47, 48, 49, 50, 51, 52, 53, 54, 55, 56, 57, 58, 59, 60, 61, 62, 63, 64, 65, 66, 67, 68, 69, 70, 71, 72, 73, 74, 75, 76, 77, 78, 79, 80, 81, 82, 83, 84, 85, 86, 87, 88, 89, 90, 91, 92, 93, 94, 95, 96, 97, 98, 99, 100, 101, 102, 103, 104, 105, 106, 107, 108, 109, 110, 111, 112, 113, 114, 115, 116, 117, 118, 119, 120, 121, 122, 123, 124, 125, 126, 127, 128, 129, 130, 131, 132, 133, 134, 135, 136, 137, 138, 139, 140, 141, 142, 143, 144, 145, 146, 147, 148, 149, 150, 151, 152, 153, 154, 155, 156, 157, 158, 159, 160, 161, 162, 163, 164, 165, 166, 167, 168, 169, 170, 171, 172, 173, 174, 175, 176, 177, 178, 179, 180, 181, 182, 183, 184, 185, 186, 187, 188, 189, 190, 191, 192, 193, 194, 195, 196, 197, 198, 199, 200, 201, 202, 203, 204, 205, 206, 207, 208, 209, 210, 211, 212, 213, 214, 215, 216, 217, 218, 219, 220, 221, 222, 223, 224, 225, 226, 227, 228, 229, 230, 231, 232, 233, 234, 235, 236, 237, 238, 239, 240, 241, 242, 243, 244, 245, 246, 247, 248, 249, 250, 251, 252, 253, 254, 255, 256, 257, 258, 259, 260, 261, 262, 263, 264, 265, 266, 267, 268, 269, 270, 271, 272, 273, 274, 275, 276, 277, 278, 279, 280, 281, 282, 283, 284, 285, 286, 287, 288, 289, 290, 291, 292, 293, 294, 295, 296, 297, 298, 299, 300, 301, 302, 303, 304, 305, 306, 307, 308, 309, 310, 311, 312, 313, 314, 315, 316, 317, 318, 319, 320, 321, 322, 323, 324, 325, 326, 327, 328, 329, 330, 331, 332, 333, 334, 335, 336, 337, 338, 339, 340, 341, 342, 343, 344, 345, 346, 347, 348, 349, 350, 351, 352, 353, 354, 355, 356, 357, 358, 359, 360, 361, 362, 363, 364, 365, 366, 367, 368, 369, 370, 371, 372, 373, 374, 375, 376, 377, 378, 379, 380, 381, 382, 383, 384, 385, 386, 387, 388, 389, 390, 391, 392, 393, 394, 395, 396, 397, 398, 399, 400, 401, 402, 403, 404, 405, 406, 407, 408, 409, 410, 411, 412, 413, 414, 415, 416, 417, 418, 419, 420, 421, 422, 423, 424, 425, 426, 427, 428, 429, 430, 431, 432, 433, 434, 435, 436, 437, 438, 439, 440, 441, 442, 443, 444, 445, 446, 447, 448, 449, 450, 451, 452, 453, 454, 455, 456, 457, 458, 459, 460, 461, 462, 463, 464, 465, 466, 467, 468, 469, 470, 471, 472, 473, 474, 475, 476, 477, 478, 479, 480, 481, 482, 483, 484, 485, 486, 487, 488, 489, 490, 491, 492, 493, 494, 495, 496, 497, 498, 499, 500, 501, 502, 503, 504, 505, 506, 507, 508, 509, 510, 511, 512, 513, 514, 515, 516, 517, 518, 519, 520, 521, 522, 523, 524, 525, 526, 527, 528, 529, 530, 531, 532, 533, 534, 535, 536, 537, 538, 539, 540, 541, 542, 543, 544, 545, 546, 547, 548, 549, 550, 551, 552, 553, 554, 555, 556, 557, 558, 559, 560, 561, 562, 563, 564, 565, 566, 567, 568, 569, 570, 571, 572, 573, 574, 575, 576, 577, 578, 579, 580, 581, 582, 583, 584, 585, 586, 587, 588, 589, 590, 591, 592, 593, 594, 595, 596, 597, 598, 599, 600, 601, 602, 603, 604, 605, 606, 607, 608, 609, 610, 611, 612, 613, 614, 615, 616, 617, 618, 619, 620, 621, 622, 623, 624, 625, 626, 627, 628, 629, 630, 631, 632, 633, 634, 635, 636, 637, 638, 639, 640, 641, 642, 643, 644, 645, 646, 647, 648, 649, 650, 651, 652, 653, 654, 655, 656, 657, 658, 659, 660, 661, 662, 663, 664, 665, 666, 667, 668, 669, 670, 671, 672, 673, 674, 675, 676, 677, 678, 679, 680, 681, 682, 683, 684, 685, 686, 687, 688, 689, 690, 691, 692, 693, 694, 695, 696, 697, 698, 699, 700, 701, 702, 703, 704, 705, 706, 707, 708, 709, 710, 711, 712, 713, 714, 715, 716, 717, 718, 719, 720, 721, 722, 723, 724, 725, 726, 727, 728, 729, 730, 731, 732, 733, 734, 735, 736, 737, 738, 739, 740, 741, 742, 743, 744, 745, 746, 747, 748, 749, 750, 751, 752, 753, 754, 755, 756, 757, 758, 759, 760, 761, 762, 763, 764, 765, 766, 767, 768, 769, 770, 771, 772, 773, 774, 775, 776, 777, 778, 779, 780, 781, 782, 783, 784, 785, 786, 787, 788, 789, 790, 791, 792, 793, 794, 795, 796, 797, 798, 799, 800, 801, 802, 803, 804, 805, 806, 807, 808, 809, 810, 811, 812, 813, 814, 815, 816, 817, 818, 819, 820, 821, 822, 823, 824, 825, 826, 827, 828, 829, 830, 831, 832, 833, 834, 835, 836, 837, 838, 839, 840, 841, 842, 843, 844, 845, 846, 847, 848, 849, 850, 851, 852, 853, 854, 855, 856, 857, 858, 859, 860, 861, 862, 863, 864, 865, 866, 867, 868, 869, 870, 871, 872, 873, 874, 875, 876, 877, 878, 879, 880, 881, 882, 883, 884, 885, 886, 887, 888, 889, 890, 891, 892, 893, 894, 895, 896, 897, 898, 899, 900, 901, 902, 903, 904, 905, 906, 907, 908, 909, 910, 911, 912, 913, 914, 915, 916, 917, 918, 919, 920, 921, 922, 923, 924, 925, 926, 927, 928, 929, 930, 931, 932, 933, 934, 935, 936, 937, 938, 939, 940, 941, 942, 943, 944, 945, 946, 947, 948, 949, 950, 951, 952, 953, 954, 955, 956, 957, 958, 959, 960, 961, 962, 963, 964, 965, 966, 967, 968, 969, 970, 971, 972, 973, 974, 975, 976, 977, 978, 979, 980, 981, 982, 983, 984, 985, 986, 987, 988, 989, 990, 991, 992, 993, 994, 995, 996, 997, 998, 999, 1000, 1001, 1002, 1003, 1004, 1005, 1006, 1007, 1008, 1009, 1010, 1011, 1012, 1013, 1014, 1015, 1016, 1017, 1018, 1019, 1020, 1021, 1022, 1023, 1024, 1025, 1026, 1027, 1028, 1029, 1030, 1031, 1032, 1033, 1034, 1035, 1036, 1037, 1038, 1039, 1040, 1041, 1042, 1043, 1044, 1045, 1046, 1047, 1048, 1049, 1050, 1051, 1052, 1053, 1054, 1055, 1056, 1057, 1058, 1059, 1060, 1061, 1062, 1063, 1064, 1065, 1066, 1067, 1068, 1069, 1070, 1071, 1072, 1073, 1074, 1075, 1076, 1077, 1078, 1079, 1080, 1081, 1082, 1083, 1084, 1085, 1086, 1087, 1088, 1089, 1090, 1091, 1092, 1093, 1094, 1095, 1096, 1097, 1098, 1099, 1100, 1101, 1102, 1103, 1104, 1105, 1106, 1107, 1108, 1109, 1110, 1111, 1112, 1113, 1114, 1115, 1116, 1117, 1118, 1119, 1120, 1121, 1122, 1123, 1124, 1125, 1126, 1127, 1128, 1129, 1130, 1131, 1132, 1133, 1134, 1135, 1136, 1137, 1138, 1139, 1140, 1141, 1142, 1143, 1144, 1145, 1146, 1147, 1148, 1149, 1150, 1151, 1152, 1153, 1154, 1155, 1156, 1157, 1158, 1159, 1160, 1161, 1162, 1163, 1164, 1165, 1166, 1167, 1168, 1169, 1170, 1171, 1172, 1173, 1174, 1175, 1176, 1177, 1178, 1179, 1180, 1181, 1182, 1183, 1184, 1185, 1186, 1187, 1188, 1189, 1190, 1191, 1192, 1193, 1194, 1195, 1196, 1197, 1198, 1199, 1200, 1201, 1202, 1203, 1204, 1205, 1206, 1207, 1208, 1209, 1210, 1211, 1212, 1213, 1214, 1215, 1216, 1217, 1218, 1219, 1220, 1221, 1222, 1223, 1224, 1225, 1226, 1227, 1228, 1229, 1230, 1231, 1232, 1233, 1234, 1235, 1236, 1237, 1238, 1239, 1240, 1241, 1242, 1243, 1244, 1245, 1246, 1247, 1248, 1249, 1250, 1251, 1252, 1253, 1254, 1255, 1256, 1257, 1258, 1259, 1260, 1261, 1262, 1263, 1264, 1265, 1266, 1267, 1268, 1269, 1270, 1271, 1272, 1273, 1274, 1275, 1276, 1277, 1278, 1279, 1280, 1281, 1282, 1283, 1284, 1285, 1286, 1287, 1288, 1289, 1290, 1291, 1292, 1293, 1294, 1295, 1296, 1297, 1298, 1299, 1300, 1301, 1302, 1303, 1304, 1305, 1306, 1307, 1308, 1309, 1310, 1311, 1312, 1313, 1314, 1315, 1316, 1317, 1318, 1319, 1320, 1321, 1322, 1323, 1324, 1325, 1326, 1327, 1328, 1329, 1330, 1331, 1332, 1333, 1334, 1335, 1336, 1337, 1338, 1339, 1340, 1341, 1342, 1343, 1344, 1345, 1346, 1347, 1348, 1349, 1350, 1351, 1352, 1353, 1354, 1355, 1356, 1357, 1358, 1359, 1360, 1361, 1362, 1363, 1364, 1365, 1366, 1367, 1368, 1369, 1370, 1371, 1372, 1373, 1374, 1375, 1376, 1377, 1378, 1379, 1380, 1381, 1382, 1383, 1384, 1385, 1386, 1387, 1388, 1389, 1390, 1391, 1392, 1393, 1394, 1395, 1396, 1397, 1398, 1399, 1400, 1401, 1402, 1403, 1404, 1405, 1406, 1407, 1408, 1409, 1410, 1411, 1412, 1413, 1414, 1415, 1416, 1417, 1418, 1419, 1420, 1421, 1422, 1423, 1424, 1425, 1426, 1427, 1428, 1429, 1430, 1431, 1432, 1433, 1434, 1435, 1436, 1437, 1438, 1439, 1440, 1441, 1442, 1443, 1444, 1445, 1446, 1447, 1448, 1449, 1450, 1451, 1452, 1453, 1454, 1455, 1456, 1457, 1458, 1459, 1460, 1461, 1462, 1463, 1464, 1465, 1466, 1467, 1468, 1469, 1470, 1471, 1472, 1473, 1474, 1475, 1476, 1477, 1478, 1479, 1480, 1481, 1482, 1483, 1484, 1485, 1486, 1487, 1488, 1489, 1490, 1491, 1492, 1493, 1494, 1495, 1496, 1497, 1498, 1499, 1500, 1501, 1502, 1503, 1504, 1505, 1506, 1507, 1508, 1509, 1510, 1511, 1512, 1513, 1514, 1515, 1516, 1517, 1518, 1519, 1520, 1521, 1522],
      "AcquisitionTime": ["144000.745000", "144002.245000", "144003.745000", "144005.245000", "144006.745000", "144008.245000", "144009.745000", "144011.245000", "144012.745000", "144014.245000", "144015.745000", "144017.245000", "144018.745000", "144020.245000", "144021.745000", "144023.245000", "144024.745000", "144026.245000", "144027.745000", "144029.245000", "144030.745000", "144032.245000", "144033.745000", "144035.245000", "144036.745000", "144038.245000", "144039.745000", "144041.245000", "144042.745000", "144044.245000", "144045.745000", "144047.245000", "144048.745000", "144050.245000", "144051.745000", "144053.245000", "144054.745000", "144056.245000", "144057.745000", "144059.245000", "144100.745000", "144102.245000", "144103.745000", "144105.245000", "144106.745000", "144108.245000", "144109.745000", "144111.245000", "144112.745000", "144114.245000", "144115.745000", "144117.245000", "144118.745000", "144120.245000", "144121.745000", "144123.245000", "144124.745000", "144126.245000", "144127.745000", "144129.245000", "144130.745000", "144132.245000", "144133.745000", "144135.245000", "144136.745000", "144138.245000", "144139.745000", "144141.245000", "144142.745000", "144144.245000", "144145.745000", "144147.245000", "144148.745000", "144150.245000", "144151.745000", "144153.245000", "144154.745000", "144156.245000", "144157.745000", "144159.245000", "144200.745000", "144202.245000", "144203.745000", "144205.245000", "144206.745000", "144208.245000", "144209.745000", "144211.245000", "144212.745000", "144214.245000", "144215.745000", "144217.245000", "144218.745000", "144220.245000", "144221.745000", "144223.245000", "144224.745000", "144226.245000", "144227.745000", "144229.245000", "144230.745000", "144232.245000", "144233.745000", "144235.245000", "144236.745000", "144238.245000", "144239.745000", "144241.245000", "144242.745000", "144244.245000", "144245.745000", "144247.245000", "144248.745000", "144250.245000", "144251.745000", "144253.245000", "144254.745000", "144256.245000", "144257.745000", "144259.245000", "144300.745000", "144302.245000", "144303.745000", "144305.245000", "144306.745000", "144308.245000", "144309.745000", "144311.245000", "144312.745000", "144314.245000", "144315.745000", "144317.245000", "144318.745000", "144320.245000", "144321.745000", "144323.245000", "144324.745000", "144326.245000", "144327.745000", "144329.245000", "144330.745000", "144332.245000", "144333.745000", "144335.245000", "144336.745000", "144338.245000", "144339.745000", "144341.245000", "144342.745000", "144344.245000", "144345.745000", "144347.245000", "144348.745000", "144350.245000", "144351.745000", "144353.245000", "144354.745000", "144356.245000", "144357.745000", "144359.245000", "144400.745000", "144402.245000", "144403.745000", "144405.245000", "144406.745000", "144408.245000", "144409.745000", "144411.245000", "144412.745000", "144414.245000", "144415.745000", "144417.245000", "144418.745000", "144420.245000", "144421.745000", "144423.245000", "144424.745000", "144426.245000", "144427.745000", "144429.245000", "144430.745000", "144432.245000", "144433.745000", "144435.245000", "144436.745000", "144438.245000", "144439.745000", "144441.245000", "144442.745000", "144444.245000", "144445.745000", "144447.245000", "144448.745000", "144450.245000", "144451.745000", "144453.245000", "144454.745000", "144456.245000", "144457.745000", "144459.245000", "144500.745000", "144502.245000", "144503.745000", "144505.245000", "144506.745000", "144508.245000", "144509.745000", "144511.245000", "144512.745000", "144514.245000", "144515.745000", "144517.245000", "144518.745000", "144520.245000", "144521.745000", "144523.245000", "144524.745000", "144526.245000", "144527.745000", "144529.245000", "144530.745000", "144532.245000", "144533.745000", "144535.245000", "144536.745000", "144538.245000", "144539.745000", "144541.245000", "144542.745000", "144544.245000", "144545.745000", "144547.245000", "144548.745000", "144550.245000", "144551.745000", "144553.245000", "144554.745000", "144556.245000", "144557.745000", "144559.245000", "144600.745000", "144602.245000", "144603.745000", "144605.245000", "144606.745000", "144608.245000", "144609.745000", "144611.245000", "144612.745000", "144614.245000", "144615.745000", "144617.245000", "144618.745000", "144620.245000", "144621.745000", "144623.245000", "144624.745000", "144626.245000", "144627.745000", "144629.245000", "144630.745000", "144632.245000", "144633.745000", "144635.245000", "144636.745000", "144638.245000", "144639.745000", "144641.245000", "144642.745000", "144644.245000", "144645.745000", "144647.245000", "144648.745000", "144650.245000", "144651.745000", "144653.245000", "144654.745000", "144656.245000", "144657.745000", "144659.245000", "144700.745000", "144702.245000", "144703.745000", "144705.245000", "144706.745000", "144708.245000", "144709.745000", "144711.245000", "144712.745000", "144714.245000", "144715.745000", "144717.245000", "144718.745000", "144720.245000", "144721.745000", "144723.245000", "144724.745000", "144726.245000", "144727.745000", "144729.245000", "144730.745000", "144732.245000", "144733.745000", "144735.245000", "144736.745000", "144738.245000", "144739.745000", "144741.245000", "144742.745000", "144744.245000", "144745.745000", "144747.245000", "144748.745000", "144750.245000", "144751.745000", "144753.245000", "144754.745000", "144756.245000", "144757.745000", "144759.245000", "144800.745000", "144802.245000", "144803.745000", "144805.245000", "144806.745000", "144808.245000", "144809.745000", "144811.245000", "144812.745000", "144814.245000", "144815.745000", "144817.245000", "144818.745000", "144820.245000", "144821.745000", "144823.245000", "144824.745000", "144826.245000", "144827.745000", "144829.245000", "144830.745000", "144832.245000", "144833.745000", "144835.245000", "144836.745000", "144838.245000", "144839.745000", "144841.245000", "144842.745000", "144844.245000", "144845.745000", "144847.245000", "144848.745000", "144850.245000", "144851.745000", "144853.245000", "144854.745000", "144856.245000", "144857.745000", "144859.245000", "144900.745000", "144902.245000", "144903.745000", "144905.245000", "144906.745000", "144908.245000", "144909.745000", "144911.245000", "144912.745000", "144914.245000", "144915.745000", "144917.245000", "144918.745000", "144920.245000", "144921.745000", "144923.245000", "144924.745000", "144926.245000", "144927.745000", "144929.245000", "144930.745000", "144932.245000", "144933.745000", "144935.245000", "144936.745000", "144938.245000", "144939.745000", "144941.245000", "144942.745000", "144944.245000", "144945.745000", "144947.245000", "144948.745000", "144950.245000", "144951.745000", "144953.245000", "144954.745000", "144956.245000", "144957.745000", "144959.245000", "145000.745000", "145002.245000", "145003.745000", "145005.245000", "145006.745000", "145008.245000", "145009.745000", "145011.245000", "145012.745000", "145014.245000", "145015.745000", "145017.245000", "145018.745000", "145020.245000", "145021.745000", "145023.245000", "145024.745000", "145026.245000", "145027.745000", "145029.245000", "145030.745000", "145032.245000", "145033.745000", "145035.245000", "145036.745000", "145038.245000", "145039.745000", "145041.245000", "145042.745000", "145044.245000", "145045.745000", "145047.245000", "145048.745000", "145050.245000", "145051.745000", "145053.245000", "145054.745000", "145056.245000", "145057.745000", "145059.245000", "145100.745000", "145102.245000", "145103.745000", "145105.245000", "145106.745000", "145108.245000", "145109.745000", "145111.245000", "145112.745000", "145114.245000", "145115.745000", "145117.245000", "145118.745000", "145120.245000", "145121.745000", "145123.245000", "145124.745000", "145126.245000", "145127.745000", "145129.245000", "145130.745000", "145132.245000", "145133.745000", "145135.245000", "145136.745000", "145138.245000", "145139.745000", "145141.245000", "145142.745000", "145144.245000", "145145.745000", "145147.245000", "145148.745000", "145150.245000", "145151.745000", "145153.245000", "145154.745000", "145156.245000", "145157.745000", "145159.245000", "145200.745000", "145202.245000", "145203.745000", "145205.245000", "145206.745000", "145208.245000", "145209.745000", "145211.245000", "145212.745000", "145214.245000", "145215.745000", "145217.245000", "145218.745000", "145220.245000", "145221.745000", "145223.245000", "145224.745000", "145226.245000", "145227.745000", "145229.245000", "145230.745000", "145232.245000", "145233.745000", "145235.245000", "145236.745000", "145238.245000", "145239.745000", "145241.245000", "145242.745000", "145244.245000", "145245.745000", "145247.245000", "145248.745000", "145250.245000", "145251.745000", "145253.245000", "145254.745000", "145256.245000", "145257.745000", "145259.245000", "145300.745000", "145302.245000", "145303.745000", "145305.245000", "145306.745000", "145308.245000", "145309.745000", "145311.245000", "145312.745000", "145314.245000", "145315.745000", "145317.245000", "145318.745000", "145320.245000", "145321.745000", "145323.245000", "145324.745000", "145326.245000", "145327.745000", "145329.245000", "145330.745000", "145332.245000", "145333.745000", "145335.245000", "145336.745000", "145338.245000", "145339.745000", "145341.245000", "145342.745000", "145344.245000", "145345.745000", "145347.245000", "145348.745000", "145350.245000", "145351.745000", "145353.245000", "145354.745000", "145356.245000", "145357.745000", "145359.245000", "145400.745000", "145402.245000", "145403.745000", "145405.245000", "145406.745000", "145408.245000", "145409.745000", "145411.245000", "145412.745000", "145414.245000", "145415.745000", "145417.245000", "145418.745000", "145420.245000", "145421.745000", "145423.245000", "145424.745000", "145426.245000", "145427.745000", "145429.245000", "145430.745000", "145432.245000", "145433.745000", "145435.245000", "145436.745000", "145438.245000", "145439.745000", "145441.245000", "145442.745000", "145444.245000", "145445.745000", "145447.245000", "145448.745000", "145450.245000", "145451.745000", "145453.245000", "145454.745000", "145456.245000", "145457.745000", "145459.245000", "145500.745000", "145502.245000", "145503.745000", "145505.245000", "145506.745000", "145508.245000", "145509.745000", "145511.245000", "145512.745000", "145514.245000", "145515.745000", "145517.245000", "145518.745000", "145520.245000", "145521.745000", "145523.245000", "145524.745000", "145526.245000", "145527.745000", "145529.245000", "145530.745000", "145532.245000", "145533.745000", "145535.245000", "145536.745000", "145538.245000", "145539.745000", "145541.245000", "145542.745000", "145544.245000", "145545.745000", "145547.245000", "145548.745000", "145550.245000", "145551.745000", "145553.245000", "145554.745000", "145556.245000", "145557.745000", "145559.245000", "145600.745000", "145602.245000", "145603.745000", "145605.245000", "145606.745000", "145608.245000", "145609.745000", "145611.245000", "145612.745000", "145614.245000", "145615.745000", "145617.245000", "145618.745000", "145620.245000", "145621.745000", "145623.245000", "145624.745000", "145626.245000", "145627.745000", "145629.245000", "145630.745000", "145632.245000", "145633.745000", "145635.245000", "145636.745000", "145638.245000", "145639.745000", "145641.245000", "145642.745000", "145644.245000", "145645.745000", "145647.245000", "145648.745000", "145650.245000", "145651.745000", "145653.245000", "145654.745000", "145656.245000", "145657.745000", "145659.245000", "145700.745000", "145702.245000", "145703.745000", "145705.245000", "145706.745000", "145708.245000", "145709.745000", "145711.245000", "145712.745000", "145714.245000", "145715.745000", "145717.245000", "145718.745000", "145720.245000", "145721.745000", "145723.245000", "145724.745000", "145726.245000", "145727.745000", "145729.245000", "145730.745000", "145732.245000", "145733.745000", "145735.245000", "145736.745000", "145738.245000", "145739.745000", "145741.245000", "145742.745000", "145744.245000", "145745.745000", "145747.245000", "145748.745000", "145750.245000", "145751.745000", "145753.245000", "145754.745000", "145756.245000", "145757.745000", "145759.245000", "145800.745000", "145802.245000", "145803.745000", "145805.245000", "145806.745000", "145808.245000", "145809.745000", "145811.245000", "145812.745000", "145814.245000", "145815.745000", "145817.245000", "145818.745000", "145820.245000", "145821.745000", "145823.245000", "145824.745000", "145826.245000", "145827.745000", "145829.245000", "145830.745000", "145832.245000", "145833.745000", "145835.245000", "145836.745000", "145838.245000", "145839.745000", "145841.245000", "145842.745000", "145844.245000", "145845.745000", "145847.245000", "145848.745000", "145850.245000", "145851.745000", "145853.245000", "145854.745000", "145856.245000", "145857.745000", "145859.245000", "145900.745000", "145902.245000", "145903.745000", "145905.245000", "145906.745000", "145908.245000", "145909.745000", "145911.245000", "145912.745000", "145914.245000", "145915.745000", "145917.245000", "145918.745000", "145920.245000", "145921.745000", "145923.245000", "145924.745000", "145926.245000", "145927.745000", "145929.245000", "145930.745000", "145932.245000", "145933.745000", "145935.245000", "145936.745000", "145938.245000", "145939.745000", "145941.245000", "145942.745000", "145944.245000", "145945.745000", "145947.245000", "145948.745000", "145950.245000", "145951.745000", "145953.245000", "145954.745000", "145956.245000", "145957.745000", "145959.245000", "150000.745000", "150002.245000", "150003.745000", "150005.245000", "150006.745000", "150008.245000", "150009.745000", "150011.245000", "150012.745000", "150014.245000", "150015.745000", "150017.245000", "150018.745000", "150020.245000", "150021.745000", "150023.245000", "150024.745000", "150026.245000", "150027.745000", "150029.245000", "150030.745000", "150032.245000", "150033.745000", "150035.245000", "150036.745000", "150038.245000", "150039.745000", "150041.245000", "150042.745000", "150044.245000", "150045.745000", "150047.245000", "150048.745000", "150050.245000", "150051.745000", "150053.245000", "150054.745000", "150056.245000", "150057.745000", "150059.245000", "150100.745000", "150102.245000", "150103.745000", "150105.245000", "150106.745000", "150108.245000", "150109.745000", "150111.245000", "150112.745000", "150114.245000", "150115.745000", "150117.245000", "150118.745000", "150120.245000", "150121.745000", "150123.245000", "150124.745000", "150126.245000", "150127.745000", "150129.245000", "150130.745000", "150132.245000", "150133.745000", "150135.245000", "150136.745000", "150138.245000", "150139.745000", "150141.245000", "150142.745000", "150144.245000", "150145.745000", "150147.245000", "150148.745000", "150150.245000", "150151.745000", "150153.245000", "150154.745000", "150156.245000", "150157.745000", "150159.245000", "150200.745000", "150202.245000", "150203.745000", "150205.245000", "150206.745000", "150208.245000", "150209.745000", "150211.245000", "150212.745000", "150214.245000", "150215.745000", "150217.245000", "150218.745000", "150220.245000", "150221.745000", "150223.245000", "150224.745000", "150226.245000", "150227.745000", "150229.245000", "150230.745000", "150232.245000", "150233.745000", "150235.245000", "150236.745000", "150238.245000", "150239.745000", "150241.245000", "150242.745000", "150244.245000", "150245.745000", "150247.245000", "150248.745000", "150250.245000", "150251.745000", "150253.245000", "150254.745000", "150256.245000", "150257.745000", "150259.245000", "150300.745000", "150302.245000", "150303.745000", "150305.245000", "150306.745000", "150308.245000", "150309.745000", "150311.245000", "150312.745000", "150314.245000", "150315.745000", "150317.245000", "150318.745000", "150320.245000", "150321.745000", "150323.245000", "150324.745000", "150326.245000", "150327.745000", "150329.245000", "150330.745000", "150332.245000", "150333.745000", "150335.245000", "150336.745000", "150338.245000", "150339.745000", "150341.245000", "150342.745000", "150344.245000", "150345.745000", "150347.245000", "150348.745000", "150350.245000", "150351.745000", "150353.245000", "150354.745000", "150356.245000", "150357.745000", "150359.245000", "150400.74