{
  "AcquisitionMatrixPE": 106,
  "AcquisitionNumber": 1,
  "AcquisitionTime": "15:21:31.210000",
  "BandwidthPerPixelPhaseEncode": 16.846,
  "BaseResolution": 106,
  "BodyPartExamined": "BRAIN",
  "CoilCombinationMethod": "Sum of Squares",
  "ConsistencyInfo": "N4_VE11C_LATEST_20160120",
  "ConversionSoftware": "dcm2niix",
  "ConversionSoftwareVersion": "v1.0.20220720",
  "DerivedVendorReportedEchoSpacing": 0.000560012,
  "DeviceSerialNumber": "166108",
  "DwellTime": 1.8e-06,
  "EchoTime": 0.0352,
  "EchoTrainLength": 106,
  "EffectiveEchoSpacing": 0.000560012,
  "FlipAngle": 60,
  "HeudiconvVersion": "1.3.0",
  "ImageComments": "Unaliased MB4/PE3/LB",
  "ImageOrientationPatientDICOM": [1, 0, 0, 0, 1, 0],
  "ImageOrientationText": "Tra",
  "ImageType": [
    "ORIGINAL",
    "PRIMARY",
    "M",
    "MB",
    "ND",
    "MOSAIC"
],
  "ImagingFrequency": 123.244,
  "InPlanePhaseEncodingDirectionDICOM": "COL",
  "InstitutionAddress": "Bedford Way 26,London,London,GB,WC1H 0AP",
  "InstitutionName": "University College",
  "InstitutionalDepartmentName": "Department",
  "MRAcquisitionType": "2D",
  "MagneticFieldStrength": 3,
  "Manufacturer": "Siemens",
  "ManufacturersModelName": "Prisma",
  "MatrixCoilMode": "SENSE",
  "Modality": "MR",
  "MultibandAccelerationFactor": 4,
  "NonlinearGradientCorrection": false,
  "PartialFourier": 1,
  "PatientPosition": "HFS",
  "PercentPhaseFOV": 100,
  "PercentSampling": 100,
  "PhaseEncodingDirection": "j-",
  "PhaseEncodingSteps": 106,
  "PhaseResolution": 1,
  "PixelBandwidth": 2620,
  "ProcedureStepDescription": "Egor^MovieProject2",
  "ProtocolName": "task-backtothefuture_run-3",
  "PulseSequenceDetails": "%CustomerSeq%\\cmrr_mbep2d_bold",
  "ReceiveCoilActiveElements": "HEA;HEP",
  "ReceiveCoilName": "Head_32",
  "ReconMatrixPE": 106,
  "RepetitionTime": 1.5,
  "SAR": 0.0977522,
  "ScanOptions": "FS\\EXT",
  "ScanningSequence": "EP",
  "SequenceName": "epfid2d1_106",
  "SequenceVariant": "SK\\SS",
  "SeriesDescription": "task-backtothefuture_run-3",
  "SeriesNumber": 11,
  "ShimSetting": [-1537, 608, 7410, 330, -113, 16, 29, -57],
  "SliceThickness": 2,
  "SliceTiming": [0, 1.0675, 0.6575, 0.245, 1.315, 0.9025, 0.4925, 0.08, 1.15, 0.74, 0.3275, 1.3975, 0.985, 0.575, 0.1625, 1.2325, 0.82, 0.41, 0, 1.0675, 0.6575, 0.245, 1.315, 0.9025, 0.4925, 0.08, 1.15, 0.74, 0.3275, 1.3975, 0.985, 0.575, 0.1625, 1.2325, 0.82, 0.41, 0, 1.0675, 0.6575, 0.245, 1.315, 0.9025, 0.4925, 0.08, 1.15, 0.74, 0.3275, 1.3975, 0.985, 0.575, 0.1625, 1.2325, 0.82, 0.41, 0, 1.0675, 0.6575, 0.245, 1.315, 0.9025, 0.4925, 0.08, 1.15, 0.74, 0.3275, 1.3975, 0.985, 0.575, 0.1625, 1.2325, 0.82, 0.41],
  "SoftwareVersions": "syngo MR E11",
  "SpacingBetweenSlices": 2,
  "StationName": "AWP166108",
  "TaskName": "backtothefuture",
  "TotalReadoutTime": 0.0588013,
  "TxRefAmp": 231.771,
  "WipMemBlock": "7f9b6552-3c20-4ca4-b6e7-ac8af001e415||Sequence: R016 ve11c/master r/e634e98; Dec 19 2017 11:00:25 by eja",
  "dcmmeta_affine": [
    [-2.0, 0.0, 0.0, 106.0],
    [0.0, 2.0, 0.0, -85.32530212402344],
    [0.0, 0.0, 2.0, -55.33734893798828],
    [0.0, 0.0, 0.0, 1.0]
],
  "dcmmeta_reorient_transform": [
    [0.0, -1.0, 0.0, 105.0],
    [1.0, 0.0, 0.0, 0.0],
    [0.0, 0.0, 1.0, 0.0],
    [0.0, 0.0, 0.0, 1.0]
],
  "dcmmeta_shape": [106, 106, 72, 1608],
  "dcmmeta_slice_dim": 2,
  "dcmmeta_version": 0.6,
  "global": {
    "const": {
      "AcquisitionMatrix": [106, 0, 0, 106],
      "AngioFlag": "N",
      "BitsAllocated": 16,
      "BitsStored": 16,
      "BodyPartExamined": "BRAIN",
      "CardiacNumberOfImages": 1,
      "Columns": 954,
      "EchoNumbers": 1,
      "EchoTime": 35.2,
      "EchoTrainLength": 106,
      "FlipAngle": 60.0,
      "HighBit": 15,
      "ImageOrientationPatient": [1.0, 0.0, 0.0, 0.0, 1.0, 0.0],
      "ImagePositionPatient": [-954.0, -972.67469787598, -55.337348937988],
      "ImageType": [
        "ORIGINAL",
        "PRIMARY",
        "M",
        "MB",
        "ND",
        "MOSAIC"
],
      "ImagedNucleus": "1H",
      "ImagingFrequency": 123.243666,
      "InPlanePhaseEncodingDirection": "COL",
      "MRAcquisitionType": "2D",
      "MagneticFieldStrength": 3.0,
      "Manufacturer": "SIEMENS",
      "ManufacturerModelName": "Prisma",
      "Modality": "MR",
      "NominalInterval": 0,
      "NumberOfAverages": 1.0,
      "NumberOfPhaseEncodingSteps": 106,
      "PercentPhaseFieldOfView": 100.0,
      "PercentSampling": 100.0,
      "PerformedProcedureStepStartTime": "133257.358000",
      "PhotometricInterpretation": "MONOCHROME2",
      "PixelBandwidth": 2620.0,
      "PixelRepresentation": 0,
      "PixelSpacing": [2.0, 2.0],
      "ProtocolName": "task-backtothefuture_run-3",
      "RepetitionTime": 1500.0,
      "Rows": 954,
      "SAR": 0.09775217631448,
      "SamplesPerPixel": 1,
      "ScanOptions": [
        "FS",
        "EXT"
],
      "ScanningSequence": "EP",
      "SequenceName": "epfid2d1_106",
      "SequenceVariant": [
        "SK",
        "SS"
],
      "SeriesDescription": "task-backtothefuture_run-3",
      "SeriesNumber": 11,
      "SeriesTime": "152229.055000",
      "SliceLocation": -55.337348937988,
      "SliceThickness": 2.0,
      "SmallestImagePixelValue": 0,
      "SoftwareVersions": "syngo MR E11",
      "SpacingBetweenSlices": 2.0,
      "SpecificCharacterSet": "ISO_IR 100",
      "StudyID": "1",
      "StudyTime": "133257.290000",
      "TransmitCoilName": "Body",
      "VariableFlipAngleFlag": "N",
      "WindowCenterWidthExplanation": "Algo1",
      "dBdt": 0.0},
    "slices": {}
  },
  "time": {
    "samples": {
      "AcquisitionNumber": [1, 2, 3, 4, 5, 6, 7, 8, 9, 10, 11, 12, 13, 14, 15, 16, 17, 18, 19, 20, 21, 22, 23, 24, 25, 26, 27, 28, 29, 30, 31, 32, 33, 34, 35, 36, 37, 38, 39, 40, 41, 42, 43, 44, 45, 46, 47, 48, 49, 50, 51, 52, 53, 54, 55, 56, 57, 58, 59, 60, 61, 62, 63, 64, 65, 66, 67, 68, 69, 70, 71, 72, 73, 74, 75, 76, 77, 78, 79, 80, 81, 82, 83, 84, 85, 86, 87, 88, 89, 90, 91, 92, 93, 94, 95, 96, 97, 98, 99, 100, 101, 102, 103, 104, 105, 106, 107, 108, 109, 110, 111, 112, 113, 114, 115, 116, 117, 118, 119, 120, 121, 122, 123, 124, 125, 126, 127, 128, 129, 130, 131, 132, 133, 134, 135, 136, 137, 138, 139, 140, 141, 142, 143, 144, 145, 146, 147, 148, 149, 150, 151, 152, 153, 154, 155, 156, 157, 158, 159, 160, 161, 162, 163, 164, 165, 166, 167, 168, 169, 170, 171, 172, 173, 174, 175, 176, 177, 178, 179, 180, 181, 182, 183, 184, 185, 186, 187, 188, 189, 190, 191, 192, 193, 194, 195, 196, 197, 198, 199, 200, 201, 202, 203, 204, 205, 206, 207, 208, 209, 210, 211, 212, 213, 214, 215, 216, 217, 218, 219, 220, 221, 222, 223, 224, 225, 226, 227, 228, 229, 230, 231, 232, 233, 234, 235, 236, 237, 238, 239, 240, 241, 242, 243, 244, 245, 246, 247, 248, 249, 250, 251, 252, 253, 254, 255, 256, 257, 258, 259, 260, 261, 262, 263, 264, 265, 266, 267, 268, 269, 270, 271, 272, 273, 274, 275, 276, 277, 278, 279, 280, 281, 282, 283, 284, 285, 286, 287, 288, 289, 290, 291, 292, 293, 294, 295, 296, 297, 298, 299, 300, 301, 302, 303, 304, 305, 306, 307, 308, 309, 310, 311, 312, 313, 314, 315, 316, 317, 318, 319, 320, 321, 322, 323, 324, 325, 326, 327, 328, 329, 330, 331, 332, 333, 334, 335, 336, 337, 338, 339, 340, 341, 342, 343, 344, 345, 346, 347, 348, 349, 350, 351, 352, 353, 354, 355, 356, 357, 358, 359, 360, 361, 362, 363, 364, 365, 366, 367, 368, 369, 370, 371, 372, 373, 374, 375, 376, 377, 378, 379, 380, 381, 382, 383, 384, 385, 386, 387, 388, 389, 390, 391, 392, 393, 394, 395, 396, 397, 398, 399, 400, 401, 402, 403, 404, 405, 406, 407, 408, 409, 410, 411, 412, 413, 414, 415, 416, 417, 418, 419, 420, 421, 422, 423, 424, 425, 426, 427, 428, 429, 430, 431, 432, 433, 434, 435, 436, 437, 438, 439, 440, 441, 442, 443, 444, 445, 446, 447, 448, 449, 450, 451, 452, 453, 454, 455, 456, 457, 458, 459, 460, 461, 462, 463, 464, 465, 466, 467, 468, 469, 470, 471, 472, 473, 474, 475, 476, 477, 478, 479, 480, 481, 482, 483, 484, 485, 486, 487, 488, 489, 490, 491, 492, 493, 494, 495, 496, 497, 498, 499, 500, 501, 502, 503, 504, 505, 506, 507, 508, 509, 510, 511, 512, 513, 514, 515, 516, 517, 518, 519, 520, 521, 522, 523, 524, 525, 526, 527, 528, 529, 530, 531, 532, 533, 534, 535, 536, 537, 538, 539, 540, 541, 542, 543, 544, 545, 546, 547, 548, 549, 550, 551, 552, 553, 554, 555, 556, 557, 558, 559, 560, 561, 562, 563, 564, 565, 566, 567, 568, 569, 570, 571, 572, 573, 574, 575, 576, 577, 578, 579, 580, 581, 582, 583, 584, 585, 586, 587, 588, 589, 590, 591, 592, 593, 594, 595, 596, 597, 598, 599, 600, 601, 602, 603, 604, 605, 606, 607, 608, 609, 610, 611, 612, 613, 614, 615, 616, 617, 618, 619, 620, 621, 622, 623, 624, 625, 626, 627, 628, 629, 630, 631, 632, 633, 634, 635, 636, 637, 638, 639, 640, 641, 642, 643, 644, 645, 646, 647, 648, 649, 650, 651, 652, 653, 654, 655, 656, 657, 658, 659, 660, 661, 662, 663, 664, 665, 666, 667, 668, 669, 670, 671, 672, 673, 674, 675, 676, 677, 678, 679, 680, 681, 682, 683, 684, 685, 686, 687, 688, 689, 690, 691, 692, 693, 694, 695, 696, 697, 698, 699, 700, 701, 702, 703, 704, 705, 706, 707, 708, 709, 710, 711, 712, 713, 714, 715, 716, 717, 718, 719, 720, 721, 722, 723, 724, 725, 726, 727, 728, 729, 730, 731, 732, 733, 734, 735, 736, 737, 738, 739, 740, 741, 742, 743, 744, 745, 746, 747, 748, 749, 750, 751, 752, 753, 754, 755, 756, 757, 758, 759, 760, 761, 762, 763, 764, 765, 766, 767, 768, 769, 770, 771, 772, 773, 774, 775, 776, 777, 778, 779, 780, 781, 782, 783, 784, 785, 786, 787, 788, 789, 790, 791, 792, 793, 794, 795, 796, 797, 798, 799, 800, 801, 802, 803, 804, 805, 806, 807, 808, 809, 810, 811, 812, 813, 814, 815, 816, 817, 818, 819, 820, 821, 822, 823, 824, 825, 826, 827, 828, 829, 830, 831, 832, 833, 834, 835, 836, 837, 838, 839, 840, 841, 842, 843, 844, 845, 846, 847, 848, 849, 850, 851, 852, 853, 854, 855, 856, 857, 858, 859, 860, 861, 862, 863, 864, 865, 866, 867, 868, 869, 870, 871, 872, 873, 874, 875, 876, 877, 878, 879, 880, 881, 882, 883, 884, 885, 886, 887, 888, 889, 890, 891, 892, 893, 894, 895, 896, 897, 898, 899, 900, 901, 902, 903, 904, 905, 906, 907, 908, 909, 910, 911, 912, 913, 914, 915, 916, 917, 918, 919, 920, 921, 922, 923, 924, 925, 926, 927, 928, 929, 930, 931, 932, 933, 934, 935, 936, 937, 938, 939, 940, 941, 942, 943, 944, 945, 946, 947, 948, 949, 950, 951, 952, 953, 954, 955, 956, 957, 958, 959, 960, 961, 962, 963, 964, 965, 966, 967, 968, 969, 970, 971, 972, 973, 974, 975, 976, 977, 978, 979, 980, 981, 982, 983, 984, 985, 986, 987, 988, 989, 990, 991, 992, 993, 994, 995, 996, 997, 998, 999, 1000, 1001, 1002, 1003, 1004, 1005, 1006, 1007, 1008, 1009, 1010, 1011, 1012, 1013, 1014, 1015, 1016, 1017, 1018, 1019, 1020, 1021, 1022, 1023, 1024, 1025, 1026, 1027, 1028, 1029, 1030, 1031, 1032, 1033, 1034, 1035, 1036, 1037, 1038, 1039, 1040, 1041, 1042, 1043, 1044, 1045, 1046, 1047, 1048, 1049, 1050, 1051, 1052, 1053, 1054, 1055, 1056, 1057, 1058, 1059, 1060, 1061, 1062, 1063, 1064, 1065, 1066, 1067, 1068, 1069, 1070, 1071, 1072, 1073, 1074, 1075, 1076, 1077, 1078, 1079, 1080, 1081, 1082, 1083, 1084, 1085, 1086, 1087, 1088, 1089, 1090, 1091, 1092, 1093, 1094, 1095, 1096, 1097, 1098, 1099, 1100, 1101, 1102, 1103, 1104, 1105, 1106, 1107, 1108, 1109, 1110, 1111, 1112, 1113, 1114, 1115, 1116, 1117, 1118, 1119, 1120, 1121, 1122, 1123, 1124, 1125, 1126, 1127, 1128, 1129, 1130, 1131, 1132, 1133, 1134, 1135, 1136, 1137, 1138, 1139, 1140, 1141, 1142, 1143, 1144, 1145, 1146, 1147, 1148, 1149, 1150, 1151, 1152, 1153, 1154, 1155, 1156, 1157, 1158, 1159, 1160, 1161, 1162, 1163, 1164, 1165, 1166, 1167, 1168, 1169, 1170, 1171, 1172, 1173, 1174, 1175, 1176, 1177, 1178, 1179, 1180, 1181, 1182, 1183, 1184, 1185, 1186, 1187, 1188, 1189, 1190, 1191, 1192, 1193, 1194, 1195, 1196, 1197, 1198, 1199, 1200, 1201, 1202, 1203, 1204, 1205, 1206, 1207, 1208, 1209, 1210, 1211, 1212, 1213, 1214, 1215, 1216, 1217, 1218, 1219, 1220, 1221, 1222, 1223, 1224, 1225, 1226, 1227, 1228, 1229, 1230, 1231, 1232, 1233, 1234, 1235, 1236, 1237, 1238, 1239, 1240, 1241, 1242, 1243, 1244, 1245, 1246, 1247, 1248, 1249, 1250, 1251, 1252, 1253, 1254, 1255, 1256, 1257, 1258, 1259, 1260, 1261, 1262, 1263, 1264, 1265, 1266, 1267, 1268, 1269, 1270, 1271, 1272, 1273, 1274, 1275, 1276, 1277, 1278, 1279, 1280, 1281, 1282, 1283, 1284, 1285, 1286, 1287, 1288, 1289, 1290, 1291, 1292, 1293, 1294, 1295, 1296, 1297, 1298, 1299, 1300, 1301, 1302, 1303, 1304, 1305, 1306, 1307, 1308, 1309, 1310, 1311, 1312, 1313, 1314, 1315, 1316, 1317, 1318, 1319, 1320, 1321, 1322, 1323, 1324, 1325, 1326, 1327, 1328, 1329, 1330, 1331, 1332, 1333, 1334, 1335, 1336, 1337, 1338, 1339, 1340, 1341, 1342, 1343, 1344, 1345, 1346, 1347, 1348, 1349, 1350, 1351, 1352, 1353, 1354, 1355, 1356, 1357, 1358, 1359, 1360, 1361, 1362, 1363, 1364, 1365, 1366, 1367, 1368, 1369, 1370, 1371, 1372, 1373, 1374, 1375, 1376, 1377, 1378, 1379, 1380, 1381, 1382, 1383, 1384, 1385, 1386, 1387, 1388, 1389, 1390, 1391, 1392, 1393, 1394, 1395, 1396, 1397, 1398, 1399, 1400, 1401, 1402, 1403, 1404, 1405, 1406, 1407, 1408, 1409, 1410, 1411, 1412, 1413, 1414, 1415, 1416, 1417, 1418, 1419, 1420, 1421, 1422, 1423, 1424, 1425, 1426, 1427, 1428, 1429, 1430, 1431, 1432, 1433, 1434, 1435, 1436, 1437, 1438, 1439, 1440, 1441, 1442, 1443, 1444, 1445, 1446, 1447, 1448, 1449, 1450, 1451, 1452, 1453, 1454, 1455, 1456, 1457, 1458, 1459, 1460, 1461, 1462, 1463, 1464, 1465, 1466, 1467, 1468, 1469, 1470, 1471, 1472, 1473, 1474, 1475, 1476, 1477, 1478, 1479, 1480, 1481, 1482, 1483, 1484, 1485, 1486, 1487, 1488, 1489, 1490, 1491, 1492, 1493, 1494, 1495, 1496, 1497, 1498, 1499, 1500, 1501, 1502, 1503, 1504, 1505, 1506, 1507, 1508, 1509, 1510, 1511, 1512, 1513, 1514, 1515, 1516, 1517, 1518, 1519, 1520, 1521, 1522, 1523, 1524, 1525, 1526, 1527, 1528, 1529, 1530, 1531, 1532, 1533, 1534, 1535, 1536, 1537, 1538, 1539, 1540, 1541, 1542, 1543, 1544, 1545, 1546, 1547, 1548, 1549, 1550, 1551, 1552, 1553, 1554, 1555, 1556, 1557, 1558, 1559, 1560, 1561, 1562, 1563, 1564, 1565, 1566, 1567, 1568, 1569, 1570, 1571, 1572, 1573, 1574, 1575, 1576, 1577, 1578, 1579, 1580, 1581, 1582, 1583, 1584, 1585, 1586, 1587, 1588, 1589, 1590, 1591, 1592, 1593, 1594, 1595, 1596, 1597, 1598, 1599, 1600, 1601, 1602, 1603, 1604, 1605, 1606, 1607, 1608],
      "AcquisitionTime": ["152131.210000", "152132.710000", "152134.210000", "152135.710000", "152137.210000", "152138.710000", "152140.210000", "152141.710000", "152143.210000", "152144.710000", "152146.210000", "152147.710000", "152149.210000", "152150.710000", "152152.210000", "152153.710000", "152155.210000", "152156.710000", "152158.210000", "152159.710000", "152201.210000", "152202.710000", "152204.210000", "152205.710000", "152207.210000", "152208.710000", "152210.210000", "152211.710000", "152213.210000", "152214.710000", "152216.210000", "152217.710000", "152219.210000", "152220.710000", "152222.210000", "152223.710000", "152225.210000", "152226.710000", "152228.210000", "152229.710000", "152231.210000", "152232.710000", "152234.210000", "152235.710000", "152237.210000", "152238.710000", "152240.210000", "152241.710000", "152243.210000", "152244.710000", "152246.210000", "152247.710000", "152249.210000", "152250.710000", "152252.210000", "152253.710000", "152255.210000", "152256.710000", "152258.210000", "152259.710000", "152301.210000", "152302.710000", "152304.210000", "152305.710000", "152307.210000", "152308.710000", "152310.210000", "152311.710000", "152313.210000", "152314.710000", "152316.210000", "152317.710000", "152319.210000", "152320.710000", "152322.210000", "152323.710000", "152325.210000", "152326.710000", "152328.210000", "152329.710000", "152331.210000", "152332.710000", "152334.210000", "152335.710000", "152337.210000", "152338.710000", "152340.210000", "152341.710000", "152343.210000", "152344.710000", "152346.210000", "152347.710000", "152349.210000", "152350.710000", "152352.210000", "152353.710000", "152355.210000", "152356.710000", "152358.210000", "152359.710000", "152401.210000", "152402.710000", "152404.210000", "152405.710000", "152407.210000", "152408.710000", "152410.210000", "152411.710000", "152413.210000", "152414.710000", "152416.210000", "152417.710000", "152419.210000", "152420.710000", "152422.210000", "152423.710000", "152425.210000", "152426.710000", "152428.210000", "152429.710000", "152431.210000", "152432.710000", "152434.210000", "152435.710000", "152437.210000", "152438.710000", "152440.210000", "152441.710000", "152443.210000", "152444.710000", "152446.210000", "152447.710000", "152449.210000", "152450.710000", "152452.210000", "152453.710000", "152455.210000", "152456.710000", "152458.210000", "152459.710000", "152501.210000", "152502.710000", "152504.210000", "152505.710000", "152507.210000", "152508.710000", "152510.210000", "152511.710000", "152513.210000", "152514.710000", "152516.210000", "152517.710000", "152519.210000", "152520.710000", "152522.210000", "152523.710000", "152525.210000", "152526.710000", "152528.210000", "152529.710000", "152531.210000", "152532.710000", "152534.210000", "152535.710000", "152537.210000", "152538.710000", "152540.210000", "152541.710000", "152543.210000", "152544.710000", "152546.210000", "152547.710000", "152549.210000", "152550.710000", "152552.210000", "152553.710000", "152555.210000", "152556.710000", "152558.210000", "152559.710000", "152601.210000", "152602.710000", "152604.210000", "152605.710000", "152607.210000", "152608.710000", "152610.210000", "152611.710000", "152613.210000", "152614.710000", "152616.210000", "152617.710000", "152619.210000", "152620.710000", "152622.210000", "152623.710000", "152625.210000", "152626.710000", "152628.210000", "152629.710000", "152631.210000", "152632.710000", "152634.210000", "152635.710000", "152637.210000", "152638.710000", "152640.210000", "152641.710000", "152643.210000", "152644.710000", "152646.210000", "152647.710000", "152649.210000", "152650.710000", "152652.210000", "152653.710000", "152655.210000", "152656.710000", "152658.210000", "152659.710000", "152701.210000", "152702.710000", "152704.210000", "152705.710000", "152707.210000", "152708.710000", "152710.210000", "152711.710000", "152713.210000", "152714.710000", "152716.210000", "152717.710000", "152719.210000", "152720.710000", "152722.210000", "152723.710000", "152725.210000", "152726.710000", "152728.210000", "152729.710000", "152731.210000", "152732.710000", "152734.210000", "152735.710000", "152737.210000", "152738.710000", "152740.210000", "152741.710000", "152743.210000", "152744.710000", "152746.210000", "152747.710000", "152749.210000", "152750.710000", "152752.210000", "152753.710000", "152755.210000", "152756.710000", "152758.210000", "152759.710000", "152801.210000", "152802.710000", "152804.210000", "152805.710000", "152807.210000", "152808.710000", "152810.210000", "152811.710000", "152813.210000", "152814.710000", "152816.210000", "152817.710000", "152819.210000", "152820.710000", "152822.210000", "152823.710000", "152825.210000", "152826.710000", "152828.210000", "152829.710000", "152831.210000", "152832.710000", "152834.210000", "152835.710000", "152837.210000", "152838.710000", "152840.210000", "152841.710000", "152843.210000", "152844.710000", "152846.210000", "152847.710000", "152849.210000", "152850.710000", "152852.210000", "152853.710000", "152855.210000", "152856.710000", "152858.210000", "152859.710000", "152901.210000", "152902.710000", "152904.210000", "152905.710000", "152907.210000", "152908.710000", "152910.210000", "152911.710000", "152913.210000", "152914.710000", "152916.210000", "152917.710000", "152919.210000", "152920.710000", "152922.210000", "152923.710000", "152925.210000", "152926.710000", "152928.210000", "152929.710000", "152931.210000", "152932.710000", "152934.210000", "152935.710000", "152937.210000", "152938.710000", "152940.210000", "152941.710000", "152943.210000", "152944.710000", "152946.210000", "152947.710000", "152949.210000", "152950.710000", "152952.210000", "152953.710000", "152955.210000", "152956.710000", "152958.210000", "152959.710000", "153001.210000", "153002.710000", "153004.210000", "153005.710000", "153007.210000", "153008.710000", "153010.210000", "153011.710000", "153013.210000", "153014.710000", "153016.210000", "153017.710000", "153019.210000", "153020.710000", "153022.210000", "153023.710000", "153025.210000", "153026.710000", "153028.210000", "153029.710000", "153031.210000", "153032.710000", "153034.210000", "153035.710000", "153037.210000", "153038.710000", "153040.210000", "153041.710000", "153043.210000", "153044.710000", "153046.210000", "153047.710000", "153049.210000", "153050.710000", "153052.210000", "153053.710000", "153055.210000", "153056.710000", "153058.210000", "153059.710000", "153101.210000", "153102.710000", "153104.210000", "153105.710000", "153107.210000", "153108.710000", "153110.210000", "153111.710000", "153113.210000", "153114.710000", "153116.210000", "153117.710000", "153119.210000", "153120.710000", "153122.210000", "153123.710000", "153125.210000", "153126.710000", "153128.210000", "153129.710000", "153131.210000", "153132.710000", "153134.210000", "153135.710000", "153137.210000", "153138.710000", "153140.210000", "153141.710000", "153143.210000", "153144.710000", "153146.210000", "153147.710000", "153149.210000", "153150.710000", "153152.210000", "153153.710000", "153155.210000", "153156.710000", "153158.210000", "153159.710000", "153201.210000", "153202.710000", "153204.210000", "153205.710000", "153207.210000", "153208.710000", "153210.210000", "153211.710000", "153213.210000", "153214.710000", "153216.210000", "153217.710000", "153219.210000", "153220.710000", "153222.210000", "153223.710000", "153225.210000", "153226.710000", "153228.210000", "153229.710000", "153231.210000", "153232.710000", "153234.210000", "153235.710000", "153237.210000", "153238.710000", "153240.210000", "153241.710000", "153243.210000", "153244.710000", "153246.210000", "153247.710000", "153249.210000", "153250.710000", "153252.210000", "153253.710000", "153255.210000", "153256.710000", "153258.210000", "153259.710000", "153301.210000", "153302.710000", "153304.210000", "153305.710000", "153307.210000", "153308.710000", "153310.210000", "153311.710000", "153313.210000", "153314.710000", "153316.210000", "153317.710000", "153319.210000", "153320.710000", "153322.210000", "153323.710000", "153325.210000", "153326.710000", "153328.210000", "153329.710000", "153331.210000", "153332.710000", "153334.210000", "153335.710000", "153337.210000", "153338.710000", "153340.210000", "153341.710000", "153343.210000", "153344.710000", "153346.210000", "153347.710000", "153349.210000", "153350.710000", "153352.210000", "153353.710000", "153355.210000", "153356.710000", "153358.210000", "153359.710000", "153401.210000", "153402.710000", "153404.210000", "153405.710000", "153407.210000", "153408.710000", "153410.210000", "153411.710000", "153413.210000", "153414.710000", "153416.210000", "153417.710000", "153419.210000", "153420.710000", "153422.210000", "153423.710000", "153425.210000", "153426.710000", "153428.210000", "153429.710000", "153431.210000", "153432.710000", "153434.210000", "153435.710000", "153437.210000", "153438.710000", "153440.210000", "153441.710000", "153443.210000", "153444.710000", "153446.210000", "153447.710000", "153449.210000", "153450.710000", "153452.210000", "153453.710000", "153455.210000", "153456.710000", "153458.210000", "153459.710000", "153501.210000", "153502.710000", "153504.210000", "153505.710000", "153507.210000", "153508.710000", "153510.210000", "153511.710000", "153513.210000", "153514.710000", "153516.210000", "153517.710000", "153519.210000", "153520.710000", "153522.210000", "153523.710000", "153525.210000", "153526.710000", "153528.210000", "153529.710000", "153531.210000", "153532.710000", "153534.210000", "153535.710000", "153537.210000", "153538.710000", "153540.210000", "153541.710000", "153543.210000", "153544.710000", "153546.210000", "153547.710000", "153549.210000", "153550.710000", "153552.210000", "153553.710000", "153555.210000", "153556.710000", "153558.210000", "153559.710000", "153601.210000", "153602.710000", "153604.210000", "153605.710000", "153607.210000", "153608.710000", "153610.210000", "153611.710000", "153613.210000", "153614.710000", "153616.210000", "153617.710000", "153619.210000", "153620.710000", "153622.210000", "153623.710000", "153625.210000", "153626.710000", "153628.210000", "153629.710000", "153631.210000", "153632.710000", "153634.210000", "153635.710000", "153637.210000", "153638.710000", "153640.210000", "153641.710000", "153643.210000", "153644.710000", "153646.210000", "153647.710000", "153649.210000", "153650.710000", "153652.210000", "153653.710000", "153655.210000", "153656.710000", "153658.210000", "153659.710000", "153701.210000", "153702.710000", "153704.210000", "153705.710000", "153707.210000", "153708.710000", "153710.210000", "153711.710000", "153713.210000", "153714.710000", "153716.210000", "153717.710000", "153719.210000", "153720.710000", "153722.210000", "153723.710000", "153725.210000", "153726.710000", "153728.210000", "153729.710000", "153731.210000", "153732.710000", "153734.210000", "153735.710000", "153737.210000", "153738.710000", "153740.210000", "153741.710000", "153743.210000", "153744.710000", "153746.210000", "153747.710000", "153749.210000", "153750.710000", "153752.210000", "153753.710000", "153755.210000", "153756.710000", "153758.210000", "153759.710000", "153801.210000", "153802.710000", "153804.210000", "153805.710000", "153807.210000", "153808.710000", "153810.210000", "153811.710000", "153813.210000", "153814.710000", "153816.210000", "153817.710000", "153819.210000", "153820.710000", "153822.210000", "153823.710000", "153825.210000", "153826.710000", "153828.210000", "153829.710000", "153831.210000", "153832.710000", "153834.210000", "153835.710000", "153837.210000", "153838.710000", "153840.210000", "153841.710000", "153843.210000", "153844.710000", "153846.210000", "153847.710000", "153849.210000", "153850.710000", "153852.210000", "153853.710000", "153855.210000", "153856.710000", "153858.210000", "153859.710000", "153901.210000", "153902.710000", "153904.210000", "153905.710000", "153907.210000", "153908.710000", "153910.210000", "153911.710000", "153913.210000", "153914.710000", "153916.210000", "153917.710000", "153919.210000", "153920.710000", "153922.210000", "153923.710000", "153925.210000", "153926.710000", "153928.210000", "153929.710000", "153931.210000", "153932.710000", "153934.210000", "153935.710000", "153937.210000", "153938.710000", "153940.210000", "153941.710000", "153943.210000", "153944.710000", "153946.210000", "153947.710000", "153949.210000", "153950.710000", "153952.210000", "153953.710000", "153955.210000", "153956.710000", "153958.210000", "153959.710000", "154001.210000", "154002.710000", "154004.210000", "154005.710000", "154007.210000", "154008.710000", "154010.210000", "154011.710000", "154013.210000", "154014.710000", "154016.210000", "154017.710000", "154019.210000", "154020.710000", "154022.210000", "154023.710000", "154025.210000", "154026.710000", "154028.210000", "154029.710000", "154031.210000", "154032.710000", "154034.210000", "154035.710000", "154037.210000", "154038.710000", "154040.210000", "154041.710000", "154043.210000", "154044.710000", "154046.210000", "154047.710000", "154049.210000", "154050.710000", "154052.210000", "154053.710000", "154055.210000", "154056.710000", "154058.210000", "154059.710000", "154101.210000", "154102.710000", "154104.210000", "154105.710000", "154107.210000", "154108.710000", "154110.210000", "154111.710000", "154113.210000", "154114.710000", "154116.210000", "154117.710000", "154119.210000", "154120.710000", "154122.210000", "154123.710000", "154125.210000", "154126.710000", "154128.210000", "154129.710000", "154131.210000", "154132.710000", "154134.210000", "154135.710000", "154137.210000", "154138.710000", "154140.210000", "154141.710000", "154143.210000", "154144.710000", "154146.210000", "154147.710000", "154149.210000", "154150.710000", "154152.210000", "154153.710000", "154155.210000", "154156.710000", "154158.210000", "154159.710000", "154201.210000", "154202.710000", "154204.210000", "154205.710000", "154207.210000", "154208.710000", "154210.210000", "154211.710000", "154213.210000", "154214.710000", "154216.210000", "154217.710000", "154219.210000", "154220.710000", "154222.210000", "154223.710000", "154225.210000", "154226.710000", "154228.210000", "154229.710000", "154231.210000", "154232.710000", "154234.210000", "154235.710000", "154237.210000", "154238.710000", "154240.210000", "154241.710000", "154243.210000", "154244.710000", "154246.210000", "154247.710000", "154249.210000", "154250.710000", "154252.210000", "154253.710000", "154255.210000", "154256.710000", "154258.210000", "154259.710000", "154301.210000", "154302.710000", "154304.210000", "154305.710000", "154307.210000", "154308.710000", "154310.210000", "154311.710000", "154313.210000", "154314.710000", "154316.210000", "154317.710000", "154319.210000", "154320.710000", "154322.210000", "154323.710000", "154325.210000", "154326.710000", "154328.210000", "154329.710000", "154331.210000", "154332.710000", "154334.210000", "154335.710000", "154337.210000", "154338.710000", "154340.210000", "154341.710000", "154343.210000", "154344.710000", "154346.210000", "154347.710000", "154349.210000", "154350.710000", "154352.210000", "154353.710000", "154355.210000", "154356.710000", "154358.210000", "154359.710000", "154401.210000", "154402.710000", "154404.210000", "154405.710000", "154407.210000", "154408.710000", "154410.210000", "154411.710000", "154413.210000", "154414.710000", "154416.210000", "154417.710000", "154419.210000", "154420.710000", "154422.210000", "154423.710000", "154425.210000", "154426.710000", "154428.210000", "154429.710000", "154431.210000", "154432.710000", "154434.210000", "154435.710000", "154437.210000", "154438.710000", "154440.210000", "154441.710000", "154443.210000", "154444.710000", "154446.210000", 