{
  "AcquisitionMatrixPE": 106,
  "AcquisitionNumber": 1,
  "AcquisitionTime": "18:34:22.735000",
  "BandwidthPerPixelPhaseEncode": 16.846,
  "BaseResolution": 106,
  "BodyPartExamined": "BRAIN",
  "CoilCombinationMethod": "Sum of Squares",
  "ConsistencyInfo": "N4_VE11C_LATEST_20160120",
  "ConversionSoftware": "dcm2niix",
  "ConversionSoftwareVersion": "v1.0.20220720",
  "DerivedVendorReportedEchoSpacing": 0.000560012,
  "DeviceSerialNumber": "166108",
  "DwellTime": 1.8e-06,
  "EchoTime": 0.0352,
  "EchoTrainLength": 106,
  "EffectiveEchoSpacing": 0.000560012,
  "FlipAngle": 60,
  "HeudiconvVersion": "1.3.0",
  "ImageComments": "Unaliased MB4/PE3/LB",
  "ImageOrientationPatientDICOM": [1, 0, 0, 0, 1, 0],
  "ImageOrientationText": "Tra",
  "ImageType": [
    "ORIGINAL",
    "PRIMARY",
    "M",
    "MB",
    "ND",
    "MOSAIC"
],
  "ImagingFrequency": 123.244,
  "InPlanePhaseEncodingDirectionDICOM": "COL",
  "InstitutionAddress": "Bedford Way 26,London,London,GB,WC1H 0AP",
  "InstitutionName": "University College",
  "InstitutionalDepartmentName": "Department",
  "MRAcquisitionType": "2D",
  "MagneticFieldStrength": 3,
  "Manufacturer": "Siemens",
  "ManufacturersModelName": "Prisma",
  "MatrixCoilMode": "SENSE",
  "Modality": "MR",
  "MultibandAccelerationFactor": 4,
  "NonlinearGradientCorrection": false,
  "PartialFourier": 1,
  "PatientPosition": "HFS",
  "PercentPhaseFOV": 100,
  "PercentSampling": 100,
  "PhaseEncodingDirection": "j-",
  "PhaseEncodingSteps": 106,
  "PhaseResolution": 1,
  "PixelBandwidth": 2620,
  "ProcedureStepDescription": "Egor^MovieProject2",
  "ProtocolName": "task-backtothefuture_run-1",
  "PulseSequenceDetails": "%CustomerSeq%\\cmrr_mbep2d_bold",
  "ReceiveCoilActiveElements": "HEA;HEP",
  "ReceiveCoilName": "Head_32",
  "ReconMatrixPE": 106,
  "RepetitionTime": 1.5,
  "SAR": 0.0663314,
  "ScanOptions": "FS\\EXT",
  "ScanningSequence": "EP",
  "SequenceName": "epfid2d1_106",
  "SequenceVariant": "SK\\SS",
  "SeriesDescription": "task-backtothefuture_run-1",
  "SeriesNumber": 3,
  "ShimSetting": [-1583, 635, 7424, 350, -42, 216, -4, 6],
  "SliceThickness": 2,
  "SliceTiming": [0, 1.0675, 0.6575, 0.245, 1.315, 0.905, 0.4925, 0.0825, 1.15, 0.74, 0.3275, 1.3975, 0.985, 0.575, 0.165, 1.2325, 0.8225, 0.41, 0, 1.0675, 0.6575, 0.245, 1.315, 0.905, 0.4925, 0.0825, 1.15, 0.74, 0.3275, 1.3975, 0.985, 0.575, 0.165, 1.2325, 0.8225, 0.41, 0, 1.0675, 0.6575, 0.245, 1.315, 0.905, 0.4925, 0.0825, 1.15, 0.74, 0.3275, 1.3975, 0.985, 0.575, 0.165, 1.2325, 0.8225, 0.41, 0, 1.0675, 0.6575, 0.245, 1.315, 0.905, 0.4925, 0.0825, 1.15, 0.74, 0.3275, 1.3975, 0.985, 0.575, 0.165, 1.2325, 0.8225, 0.41],
  "SoftwareVersions": "syngo MR E11",
  "SpacingBetweenSlices": 2,
  "StationName": "AWP166108",
  "TaskName": "backtothefuture",
  "TotalReadoutTime": 0.0588013,
  "TxRefAmp": 221.412,
  "WipMemBlock": "c2bae12e-0666-433a-8559-5dc20fff0e47||Sequence: R016 ve11c/master r/e634e98; Dec 19 2017 11:00:25 by eja",
  "dcmmeta_affine": [
    [-2.0, 0.0, 0.0, 106.0],
    [0.0, 2.0, 0.0, -94.36144256591797],
    [0.0, 0.0, 2.0, -60.759037017822266],
    [0.0, 0.0, 0.0, 1.0]
],
  "dcmmeta_reorient_transform": [
    [0.0, -1.0, 0.0, 105.0],
    [1.0, 0.0, 0.0, 0.0],
    [0.0, 0.0, 1.0, 0.0],
    [0.0, 0.0, 0.0, 1.0]
],
  "dcmmeta_shape": [106, 106, 72, 1360],
  "dcmmeta_slice_dim": 2,
  "dcmmeta_version": 0.6,
  "global": {
    "const": {
      "AcquisitionMatrix": [106, 0, 0, 106],
      "AngioFlag": "N",
      "BitsAllocated": 16,
      "BitsStored": 16,
      "BodyPartExamined": "BRAIN",
      "CardiacNumberOfImages": 1,
      "Columns": 954,
      "EchoNumbers": 1,
      "EchoTime": 35.2,
      "EchoTrainLength": 106,
      "FlipAngle": 60.0,
      "HighBit": 15,
      "ImageOrientationPatient": [1.0, 0.0, 0.0, 0.0, 1.0, 0.0],
      "ImagePositionPatient": [-954.0, -963.63855457306, -60.759037017822],
      "ImageType": [
        "ORIGINAL",
        "PRIMARY",
        "M",
        "MB",
        "ND",
        "MOSAIC"
],
      "ImagedNucleus": "1H",
      "ImagingFrequency": 123.243682,
      "InPlanePhaseEncodingDirection": "COL",
      "MRAcquisitionType": "2D",
      "MagneticFieldStrength": 3.0,
      "Manufacturer": "SIEMENS",
      "ManufacturerModelName": "Prisma",
      "Modality": "MR",
      "NominalInterval": 0,
      "NumberOfAverages": 1.0,
      "NumberOfPhaseEncodingSteps": 106,
      "PercentPhaseFieldOfView": 100.0,
      "PercentSampling": 100.0,
      "PerformedProcedureStepStartTime": "175721.998000",
      "PhotometricInterpretation": "MONOCHROME2",
      "PixelBandwidth": 2620.0,
      "PixelRepresentation": 0,
      "PixelSpacing": [2.0, 2.0],
      "ProtocolName": "task-backtothefuture_run-1",
      "RepetitionTime": 1500.0,
      "Rows": 954,
      "SAR": 0.06633138500682,
      "SamplesPerPixel": 1,
      "ScanOptions": [
        "FS",
        "EXT"
],
      "ScanningSequence": "EP",
      "SequenceName": "epfid2d1_106",
      "SequenceVariant": [
        "SK",
        "SS"
],
      "SeriesDescription": "task-backtothefuture_run-1",
      "SeriesNumber": 3,
      "SeriesTime": "183511.450000",
      "SliceLocation": -60.759037017822,
      "SliceThickness": 2.0,
      "SmallestImagePixelValue": 0,
      "SoftwareVersions": "syngo MR E11",
      "SpacingBetweenSlices": 2.0000000537281,
      "SpecificCharacterSet": "ISO_IR 100",
      "StudyID": "1",
      "StudyTime": "175721.867000",
      "TransmitCoilName": "Body",
      "VariableFlipAngleFlag": "N",
      "WindowCenterWidthExplanation": "Algo1",
      "dBdt": 0.0},
    "slices": {}
  },
  "time": {
    "samples": {
      "AcquisitionNumber": [1, 2, 3, 4, 5, 6, 7, 8, 9, 10, 11, 12, 13, 14, 15, 16, 17, 18, 19, 20, 21, 22, 23, 24, 25, 26, 27, 28, 29, 30, 31, 32, 33, 34, 35, 36, 37, 38, 39, 40, 41, 42, 43, 44, 45, 46, 47, 48, 49, 50, 51, 52, 53, 54, 55, 56, 57, 58, 59, 60, 61, 62, 63, 64, 65, 66, 67, 68, 69, 70, 71, 72, 73, 74, 75, 76, 77, 78, 79, 80, 81, 82, 83, 84, 85, 86, 87, 88, 89, 90, 91, 92, 93, 94, 95, 96, 97, 98, 99, 100, 101, 102, 103, 104, 105, 106, 107, 108, 109, 110, 111, 112, 113, 114, 115, 116, 117, 118, 119, 120, 121, 122, 123, 124, 125, 126, 127, 128, 129, 130, 131, 132, 133, 134, 135, 136, 137, 138, 139, 140, 141, 142, 143, 144, 145, 146, 147, 148, 149, 150, 151, 152, 153, 154, 155, 156, 157, 158, 159, 160, 161, 162, 163, 164, 165, 166, 167, 168, 169, 170, 171, 172, 173, 174, 175, 176, 177, 178, 179, 180, 181, 182, 183, 184, 185, 186, 187, 188, 189, 190, 191, 192, 193, 194, 195, 196, 197, 198, 199, 200, 201, 202, 203, 204, 205, 206, 207, 208, 209, 210, 211, 212, 213, 214, 215, 216, 217, 218, 219, 220, 221, 222, 223, 224, 225, 226, 227, 228, 229, 230, 231, 232, 233, 234, 235, 236, 237, 238, 239, 240, 241, 242, 243, 244, 245, 246, 247, 248, 249, 250, 251, 252, 253, 254, 255, 256, 257, 258, 259, 260, 261, 262, 263, 264, 265, 266, 267, 268, 269, 270, 271, 272, 273, 274, 275, 276, 277, 278, 279, 280, 281, 282, 283, 284, 285, 286, 287, 288, 289, 290, 291, 292, 293, 294, 295, 296, 297, 298, 299, 300, 301, 302, 303, 304, 305, 306, 307, 308, 309, 310, 311, 312, 313, 314, 315, 316, 317, 318, 319, 320, 321, 322, 323, 324, 325, 326, 327, 328, 329, 330, 331, 332, 333, 334, 335, 336, 337, 338, 339, 340, 341, 342, 343, 344, 345, 346, 347, 348, 349, 350, 351, 352, 353, 354, 355, 356, 357, 358, 359, 360, 361, 362, 363, 364, 365, 366, 367, 368, 369, 370, 371, 372, 373, 374, 375, 376, 377, 378, 379, 380, 381, 382, 383, 384, 385, 386, 387, 388, 389, 390, 391, 392, 393, 394, 395, 396, 397, 398, 399, 400, 401, 402, 403, 404, 405, 406, 407, 408, 409, 410, 411, 412, 413, 414, 415, 416, 417, 418, 419, 420, 421, 422, 423, 424, 425, 426, 427, 428, 429, 430, 431, 432, 433, 434, 435, 436, 437, 438, 439, 440, 441, 442, 443, 444, 445, 446, 447, 448, 449, 450, 451, 452, 453, 454, 455, 456, 457, 458, 459, 460, 461, 462, 463, 464, 465, 466, 467, 468, 469, 470, 471, 472, 473, 474, 475, 476, 477, 478, 479, 480, 481, 482, 483, 484, 485, 486, 487, 488, 489, 490, 491, 492, 493, 494, 495, 496, 497, 498, 499, 500, 501, 502, 503, 504, 505, 506, 507, 508, 509, 510, 511, 512, 513, 514, 515, 516, 517, 518, 519, 520, 521, 522, 523, 524, 525, 526, 527, 528, 529, 530, 531, 532, 533, 534, 535, 536, 537, 538, 539, 540, 541, 542, 543, 544, 545, 546, 547, 548, 549, 550, 551, 552, 553, 554, 555, 556, 557, 558, 559, 560, 561, 562, 563, 564, 565, 566, 567, 568, 569, 570, 571, 572, 573, 574, 575, 576, 577, 578, 579, 580, 581, 582, 583, 584, 585, 586, 587, 588, 589, 590, 591, 592, 593, 594, 595, 596, 597, 598, 599, 600, 601, 602, 603, 604, 605, 606, 607, 608, 609, 610, 611, 612, 613, 614, 615, 616, 617, 618, 619, 620, 621, 622, 623, 624, 625, 626, 627, 628, 629, 630, 631, 632, 633, 634, 635, 636, 637, 638, 639, 640, 641, 642, 643, 644, 645, 646, 647, 648, 649, 650, 651, 652, 653, 654, 655, 656, 657, 658, 659, 660, 661, 662, 663, 664, 665, 666, 667, 668, 669, 670, 671, 672, 673, 674, 675, 676, 677, 678, 679, 680, 681, 682, 683, 684, 685, 686, 687, 688, 689, 690, 691, 692, 693, 694, 695, 696, 697, 698, 699, 700, 701, 702, 703, 704, 705, 706, 707, 708, 709, 710, 711, 712, 713, 714, 715, 716, 717, 718, 719, 720, 721, 722, 723, 724, 725, 726, 727, 728, 729, 730, 731, 732, 733, 734, 735, 736, 737, 738, 739, 740, 741, 742, 743, 744, 745, 746, 747, 748, 749, 750, 751, 752, 753, 754, 755, 756, 757, 758, 759, 760, 761, 762, 763, 764, 765, 766, 767, 768, 769, 770, 771, 772, 773, 774, 775, 776, 777, 778, 779, 780, 781, 782, 783, 784, 785, 786, 787, 788, 789, 790, 791, 792, 793, 794, 795, 796, 797, 798, 799, 800, 801, 802, 803, 804, 805, 806, 807, 808, 809, 810, 811, 812, 813, 814, 815, 816, 817, 818, 819, 820, 821, 822, 823, 824, 825, 826, 827, 828, 829, 830, 831, 832, 833, 834, 835, 836, 837, 838, 839, 840, 841, 842, 843, 844, 845, 846, 847, 848, 849, 850, 851, 852, 853, 854, 855, 856, 857, 858, 859, 860, 861, 862, 863, 864, 865, 866, 867, 868, 869, 870, 871, 872, 873, 874, 875, 876, 877, 878, 879, 880, 881, 882, 883, 884, 885, 886, 887, 888, 889, 890, 891, 892, 893, 894, 895, 896, 897, 898, 899, 900, 901, 902, 903, 904, 905, 906, 907, 908, 909, 910, 911, 912, 913, 914, 915, 916, 917, 918, 919, 920, 921, 922, 923, 924, 925, 926, 927, 928, 929, 930, 931, 932, 933, 934, 935, 936, 937, 938, 939, 940, 941, 942, 943, 944, 945, 946, 947, 948, 949, 950, 951, 952, 953, 954, 955, 956, 957, 958, 959, 960, 961, 962, 963, 964, 965, 966, 967, 968, 969, 970, 971, 972, 973, 974, 975, 976, 977, 978, 979, 980, 981, 982, 983, 984, 985, 986, 987, 988, 989, 990, 991, 992, 993, 994, 995, 996, 997, 998, 999, 1000, 1001, 1002, 1003, 1004, 1005, 1006, 1007, 1008, 1009, 1010, 1011, 1012, 1013, 1014, 1015, 1016, 1017, 1018, 1019, 1020, 1021, 1022, 1023, 1024, 1025, 1026, 1027, 1028, 1029, 1030, 1031, 1032, 1033, 1034, 1035, 1036, 1037, 1038, 1039, 1040, 1041, 1042, 1043, 1044, 1045, 1046, 1047, 1048, 1049, 1050, 1051, 1052, 1053, 1054, 1055, 1056, 1057, 1058, 1059, 1060, 1061, 1062, 1063, 1064, 1065, 1066, 1067, 1068, 1069, 1070, 1071, 1072, 1073, 1074, 1075, 1076, 1077, 1078, 1079, 1080, 1081, 1082, 1083, 1084, 1085, 1086, 1087, 1088, 1089, 1090, 1091, 1092, 1093, 1094, 1095, 1096, 1097, 1098, 1099, 1100, 1101, 1102, 1103, 1104, 1105, 1106, 1107, 1108, 1109, 1110, 1111, 1112, 1113, 1114, 1115, 1116, 1117, 1118, 1119, 1120, 1121, 1122, 1123, 1124, 1125, 1126, 1127, 1128, 1129, 1130, 1131, 1132, 1133, 1134, 1135, 1136, 1137, 1138, 1139, 1140, 1141, 1142, 1143, 1144, 1145, 1146, 1147, 1148, 1149, 1150, 1151, 1152, 1153, 1154, 1155, 1156, 1157, 1158, 1159, 1160, 1161, 1162, 1163, 1164, 1165, 1166, 1167, 1168, 1169, 1170, 1171, 1172, 1173, 1174, 1175, 1176, 1177, 1178, 1179, 1180, 1181, 1182, 1183, 1184, 1185, 1186, 1187, 1188, 1189, 1190, 1191, 1192, 1193, 1194, 1195, 1196, 1197, 1198, 1199, 1200, 1201, 1202, 1203, 1204, 1205, 1206, 1207, 1208, 1209, 1210, 1211, 1212, 1213, 1214, 1215, 1216, 1217, 1218, 1219, 1220, 1221, 1222, 1223, 1224, 1225, 1226, 1227, 1228, 1229, 1230, 1231, 1232, 1233, 1234, 1235, 1236, 1237, 1238, 1239, 1240, 1241, 1242, 1243, 1244, 1245, 1246, 1247, 1248, 1249, 1250, 1251, 1252, 1253, 1254, 1255, 1256, 1257, 1258, 1259, 1260, 1261, 1262, 1263, 1264, 1265, 1266, 1267, 1268, 1269, 1270, 1271, 1272, 1273, 1274, 1275, 1276, 1277, 1278, 1279, 1280, 1281, 1282, 1283, 1284, 1285, 1286, 1287, 1288, 1289, 1290, 1291, 1292, 1293, 1294, 1295, 1296, 1297, 1298, 1299, 1300, 1301, 1302, 1303, 1304, 1305, 1306, 1307, 1308, 1309, 1310, 1311, 1312, 1313, 1314, 1315, 1316, 1317, 1318, 1319, 1320, 1321, 1322, 1323, 1324, 1325, 1326, 1327, 1328, 1329, 1330, 1331, 1332, 1333, 1334, 1335, 1336, 1337, 1338, 1339, 1340, 1341, 1342, 1343, 1344, 1345, 1346, 1347, 1348, 1349, 1350, 1351, 1352, 1353, 1354, 1355, 1356, 1357, 1358, 1359, 1360],
      "AcquisitionTime": ["183422.735000", "183424.235000", "183425.735000", "183427.235000", "183428.735000", "183430.235000", "183431.735000", "183433.235000", "183434.735000", "183436.235000", "183437.735000", "183439.235000", "183440.735000", "183442.235000", "183443.735000", "183445.235000", "183446.735000", "183448.235000", "183449.735000", "183451.235000", "183452.735000", "183454.235000", "183455.735000", "183457.235000", "183458.735000", "183500.235000", "183501.735000", "183503.235000", "183504.735000", "183506.235000", "183507.735000", "183509.235000", "183510.735000", "183512.235000", "183513.735000", "183515.235000", "183516.735000", "183518.235000", "183519.735000", "183521.235000", "183522.735000", "183524.235000", "183525.735000", "183527.235000", "183528.735000", "183530.235000", "183531.735000", "183533.235000", "183534.735000", "183536.235000", "183537.735000", "183539.235000", "183540.735000", "183542.235000", "183543.735000", "183545.235000", "183546.735000", "183548.235000", "183549.735000", "183551.235000", "183552.735000", "183554.235000", "183555.735000", "183557.235000", "183558.735000", "183600.235000", "183601.735000", "183603.235000", "183604.735000", "183606.235000", "183607.735000", "183609.235000", "183610.735000", "183612.235000", "183613.735000", "183615.235000", "183616.735000", "183618.235000", "183619.735000", "183621.235000", "183622.735000", "183624.235000", "183625.735000", "183627.235000", "183628.735000", "183630.235000", "183631.735000", "183633.235000", "183634.735000", "183636.235000", "183637.735000", "183639.235000", "183640.735000", "183642.235000", "183643.735000", "183645.235000", "183646.735000", "183648.235000", "183649.735000", "183651.235000", "183652.735000", "183654.235000", "183655.735000", "183657.235000", "183658.735000", "183700.235000", "183701.735000", "183703.235000", "183704.735000", "183706.235000", "183707.735000", "183709.235000", "183710.735000", "183712.235000", "183713.735000", "183715.235000", "183716.735000", "183718.235000", "183719.735000", "183721.235000", "183722.735000", "183724.235000", "183725.735000", "183727.235000", "183728.735000", "183730.235000", "183731.735000", "183733.235000", "183734.735000", "183736.235000", "183737.735000", "183739.235000", "183740.735000", "183742.235000", "183743.735000", "183745.235000", "183746.735000", "183748.235000", "183749.735000", "183751.235000", "183752.735000", "183754.235000", "183755.735000", "183757.235000", "183758.735000", "183800.235000", "183801.735000", "183803.235000", "183804.735000", "183806.235000", "183807.735000", "183809.235000", "183810.735000", "183812.235000", "183813.735000", "183815.235000", "183816.735000", "183818.235000", "183819.735000", "183821.235000", "183822.735000", "183824.235000", "183825.735000", "183827.235000", "183828.735000", "183830.235000", "183831.735000", "183833.235000", "183834.735000", "183836.235000", "183837.735000", "183839.235000", "183840.735000", "183842.235000", "183843.735000", "183845.235000", "183846.735000", "183848.235000", "183849.735000", "183851.235000", "183852.735000", "183854.235000", "183855.735000", "183857.235000", "183858.735000", "183900.235000", "183901.735000", "183903.235000", "183904.735000", "183906.235000", "183907.735000", "183909.235000", "183910.735000", "183912.235000", "183913.735000", "183915.235000", "183916.735000", "183918.235000", "183919.735000", "183921.235000", "183922.735000", "183924.235000", "183925.735000", "183927.235000", "183928.735000", "183930.235000", "183931.735000", "183933.235000", "183934.735000", "183936.235000", "183937.735000", "183939.235000", "183940.735000", "183942.235000", "183943.735000", "183945.235000", "183946.735000", "183948.235000", "183949.735000", "183951.235000", "183952.735000", "183954.235000", "183955.735000", "183957.235000", "183958.735000", "184000.235000", "184001.735000", "184003.235000", "184004.735000", "184006.235000", "184007.735000", "184009.235000", "184010.735000", "184012.235000", "184013.735000", "184015.235000", "184016.735000", "184018.235000", "184019.735000", "184021.235000", "184022.735000", "184024.235000", "184025.735000", "184027.235000", "184028.735000", "184030.235000", "184031.735000", "184033.235000", "184034.735000", "184036.235000", "184037.735000", "184039.235000", "184040.735000", "184042.235000", "184043.735000", "184045.235000", "184046.735000", "184048.235000", "184049.735000", "184051.235000", "184052.735000", "184054.235000", "184055.735000", "184057.235000", "184058.735000", "184100.235000", "184101.735000", "184103.235000", "184104.735000", "184106.235000", "184107.735000", "184109.235000", "184110.735000", "184112.235000", "184113.735000", "184115.235000", "184116.735000", "184118.235000", "184119.735000", "184121.235000", "184122.735000", "184124.235000", "184125.735000", "184127.235000", "184128.735000", "184130.235000", "184131.735000", "184133.235000", "184134.735000", "184136.235000", "184137.735000", "184139.235000", "184140.735000", "184142.235000", "184143.735000", "184145.235000", "184146.735000", "184148.235000", "184149.735000", "184151.235000", "184152.735000", "184154.235000", "184155.735000", "184157.235000", "184158.735000", "184200.235000", "184201.735000", "184203.235000", "184204.735000", "184206.235000", "184207.735000", "184209.235000", "184210.735000", "184212.235000", "184213.735000", "184215.235000", "184216.735000", "184218.235000", "184219.735000", "184221.235000", "184222.735000", "184224.235000", "184225.735000", "184227.235000", "184228.735000", "184230.235000", "184231.735000", "184233.235000", "184234.735000", "184236.235000", "184237.735000", "184239.235000", "184240.735000", "184242.235000", "184243.735000", "184245.235000", "184246.735000", "184248.235000", "184249.735000", "184251.235000", "184252.735000", "184254.235000", "184255.735000", "184257.235000", "184258.735000", "184300.235000", "184301.735000", "184303.235000", "184304.735000", "184306.235000", "184307.735000", "184309.235000", "184310.735000", "184312.235000", "184313.735000", "184315.235000", "184316.735000", "184318.235000", "184319.735000", "184321.235000", "184322.735000", "184324.235000", "184325.735000", "184327.235000", "184328.735000", "184330.235000", "184331.735000", "184333.235000", "184334.735000", "184336.235000", "184337.735000", "184339.235000", "184340.735000", "184342.235000", "184343.735000", "184345.235000", "184346.735000", "184348.235000", "184349.735000", "184351.235000", "184352.735000", "184354.235000", "184355.735000", "184357.235000", "184358.735000", "184400.235000", "184401.735000", "184403.235000", "184404.735000", "184406.235000", "184407.735000", "184409.235000", "184410.735000", "184412.235000", "184413.735000", "184415.235000", "184416.735000", "184418.235000", "184419.735000", "184421.235000", "184422.735000", "184424.235000", "184425.735000", "184427.235000", "184428.735000", "184430.235000", "184431.735000", "184433.235000", "184434.735000", "184436.235000", "184437.735000", "184439.235000", "184440.735000", "184442.235000", "184443.735000", "184445.235000", "184446.735000", "184448.235000", "184449.735000", "184451.235000", "184452.735000", "184454.235000", "184455.735000", "184457.235000", "184458.735000", "184500.235000", "184501.735000", "184503.235000", "184504.735000", "184506.235000", "184507.735000", "184509.235000", "184510.735000", "184512.235000", "184513.735000", "184515.235000", "184516.735000", "184518.235000", "184519.735000", "184521.235000", "184522.735000", "184524.235000", "184525.735000", "184527.235000", "184528.735000", "184530.235000", "184531.735000", "184533.235000", "184534.735000", "184536.235000", "184537.735000", "184539.235000", "184540.735000", "184542.235000", "184543.735000", "184545.235000", "184546.735000", "184548.235000", "184549.735000", "184551.235000", "184552.735000", "184554.235000", "184555.735000", "184557.235000", "184558.735000", "184600.235000", "184601.735000", "184603.235000", "184604.735000", "184606.235000", "184607.735000", "184609.235000", "184610.735000", "184612.235000", "184613.735000", "184615.235000", "184616.735000", "184618.235000", "184619.735000", "184621.235000", "184622.735000", "184624.235000", "184625.735000", "184627.235000", "184628.735000", "184630.235000", "184631.735000", "184633.235000", "184634.735000", "184636.235000", "184637.735000", "184639.235000", "184640.735000", "184642.235000", "184643.735000", "184645.235000", "184646.735000", "184648.235000", "184649.735000", "184651.235000", "184652.735000", "184654.235000", "184655.735000", "184657.235000", "184658.735000", "184700.235000", "184701.735000", "184703.235000", "184704.735000", "184706.235000", "184707.735000", "184709.235000", "184710.735000", "184712.235000", "184713.735000", "184715.235000", "184716.735000", "184718.235000", "184719.735000", "184721.235000", "184722.735000", "184724.235000", "184725.735000", "184727.235000", "184728.735000", "184730.235000", "184731.735000", "184733.235000", "184734.735000", "184736.235000", "184737.735000", "184739.235000", "184740.735000", "184742.235000", "184743.735000", "184745.235000", "184746.735000", "184748.235000", "184749.735000", "184751.235000", "184752.735000", "184754.235000", "184755.735000", "184757.235000", "184758.735000", "184800.235000", "184801.735000", "184803.235000", "184804.735000", "184806.235000", "184807.735000", "184809.235000", "184810.735000", "184812.235000", "184813.735000", "184815.235000", "184816.735000", "184818.235000", "184819.735000", "184821.235000", "184822.735000", "184824.235000", "184825.735000", "184827.235000", "184828.735000", "184830.235000", "184831.735000", "184833.235000", "184834.735000", "184836.235000", "184837.735000", "184839.235000", "184840.735000", "184842.235000", "184843.735000", "184845.235000", "184846.735000", "184848.235000", "184849.735000", "184851.235000", "184852.735000", "184854.235000", "184855.735000", "184857.235000", "184858.735000", "184900.235000", "184901.735000", "184903.235000", "184904.735000", "184906.235000", "184907.735000", "184909.235000", "184910.735000", "184912.235000", "184913.735000", "184915.235000", "184916.735000", "184918.235000", "184919.735000", "184921.235000", "184922.735000", "184924.235000", "184925.735000", "184927.235000", "184928.735000", "184930.235000", "184931.735000", "184933.235000", "184934.735000", "184936.235000", "184937.735000", "184939.235000", "184940.735000", "184942.235000", "184943.735000", "184945.235000", "184946.735000", "184948.235000", "184949.735000", "184951.235000", "184952.735000", "184954.235000", "184955.735000", "184957.235000", "184958.735000", "185000.235000", "185001.735000", "185003.235000", "185004.735000", "185006.235000", "185007.735000", "185009.235000", "185010.735000", "185012.235000", "185013.735000", "185015.235000", "185016.735000", "185018.235000", "185019.735000", "185021.235000", "185022.735000", "185024.235000", "185025.735000", "185027.235000", "185028.735000", "185030.235000", "185031.735000", "185033.235000", "185034.735000", "185036.235000", "185037.735000", "185039.235000", "185040.735000", "185042.235000", "185043.735000", "185045.235000", "185046.735000", "185048.235000", "185049.735000", "185051.235000", "185052.735000", "185054.235000", "185055.735000", "185057.235000", "185058.735000", "185100.235000", "185101.735000", "185103.235000", "185104.735000", "185106.235000", "185107.735000", "185109.235000", "185110.735000", "185112.235000", "185113.735000", "185115.235000", "185116.735000", "185118.235000", "185119.735000", "185121.235000", "185122.735000", "185124.235000", "185125.735000", "185127.235000", "185128.735000", "185130.235000", "185131.735000", "185133.235000", "185134.735000", "185136.235000", "185137.735000", "185139.235000", "185140.735000", "185142.235000", "185143.735000", "185145.235000", "185146.735000", "185148.235000", "185149.735000", "185151.235000", "185152.735000", "185154.235000", "185155.735000", "185157.235000", "185158.735000", "185200.235000", "185201.735000", "185203.235000", "185204.735000", "185206.235000", "185207.735000", "185209.235000", "185210.735000", "185212.235000", "185213.735000", "185215.235000", "185216.735000", "185218.235000", "185219.735000", "185221.235000", "185222.735000", "185224.235000", "185225.735000", "185227.235000", "185228.735000", "185230.235000", "185231.735000", "185233.235000", "185234.735000", "185236.235000", "185237.735000", "185239.235000", "185240.735000", "185242.235000", "185243.735000", "185245.235000", "185246.735000", "185248.235000", "185249.735000", "185251.235000", "185252.735000", "185254.235000", "185255.735000", "185257.235000", "185258.735000", "185300.235000", "185301.735000", "185303.235000", "185304.735000", "185306.235000", "185307.735000", "185309.235000", "185310.735000", "185312.235000", "185313.735000", "185315.235000", "185316.735000", "185318.235000", "185319.735000", "185321.235000", "185322.735000", "185324.235000", "185325.735000", "185327.235000", "185328.735000", "185330.235000", "185331.735000", "185333.235000", "185334.735000", "185336.235000", "185337.735000", "185339.235000", "185340.735000", "185342.235000", "185343.735000", "185345.235000", "185346.735000", "185348.235000", "185349.735000", "185351.235000", "185352.735000", "185354.235000", "185355.735000", "185357.235000", "185358.735000", "185400.235000", "185401.735000", "185403.235000", "185404.735000", "185406.235000", "185407.735000", "185409.235000", "185410.735000", "185412.235000", "185413.735000", "185415.235000", "185416.735000", "185418.235000", "185419.735000", "185421.235000", "185422.735000", "185424.235000", "185425.735000", "185427.235000", "185428.735000", "185430.235000", "185431.735000", "185433.235000", "185434.735000", "185436.235000", "185437.735000", "185439.235000", "185440.735000", "185442.235000", "185443.735000", "185445.235000", "185446.735000", "185448.235000", "185449.735000", "185451.235000", "185452.735000", "185454.235000", "185455.735000", "185457.235000", "185458.735000", "185500.235000", "185501.735000", "185503.235000", "185504.735000", "185506.235000", "185507.735000", "185509.235000", "185510.735000", "185512.235000", "185513.735000", "185515.235000", "185516.735000", "185518.235000", "185519.735000", "185521.235000", "185522.735000", "185524.235000", "185525.735000", "185527.235000", "185528.735000", "185530.235000", "185531.735000", "185533.235000", "185534.735000", "185536.235000", "185537.735000", "185539.235000", "185540.735000", "185542.235000", "185543.735000", "185545.235000", "185546.735000", "185548.235000", "185549.735000", "185551.235000", "185552.735000", "185554.235000", "185555.735000", "185557.235000", "185558.735000", "185600.235000", "185601.735000", "185603.235000", "185604.735000", "185606.235000", "185607.735000", "185609.235000", "185610.735000", "185612.235000", "185613.735000", "185615.235000", "185616.735000", "185618.235000", "185619.735000", "185621.235000", "185622.735000", "185624.235000", "185625.735000", "185627.235000", "185628.735000", "185630.235000", "185631.735000", "185633.235000", "185634.735000", "185636.235000", "185637.735000", "185639.235000", "185640.735000", "185642.235000", "185643.735000", "185645.235000", "185646.735000", "185648.235000", "185649.735000", "185651.235000", "185652.735000", "185654.235000", "185655.735000", "185657.235000", "185658.735000", "185700.235000", "185701.735000", "185703.235000", "185704.735000", "185706.235000", "185707.735000", "185709.235000", "185710.735000", "185712.235000", "185713.735000", "185715.235000", "185716.735000", "185718.235000", "185719.735000", "185721.235000", "185722.735000", "185724.235000", "185725.735000", "185727.235000", "185728.735000", "185730.235000", "185731.735000", "185733.235000", "185734.735000", "185736.235000", "185737.735000", "185739.235000", "185740.735000", "185742.235000", "185743.735000", "185745.235000", "185746.735000", "185748.235000", "185749.735000", "185751.235000", "185752.735000", "185754.235000", "185755.735000", "185757.235000", "185758.735000", "185800.235000", "185801.735000", "185803.235000", "185804.735000", "185806.235000", "185807.735000", "185809.235000", "185810.735000", "185812.235000", "185813.735000", "185815.235000", "185816.735000", "185818.235000", "185819.735000", "185821.235000", "185822.735000", "185824.235000", "185825.735000", "185827.235000", "185828.735000", "185830.235000", "185831.735000", "185833.235000", "185834.735000", "185836.235000", "185837.735000", "185839.235000", "185840.735000", "185842.235000", "185843.735000", "185845.235000", "185846.735000", "185848.235000", "185849.735000", "185851.235000", "185852.735000", "185854.235000", "185855.735000", "185857.235000", "185858.735000", "185900.235000", "185901.735000", "185903.235000", "185904.735000", "185906.235000", "185907.735000", "185909.235000", "185910.735000", "185912.235000", "185913.735000", "185915.235000", "185916.735000", "185918.235000", "185919.735000", "185921.235000", "185922.735000", "185924.235000", "185925.735000", "185927.235000", "185928.735000", "185930.235000", "185931.735000", "185933.235000", "185934.735000", "185936.235000", "185937.735000", "185939.235000", "185940.735000", "185942.235000", "185943.735000", "185945.235000", "185946.735000", "185948.2