{
  "AcquisitionMatrixPE": 106,
  "AcquisitionNumber": 1,
  "AcquisitionTime": "19:13:12.115000",
  "BandwidthPerPixelPhaseEncode": 16.846,
  "BaseResolution": 106,
  "BodyPartExamined": "BRAIN",
  "CoilCombinationMethod": "Sum of Squares",
  "ConsistencyInfo": "N4_VE11C_LATEST_20160120",
  "ConversionSoftware": "dcm2niix",
  "ConversionSoftwareVersion": "v1.0.20220720",
  "DerivedVendorReportedEchoSpacing": 0.000560012,
  "DeviceSerialNumber": "166108",
  "DwellTime": 1.8e-06,
  "EchoTime": 0.0352,
  "EchoTrainLength": 106,
  "EffectiveEchoSpacing": 0.000560012,
  "FlipAngle": 60,
  "HeudiconvVersion": "1.3.0",
  "ImageComments": "Unaliased MB4/PE3/LB",
  "ImageOrientationPatientDICOM": [1, 0, 0, 0, 1, 0],
  "ImageOrientationText": "Tra",
  "ImageType": [
    "ORIGINAL",
    "PRIMARY",
    "M",
    "MB",
    "ND",
    "MOSAIC"
],
  "ImagingFrequency": 123.244,
  "InPlanePhaseEncodingDirectionDICOM": "COL",
  "InstitutionAddress": "Bedford Way 26,London,London,GB,WC1H 0AP",
  "InstitutionName": "University College",
  "InstitutionalDepartmentName": "Department",
  "MRAcquisitionType": "2D",
  "MagneticFieldStrength": 3,
  "Manufacturer": "Siemens",
  "ManufacturersModelName": "Prisma",
  "MatrixCoilMode": "SENSE",
  "Modality": "MR",
  "MultibandAccelerationFactor": 4,
  "NonlinearGradientCorrection": false,
  "PartialFourier": 1,
  "PatientPosition": "HFS",
  "PercentPhaseFOV": 100,
  "PercentSampling": 100,
  "PhaseEncodingDirection": "j-",
  "PhaseEncodingSteps": 106,
  "PhaseResolution": 1,
  "PixelBandwidth": 2620,
  "ProcedureStepDescription": "Egor^MovieProject2",
  "ProtocolName": "task-backtothefuture_run-2",
  "PulseSequenceDetails": "%CustomerSeq%\\cmrr_mbep2d_bold",
  "ReceiveCoilActiveElements": "HEA;HEP",
  "ReceiveCoilName": "Head_32",
  "ReconMatrixPE": 106,
  "RepetitionTime": 1.5,
  "SAR": 0.0663441,
  "ScanOptions": "FS\\EXT",
  "ScanningSequence": "EP",
  "SequenceName": "epfid2d1_106",
  "SequenceVariant": "SK\\SS",
  "SeriesDescription": "task-backtothefuture_run-2",
  "SeriesNumber": 7,
  "ShimSetting": [-1583, 635, 7424, 350, -42, 216, -4, 6],
  "SliceThickness": 2,
  "SliceTiming": [0, 1.07, 0.6575, 0.2475, 1.315, 0.905, 0.4925, 0.0825, 1.1525, 0.74, 0.33, 1.3975, 0.9875, 0.575, 0.165, 1.2325, 0.8225, 0.4125, 0, 1.07, 0.6575, 0.2475, 1.315, 0.905, 0.4925, 0.0825, 1.1525, 0.74, 0.33, 1.3975, 0.9875, 0.575, 0.165, 1.2325, 0.8225, 0.4125, 0, 1.07, 0.6575, 0.2475, 1.315, 0.905, 0.4925, 0.0825, 1.1525, 0.74, 0.33, 1.3975, 0.9875, 0.575, 0.165, 1.2325, 0.8225, 0.4125, 0, 1.07, 0.6575, 0.2475, 1.315, 0.905, 0.4925, 0.0825, 1.1525, 0.74, 0.33, 1.3975, 0.9875, 0.575, 0.165, 1.2325, 0.8225, 0.4125],
  "SoftwareVersions": "syngo MR E11",
  "SpacingBetweenSlices": 2,
  "StationName": "AWP166108",
  "TaskName": "backtothefuture",
  "TotalReadoutTime": 0.0588013,
  "TxRefAmp": 221.412,
  "WipMemBlock": "25952ada-f3a6-48c2-a3ba-c207549b4863||Sequence: R016 ve11c/master r/e634e98; Dec 19 2017 11:00:25 by eja",
  "dcmmeta_affine": [
    [-2.0, 0.0, 0.0, 106.0],
    [0.0, 2.0, 0.0, -94.36144256591797],
    [0.0, 0.0, 2.0, -60.759037017822266],
    [0.0, 0.0, 0.0, 1.0]
],
  "dcmmeta_reorient_transform": [
    [0.0, -1.0, 0.0, 105.0],
    [1.0, 0.0, 0.0, 0.0],
    [0.0, 0.0, 1.0, 0.0],
    [0.0, 0.0, 0.0, 1.0]
],
  "dcmmeta_shape": [106, 106, 72, 1522],
  "dcmmeta_slice_dim": 2,
  "dcmmeta_version": 0.6,
  "global": {
    "const": {
      "AcquisitionMatrix": [106, 0, 0, 106],
      "AngioFlag": "N",
      "BitsAllocated": 16,
      "BitsStored": 16,
      "BodyPartExamined": "BRAIN",
      "CardiacNumberOfImages": 1,
      "Columns": 954,
      "EchoNumbers": 1,
      "EchoTime": 35.2,
      "EchoTrainLength": 106,
      "FlipAngle": 60.0,
      "HighBit": 15,
      "ImageOrientationPatient": [1.0, 0.0, 0.0, 0.0, 1.0, 0.0],
      "ImagePositionPatient": [-954.0, -963.63855457306, -60.759037017822],
      "ImageType": [
        "ORIGINAL",
        "PRIMARY",
        "M",
        "MB",
        "ND",
        "MOSAIC"
],
      "ImagedNucleus": "1H",
      "ImagingFrequency": 123.243711,
      "InPlanePhaseEncodingDirection": "COL",
      "MRAcquisitionType": "2D",
      "MagneticFieldStrength": 3.0,
      "Manufacturer": "SIEMENS",
      "ManufacturerModelName": "Prisma",
      "Modality": "MR",
      "NominalInterval": 0,
      "NumberOfAverages": 1.0,
      "NumberOfPhaseEncodingSteps": 106,
      "PercentPhaseFieldOfView": 100.0,
      "PercentSampling": 100.0,
      "PerformedProcedureStepStartTime": "175721.998000",
      "PhotometricInterpretation": "MONOCHROME2",
      "PixelBandwidth": 2620.0,
      "PixelRepresentation": 0,
      "PixelSpacing": [2.0, 2.0],
      "ProtocolName": "task-backtothefuture_run-2",
      "RepetitionTime": 1500.0,
      "Rows": 954,
      "SAR": 0.066344066833,
      "SamplesPerPixel": 1,
      "ScanOptions": [
        "FS",
        "EXT"
],
      "ScanningSequence": "EP",
      "SequenceName": "epfid2d1_106",
      "SequenceVariant": [
        "SK",
        "SS"
],
      "SeriesDescription": "task-backtothefuture_run-2",
      "SeriesNumber": 7,
      "SeriesTime": "191358.190000",
      "SliceLocation": -60.759037017822,
      "SliceThickness": 2.0,
      "SmallestImagePixelValue": 0,
      "SoftwareVersions": "syngo MR E11",
      "SpacingBetweenSlices": 2.0000000537281,
      "SpecificCharacterSet": "ISO_IR 100",
      "StudyID": "1",
      "StudyTime": "175721.867000",
      "TransmitCoilName": "Body",
      "VariableFlipAngleFlag": "N",
      "WindowCenterWidthExplanation": "Algo1",
      "dBdt": 0.0},
    "slices": {}
  },
  "time": {
    "samples": {
      "AcquisitionNumber": [1, 2, 3, 4, 5, 6, 7, 8, 9, 10, 11, 12, 13, 14, 15, 16, 17, 18, 19, 20, 21, 22, 23, 24, 25, 26, 27, 28, 29, 30, 31, 32, 33, 34, 35, 36, 37, 38, 39, 40, 41, 42, 43, 44, 45, 46, 47, 48, 49, 50, 51, 52, 53, 54, 55, 56, 57, 58, 59, 60, 61, 62, 63, 64, 65, 66, 67, 68, 69, 70, 71, 72, 73, 74, 75, 76, 77, 78, 79, 80, 81, 82, 83, 84, 85, 86, 87, 88, 89, 90, 91, 92, 93, 94, 95, 96, 97, 98, 99, 100, 101, 102, 103, 104, 105, 106, 107, 108, 109, 110, 111, 112, 113, 114, 115, 116, 117, 118, 119, 120, 121, 122, 123, 124, 125, 126, 127, 128, 129, 130, 131, 132, 133, 134, 135, 136, 137, 138, 139, 140, 141, 142, 143, 144, 145, 146, 147, 148, 149, 150, 151, 152, 153, 154, 155, 156, 157, 158, 159, 160, 161, 162, 163, 164, 165, 166, 167, 168, 169, 170, 171, 172, 173, 174, 175, 176, 177, 178, 179, 180, 181, 182, 183, 184, 185, 186, 187, 188, 189, 190, 191, 192, 193, 194, 195, 196, 197, 198, 199, 200, 201, 202, 203, 204, 205, 206, 207, 208, 209, 210, 211, 212, 213, 214, 215, 216, 217, 218, 219, 220, 221, 222, 223, 224, 225, 226, 227, 228, 229, 230, 231, 232, 233, 234, 235, 236, 237, 238, 239, 240, 241, 242, 243, 244, 245, 246, 247, 248, 249, 250, 251, 252, 253, 254, 255, 256, 257, 258, 259, 260, 261, 262, 263, 264, 265, 266, 267, 268, 269, 270, 271, 272, 273, 274, 275, 276, 277, 278, 279, 280, 281, 282, 283, 284, 285, 286, 287, 288, 289, 290, 291, 292, 293, 294, 295, 296, 297, 298, 299, 300, 301, 302, 303, 304, 305, 306, 307, 308, 309, 310, 311, 312, 313, 314, 315, 316, 317, 318, 319, 320, 321, 322, 323, 324, 325, 326, 327, 328, 329, 330, 331, 332, 333, 334, 335, 336, 337, 338, 339, 340, 341, 342, 343, 344, 345, 346, 347, 348, 349, 350, 351, 352, 353, 354, 355, 356, 357, 358, 359, 360, 361, 362, 363, 364, 365, 366, 367, 368, 369, 370, 371, 372, 373, 374, 375, 376, 377, 378, 379, 380, 381, 382, 383, 384, 385, 386, 387, 388, 389, 390, 391, 392, 393, 394, 395, 396, 397, 398, 399, 400, 401, 402, 403, 404, 405, 406, 407, 408, 409, 410, 411, 412, 413, 414, 415, 416, 417, 418, 419, 420, 421, 422, 423, 424, 425, 426, 427, 428, 429, 430, 431, 432, 433, 434, 435, 436, 437, 438, 439, 440, 441, 442, 443, 444, 445, 446, 447, 448, 449, 450, 451, 452, 453, 454, 455, 456, 457, 458, 459, 460, 461, 462, 463, 464, 465, 466, 467, 468, 469, 470, 471, 472, 473, 474, 475, 476, 477, 478, 479, 480, 481, 482, 483, 484, 485, 486, 487, 488, 489, 490, 491, 492, 493, 494, 495, 496, 497, 498, 499, 500, 501, 502, 503, 504, 505, 506, 507, 508, 509, 510, 511, 512, 513, 514, 515, 516, 517, 518, 519, 520, 521, 522, 523, 524, 525, 526, 527, 528, 529, 530, 531, 532, 533, 534, 535, 536, 537, 538, 539, 540, 541, 542, 543, 544, 545, 546, 547, 548, 549, 550, 551, 552, 553, 554, 555, 556, 557, 558, 559, 560, 561, 562, 563, 564, 565, 566, 567, 568, 569, 570, 571, 572, 573, 574, 575, 576, 577, 578, 579, 580, 581, 582, 583, 584, 585, 586, 587, 588, 589, 590, 591, 592, 593, 594, 595, 596, 597, 598, 599, 600, 601, 602, 603, 604, 605, 606, 607, 608, 609, 610, 611, 612, 613, 614, 615, 616, 617, 618, 619, 620, 621, 622, 623, 624, 625, 626, 627, 628, 629, 630, 631, 632, 633, 634, 635, 636, 637, 638, 639, 640, 641, 642, 643, 644, 645, 646, 647, 648, 649, 650, 651, 652, 653, 654, 655, 656, 657, 658, 659, 660, 661, 662, 663, 664, 665, 666, 667, 668, 669, 670, 671, 672, 673, 674, 675, 676, 677, 678, 679, 680, 681, 682, 683, 684, 685, 686, 687, 688, 689, 690, 691, 692, 693, 694, 695, 696, 697, 698, 699, 700, 701, 702, 703, 704, 705, 706, 707, 708, 709, 710, 711, 712, 713, 714, 715, 716, 717, 718, 719, 720, 721, 722, 723, 724, 725, 726, 727, 728, 729, 730, 731, 732, 733, 734, 735, 736, 737, 738, 739, 740, 741, 742, 743, 744, 745, 746, 747, 748, 749, 750, 751, 752, 753, 754, 755, 756, 757, 758, 759, 760, 761, 762, 763, 764, 765, 766, 767, 768, 769, 770, 771, 772, 773, 774, 775, 776, 777, 778, 779, 780, 781, 782, 783, 784, 785, 786, 787, 788, 789, 790, 791, 792, 793, 794, 795, 796, 797, 798, 799, 800, 801, 802, 803, 804, 805, 806, 807, 808, 809, 810, 811, 812, 813, 814, 815, 816, 817, 818, 819, 820, 821, 822, 823, 824, 825, 826, 827, 828, 829, 830, 831, 832, 833, 834, 835, 836, 837, 838, 839, 840, 841, 842, 843, 844, 845, 846, 847, 848, 849, 850, 851, 852, 853, 854, 855, 856, 857, 858, 859, 860, 861, 862, 863, 864, 865, 866, 867, 868, 869, 870, 871, 872, 873, 874, 875, 876, 877, 878, 879, 880, 881, 882, 883, 884, 885, 886, 887, 888, 889, 890, 891, 892, 893, 894, 895, 896, 897, 898, 899, 900, 901, 902, 903, 904, 905, 906, 907, 908, 909, 910, 911, 912, 913, 914, 915, 916, 917, 918, 919, 920, 921, 922, 923, 924, 925, 926, 927, 928, 929, 930, 931, 932, 933, 934, 935, 936, 937, 938, 939, 940, 941, 942, 943, 944, 945, 946, 947, 948, 949, 950, 951, 952, 953, 954, 955, 956, 957, 958, 959, 960, 961, 962, 963, 964, 965, 966, 967, 968, 969, 970, 971, 972, 973, 974, 975, 976, 977, 978, 979, 980, 981, 982, 983, 984, 985, 986, 987, 988, 989, 990, 991, 992, 993, 994, 995, 996, 997, 998, 999, 1000, 1001, 1002, 1003, 1004, 1005, 1006, 1007, 1008, 1009, 1010, 1011, 1012, 1013, 1014, 1015, 1016, 1017, 1018, 1019, 1020, 1021, 1022, 1023, 1024, 1025, 1026, 1027, 1028, 1029, 1030, 1031, 1032, 1033, 1034, 1035, 1036, 1037, 1038, 1039, 1040, 1041, 1042, 1043, 1044, 1045, 1046, 1047, 1048, 1049, 1050, 1051, 1052, 1053, 1054, 1055, 1056, 1057, 1058, 1059, 1060, 1061, 1062, 1063, 1064, 1065, 1066, 1067, 1068, 1069, 1070, 1071, 1072, 1073, 1074, 1075, 1076, 1077, 1078, 1079, 1080, 1081, 1082, 1083, 1084, 1085, 1086, 1087, 1088, 1089, 1090, 1091, 1092, 1093, 1094, 1095, 1096, 1097, 1098, 1099, 1100, 1101, 1102, 1103, 1104, 1105, 1106, 1107, 1108, 1109, 1110, 1111, 1112, 1113, 1114, 1115, 1116, 1117, 1118, 1119, 1120, 1121, 1122, 1123, 1124, 1125, 1126, 1127, 1128, 1129, 1130, 1131, 1132, 1133, 1134, 1135, 1136, 1137, 1138, 1139, 1140, 1141, 1142, 1143, 1144, 1145, 1146, 1147, 1148, 1149, 1150, 1151, 1152, 1153, 1154, 1155, 1156, 1157, 1158, 1159, 1160, 1161, 1162, 1163, 1164, 1165, 1166, 1167, 1168, 1169, 1170, 1171, 1172, 1173, 1174, 1175, 1176, 1177, 1178, 1179, 1180, 1181, 1182, 1183, 1184, 1185, 1186, 1187, 1188, 1189, 1190, 1191, 1192, 1193, 1194, 1195, 1196, 1197, 1198, 1199, 1200, 1201, 1202, 1203, 1204, 1205, 1206, 1207, 1208, 1209, 1210, 1211, 1212, 1213, 1214, 1215, 1216, 1217, 1218, 1219, 1220, 1221, 1222, 1223, 1224, 1225, 1226, 1227, 1228, 1229, 1230, 1231, 1232, 1233, 1234, 1235, 1236, 1237, 1238, 1239, 1240, 1241, 1242, 1243, 1244, 1245, 1246, 1247, 1248, 1249, 1250, 1251, 1252, 1253, 1254, 1255, 1256, 1257, 1258, 1259, 1260, 1261, 1262, 1263, 1264, 1265, 1266, 1267, 1268, 1269, 1270, 1271, 1272, 1273, 1274, 1275, 1276, 1277, 1278, 1279, 1280, 1281, 1282, 1283, 1284, 1285, 1286, 1287, 1288, 1289, 1290, 1291, 1292, 1293, 1294, 1295, 1296, 1297, 1298, 1299, 1300, 1301, 1302, 1303, 1304, 1305, 1306, 1307, 1308, 1309, 1310, 1311, 1312, 1313, 1314, 1315, 1316, 1317, 1318, 1319, 1320, 1321, 1322, 1323, 1324, 1325, 1326, 1327, 1328, 1329, 1330, 1331, 1332, 1333, 1334, 1335, 1336, 1337, 1338, 1339, 1340, 1341, 1342, 1343, 1344, 1345, 1346, 1347, 1348, 1349, 1350, 1351, 1352, 1353, 1354, 1355, 1356, 1357, 1358, 1359, 1360, 1361, 1362, 1363, 1364, 1365, 1366, 1367, 1368, 1369, 1370, 1371, 1372, 1373, 1374, 1375, 1376, 1377, 1378, 1379, 1380, 1381, 1382, 1383, 1384, 1385, 1386, 1387, 1388, 1389, 1390, 1391, 1392, 1393, 1394, 1395, 1396, 1397, 1398, 1399, 1400, 1401, 1402, 1403, 1404, 1405, 1406, 1407, 1408, 1409, 1410, 1411, 1412, 1413, 1414, 1415, 1416, 1417, 1418, 1419, 1420, 1421, 1422, 1423, 1424, 1425, 1426, 1427, 1428, 1429, 1430, 1431, 1432, 1433, 1434, 1435, 1436, 1437, 1438, 1439, 1440, 1441, 1442, 1443, 1444, 1445, 1446, 1447, 1448, 1449, 1450, 1451, 1452, 1453, 1454, 1455, 1456, 1457, 1458, 1459, 1460, 1461, 1462, 1463, 1464, 1465, 1466, 1467, 1468, 1469, 1470, 1471, 1472, 1473, 1474, 1475, 1476, 1477, 1478, 1479, 1480, 1481, 1482, 1483, 1484, 1485, 1486, 1487, 1488, 1489, 1490, 1491, 1492, 1493, 1494, 1495, 1496, 1497, 1498, 1499, 1500, 1501, 1502, 1503, 1504, 1505, 1506, 1507, 1508, 1509, 1510, 1511, 1512, 1513, 1514, 1515, 1516, 1517, 1518, 1519, 1520, 1521, 1522],
      "AcquisitionTime": ["191312.115000", "191313.615000", "191315.115000", "191316.615000", "191318.115000", "191319.615000", "191321.115000", "191322.615000", "191324.115000", "191325.615000", "191327.115000", "191328.615000", "191330.115000", "191331.615000", "191333.115000", "191334.615000", "191336.115000", "191337.615000", "191339.115000", "191340.615000", "191342.115000", "191343.615000", "191345.115000", "191346.615000", "191348.115000", "191349.615000", "191351.115000", "191352.615000", "191354.115000", "191355.615000", "191357.115000", "191358.615000", "191400.115000", "191401.615000", "191403.115000", "191404.615000", "191406.115000", "191407.615000", "191409.115000", "191410.615000", "191412.115000", "191413.615000", "191415.115000", "191416.615000", "191418.115000", "191419.615000", "191421.115000", "191422.615000", "191424.115000", "191425.615000", "191427.115000", "191428.615000", "191430.115000", "191431.615000", "191433.115000", "191434.615000", "191436.115000", "191437.615000", "191439.115000", "191440.615000", "191442.115000", "191443.615000", "191445.115000", "191446.615000", "191448.115000", "191449.615000", "191451.115000", "191452.615000", "191454.115000", "191455.615000", "191457.115000", "191458.615000", "191500.115000", "191501.615000", "191503.115000", "191504.615000", "191506.115000", "191507.615000", "191509.115000", "191510.615000", "191512.115000", "191513.615000", "191515.115000", "191516.615000", "191518.115000", "191519.615000", "191521.115000", "191522.615000", "191524.115000", "191525.615000", "191527.115000", "191528.615000", "191530.115000", "191531.615000", "191533.115000", "191534.615000", "191536.115000", "191537.615000", "191539.115000", "191540.615000", "191542.115000", "191543.615000", "191545.115000", "191546.615000", "191548.115000", "191549.615000", "191551.115000", "191552.615000", "191554.115000", "191555.615000", "191557.115000", "191558.615000", "191600.115000", "191601.615000", "191603.115000", "191604.615000", "191606.115000", "191607.615000", "191609.115000", "191610.615000", "191612.115000", "191613.615000", "191615.115000", "191616.615000", "191618.115000", "191619.615000", "191621.115000", "191622.615000", "191624.115000", "191625.615000", "191627.115000", "191628.615000", "191630.115000", "191631.615000", "191633.115000", "191634.615000", "191636.115000", "191637.615000", "191639.115000", "191640.615000", "191642.115000", "191643.615000", "191645.115000", "191646.615000", "191648.115000", "191649.615000", "191651.115000", "191652.615000", "191654.115000", "191655.615000", "191657.115000", "191658.615000", "191700.115000", "191701.615000", "191703.115000", "191704.615000", "191706.115000", "191707.615000", "191709.115000", "191710.615000", "191712.115000", "191713.615000", "191715.115000", "191716.615000", "191718.115000", "191719.615000", "191721.115000", "191722.615000", "191724.115000", "191725.615000", "191727.115000", "191728.615000", "191730.115000", "191731.615000", "191733.115000", "191734.615000", "191736.115000", "191737.615000", "191739.115000", "191740.615000", "191742.115000", "191743.615000", "191745.115000", "191746.615000", "191748.115000", "191749.615000", "191751.115000", "191752.615000", "191754.115000", "191755.615000", "191757.115000", "191758.615000", "191800.115000", "191801.615000", "191803.115000", "191804.615000", "191806.115000", "191807.615000", "191809.115000", "191810.615000", "191812.115000", "191813.615000", "191815.115000", "191816.615000", "191818.115000", "191819.615000", "191821.115000", "191822.615000", "191824.115000", "191825.615000", "191827.115000", "191828.615000", "191830.115000", "191831.615000", "191833.115000", "191834.615000", "191836.115000", "191837.615000", "191839.115000", "191840.615000", "191842.115000", "191843.615000", "191845.115000", "191846.615000", "191848.115000", "191849.615000", "191851.115000", "191852.615000", "191854.115000", "191855.615000", "191857.115000", "191858.615000", "191900.115000", "191901.615000", "191903.115000", "191904.615000", "191906.115000", "191907.615000", "191909.115000", "191910.615000", "191912.115000", "191913.615000", "191915.115000", "191916.615000", "191918.115000", "191919.615000", "191921.115000", "191922.615000", "191924.115000", "191925.615000", "191927.115000", "191928.615000", "191930.115000", "191931.615000", "191933.115000", "191934.615000", "191936.115000", "191937.615000", "191939.115000", "191940.615000", "191942.115000", "191943.615000", "191945.115000", "191946.615000", "191948.115000", "191949.615000", "191951.115000", "191952.615000", "191954.115000", "191955.615000", "191957.115000", "191958.615000", "192000.115000", "192001.615000", "192003.115000", "192004.615000", "192006.115000", "192007.615000", "192009.115000", "192010.615000", "192012.115000", "192013.615000", "192015.115000", "192016.615000", "192018.115000", "192019.615000", "192021.115000", "192022.615000", "192024.115000", "192025.615000", "192027.115000", "192028.615000", "192030.115000", "192031.615000", "192033.115000", "192034.615000", "192036.115000", "192037.615000", "192039.115000", "192040.615000", "192042.115000", "192043.615000", "192045.115000", "192046.615000", "192048.115000", "192049.615000", "192051.115000", "192052.615000", "192054.115000", "192055.615000", "192057.115000", "192058.615000", "192100.115000", "192101.615000", "192103.115000", "192104.615000", "192106.115000", "192107.615000", "192109.115000", "192110.615000", "192112.115000", "192113.615000", "192115.115000", "192116.615000", "192118.115000", "192119.615000", "192121.115000", "192122.615000", "192124.115000", "192125.615000", "192127.115000", "192128.615000", "192130.115000", "192131.615000", "192133.115000", "192134.615000", "192136.115000", "192137.615000", "192139.115000", "192140.615000", "192142.115000", "192143.615000", "192145.115000", "192146.615000", "192148.115000", "192149.615000", "192151.115000", "192152.615000", "192154.115000", "192155.615000", "192157.115000", "192158.615000", "192200.115000", "192201.615000", "192203.115000", "192204.615000", "192206.115000", "192207.615000", "192209.115000", "192210.615000", "192212.115000", "192213.615000", "192215.115000", "192216.615000", "192218.115000", "192219.615000", "192221.115000", "192222.615000", "192224.115000", "192225.615000", "192227.115000", "192228.615000", "192230.115000", "192231.615000", "192233.115000", "192234.615000", "192236.115000", "192237.615000", "192239.115000", "192240.615000", "192242.115000", "192243.615000", "192245.115000", "192246.615000", "192248.115000", "192249.615000", "192251.115000", "192252.615000", "192254.115000", "192255.615000", "192257.115000", "192258.615000", "192300.115000", "192301.615000", "192303.115000", "192304.615000", "192306.115000", "192307.615000", "192309.115000", "192310.615000", "192312.115000", "192313.615000", "192315.115000", "192316.615000", "192318.115000", "192319.615000", "192321.115000", "192322.615000", "192324.115000", "192325.615000", "192327.115000", "192328.615000", "192330.115000", "192331.615000", "192333.115000", "192334.615000", "192336.115000", "192337.615000", "192339.115000", "192340.615000", "192342.115000", "192343.615000", "192345.115000", "192346.615000", "192348.115000", "192349.615000", "192351.115000", "192352.615000", "192354.115000", "192355.615000", "192357.115000", "192358.615000", "192400.115000", "192401.615000", "192403.115000", "192404.615000", "192406.115000", "192407.615000", "192409.115000", "192410.615000", "192412.115000", "192413.615000", "192415.115000", "192416.615000", "192418.115000", "192419.615000", "192421.115000", "192422.615000", "192424.115000", "192425.615000", "192427.115000", "192428.615000", "192430.115000", "192431.615000", "192433.115000", "192434.615000", "192436.115000", "192437.615000", "192439.115000", "192440.615000", "192442.115000", "192443.615000", "192445.115000", "192446.615000", "192448.115000", "192449.615000", "192451.115000", "192452.615000", "192454.115000", "192455.615000", "192457.115000", "192458.615000", "192500.115000", "192501.615000", "192503.115000", "192504.615000", "192506.115000", "192507.615000", "192509.115000", "192510.615000", "192512.115000", "192513.615000", "192515.115000", "192516.615000", "192518.115000", "192519.615000", "192521.115000", "192522.615000", "192524.115000", "192525.615000", "192527.115000", "192528.615000", "192530.115000", "192531.615000", "192533.115000", "192534.615000", "192536.115000", "192537.615000", "192539.115000", "192540.615000", "192542.115000", "192543.615000", "192545.115000", "192546.615000", "192548.115000", "192549.615000", "192551.115000", "192552.615000", "192554.115000", "192555.615000", "192557.115000", "192558.615000", "192600.115000", "192601.615000", "192603.115000", "192604.615000", "192606.115000", "192607.615000", "192609.115000", "192610.615000", "192612.115000", "192613.615000", "192615.115000", "192616.615000", "192618.115000", "192619.615000", "192621.115000", "192622.615000", "192624.115000", "192625.615000", "192627.115000", "192628.615000", "192630.115000", "192631.615000", "192633.115000", "192634.615000", "192636.115000", "192637.615000", "192639.115000", "192640.615000", "192642.115000", "192643.615000", "192645.115000", "192646.615000", "192648.115000", "192649.615000", "192651.115000", "192652.615000", "192654.115000", "192655.615000", "192657.115000", "192658.615000", "192700.115000", "192701.615000", "192703.115000", "192704.615000", "192706.115000", "192707.615000", "192709.115000", "192710.615000", "192712.115000", "192713.615000", "192715.115000", "192716.615000", "192718.115000", "192719.615000", "192721.115000", "192722.615000", "192724.115000", "192725.615000", "192727.115000", "192728.615000", "192730.115000", "192731.615000", "192733.115000", "192734.615000", "192736.115000", "192737.615000", "192739.115000", "192740.615000", "192742.115000", "192743.615000", "192745.115000", "192746.615000", "192748.115000", "192749.615000", "192751.115000", "192752.615000", "192754.115000", "192755.615000", "192757.115000", "192758.615000", "192800.115000", "192801.615000", "192803.115000", "192804.615000", "192806.115000", "192807.615000", "192809.115000", "192810.615000", "192812.115000", "192813.615000", "192815.115000", "192816.615000", "192818.115000", "192819.615000", "192821.115000", "192822.615000", "192824.115000", "192825.615000", "192827.115000", "192828.615000", "192830.115000", "192831.615000", "192833.115000", "192834.615000", "192836.115000", "192837.615000", "192839.115000", "192840.615000", "192842.115000", "192843.615000", "192845.115000", "192846.615000", "192848.115000", "192849.615000", "192851.115000", "192852.615000", "192854.115000", "192855.615000", "192857.115000", "192858.615000", "192900.115000", "192901.615000", "192903.115000", "192904.615000", "192906.115000", "192907.615000", "192909.115000", "192910.615000", "192912.115000", "192913.615000", "192915.115000", "192916.615000", "192918.115000", "192919.615000", "192921.115000", "192922.615000", "192924.115000", "192925.615000", "192927.115000", "192928.615000", "192930.115000", "192931.615000", "192933.115000", "192934.615000", "192936.115000", "192937.615000", "192939.115000", "192940.615000", "192942.115000", "192943.615000", "192945.115000", "192946.615000", "192948.115000", "192949.615000", "192951.115000", "192952.615000", "192954.115000", "192955.615000", "192957.115000", "192958.615000", "193000.115000", "193001.615000", "193003.115000", "193004.615000", "193006.115000", "193007.615000", "193009.115000", "193010.615000", "193012.115000", "193013.615000", "193015.115000", "193016.615000", "193018.115000", "193019.615000", "193021.115000", "193022.615000", "193024.115000", "193025.615000", "193027.115000", "193028.615000", "193030.115000", "193031.615000", "193033.115000", "193034.615000", "193036.115000", "193037.615000", "193039.115000", "193040.615000", "193042.115000", "193043.615000", "193045.115000", "193046.615000", "193048.115000", "193049.615000", "193051.115000", "193052.615000", "193054.115000", "193055.615000", "193057.115000", "193058.615000", "193100.115000", "193101.615000", "193103.115000", "193104.615000", "193106.115000", "193107.615000", "193109.115000", "193110.615000", "193112.115000", "193113.615000", "193115.115000", "193116.615000", "193118.115000", "193119.615000", "193121.115000", "193122.615000", "193124.115000", "193125.615000", "193127.115000", "193128.615000", "193130.115000", "193131.615000", "193133.115000", "193134.615000", "193136.115000", "193137.615000", "193139.115000", "193140.615000", "193142.115000", "193143.615000", "193145.115000", "193146.615000", "193148.115000", "193149.615000", "193151.115000", "193152.615000", "193154.115000", "193155.615000", "193157.115000", "193158.615000", "193200.115000", "193201.615000", "193203.115000", "193204.615000", "193206.115000", "193207.615000", "193209.115000", "193210.615000", "193212.115000", "193213.615000", "193215.115000", "193216.615000", "193218.115000", "193219.615000", "193221.115000", "193222.615000", "193224.115000", "193225.615000", "193227.115000", "193228.615000", "193230.115000", "193231.615000", "193233.115000", "193234.615000", "193236.115000", "193237.615000", "193239.115000", "193240.615000", "193242.115000", "193243.615000", "193245.115000", "193246.615000", "193248.115000", "193249.615000", "193251.115000", "193252.615000", "193254.115000", "193255.615000", "193257.115000", "193258.615000", "193300.115000", "193301.615000", "193303.115000", "193304.615000", "193306.115000", "193307.615000", "193309.115000", "193310.615000", "193312.115000", "193313.615000", "193315.115000", "193316.615000", "193318.115000", "193319.615000", "193321.115000", "193322.615000", "193324.115000", "193325.615000", "193327.115000", "193328.615000", "193330.115000", "193331.615000", "193333.115000", "193334.615000", "193336.115000", "193337.615000", "193339.115000", "193340.615000", "193342.115000", "193343.615000", "193345.115000", "193346.615000", "193348.115000", "193349.615000", "193351.115000", "193352.615000", "193354.115000", "193355.615000", "193357.115000", "193358.615000", "193400.115000", "193401.615000", "193403.115000", "193404.615000", "193406.115000", "193407.615000", "193409.115000", "193410.615000", "193412.115000", "193413.615000", "193415.115000", "193416.615000", "193418.115000", "193419.615000", "193421.115000", "193422.615000", "193424.115000", "193425.615000", "193427.115000", "193428.615000", "193430.115000", "193431.615000", "193433.115000", "193434.615000", "193436.115000", "193437.615000", "193439.115000", "193440.615000", "193442.115000", "193443.615000", "193445.115000", "193446.615000", "193448.115000", "193449.615000", "193451.115000", "193452.615000", "193454.115000", "193455.615000", "193457.115000", "193458.615000", "193500.115000", "193501.615000", "193503.115000", "193504.615000", "193506.115000", "193507.615000", "193509.115000", "193510.615000", "193512.115000", "193513.615000", "193515.115000", "193516.615000", "193518.115000", "193519.615000", "193521.115000", "193522.615000", "193524.115000", "193525.615000", "193527.115000", "193528.615000", "193530.115000", "193531.615000", "193533.115000", "193534.615000", "193536.115000", "193537.615000", "193539.115000", "193540.615000", "193542.115000", "193543.615000", "193545.115000", "193546.615000", "193548.115000", "193549.615000", "193551.115000", "193552.615000", "193554.115000", "193555.615000", "193557.115000", "193558.615000", "193600.115000", "193601.615000", "193603.115000", "193604.615000", "193606.115000", "193607.615000", "193609.115000", "193610.615000", "193612.115000", "193613.615000", "193615.115000", "193616.615000", "193618.115000", "193619.615000", "193621.115000", "193622.615000", "193624.115000", "193625.615000", "193627.115000", "193628.615000", "193630.115000", "193631.615000", "193633.115000", "193634.615000", "193636.115000", "193637.615000", "193639.115000", "193640.615000", "193642.115000", "193643.615000", "193645.115000", "193646.615000", "193648.115000", "193649.615000", "193651.115000", "193652.615000", "193654.115000", "193655.615000", "193657.115000", "193658.615000", "193700.115000", "193701.615000", "193703.115000", "193704.615000", "193706.115000", "193707.615000", "193709.115000", "193710.615000", 