{
  "AcquisitionMatrixPE": 106,
  "AcquisitionNumber": 1,
  "AcquisitionTime": "19:55:21.410000",
  "BandwidthPerPixelPhaseEncode": 16.846,
  "BaseResolution": 106,
  "BodyPartExamined": "BRAIN",
  "CoilCombinationMethod": "Sum of Squares",
  "ConsistencyInfo": "N4_VE11C_LATEST_20160120",
  "ConversionSoftware": "dcm2niix",
  "ConversionSoftwareVersion": "v1.0.20220720",
  "DerivedVendorReportedEchoSpacing": 0.000560012,
  "DeviceSerialNumber": "166108",
  "DwellTime": 1.8e-06,
  "EchoTime": 0.0352,
  "EchoTrainLength": 106,
  "EffectiveEchoSpacing": 0.000560012,
  "FlipAngle": 60,
  "HeudiconvVersion": "1.3.0",
  "ImageComments": "Unaliased MB4/PE3/LB",
  "ImageOrientationPatientDICOM": [1, 0, 0, 0, 1, 0],
  "ImageOrientationText": "Tra",
  "ImageType": [
    "ORIGINAL",
    "PRIMARY",
    "M",
    "MB",
    "ND",
    "MOSAIC"
],
  "ImagingFrequency": 123.244,
  "InPlanePhaseEncodingDirectionDICOM": "COL",
  "InstitutionAddress": "Bedford Way 26,London,London,GB,WC1H 0AP",
  "InstitutionName": "University College",
  "InstitutionalDepartmentName": "Department",
  "MRAcquisitionType": "2D",
  "MagneticFieldStrength": 3,
  "Manufacturer": "Siemens",
  "ManufacturersModelName": "Prisma",
  "MatrixCoilMode": "SENSE",
  "Modality": "MR",
  "MultibandAccelerationFactor": 4,
  "NonlinearGradientCorrection": false,
  "PartialFourier": 1,
  "PatientPosition": "HFS",
  "PercentPhaseFOV": 100,
  "PercentSampling": 100,
  "PhaseEncodingDirection": "j-",
  "PhaseEncodingSteps": 106,
  "PhaseResolution": 1,
  "PixelBandwidth": 2620,
  "ProcedureStepDescription": "Egor^MovieProject2",
  "ProtocolName": "task-backtothefuture_run-3",
  "PulseSequenceDetails": "%CustomerSeq%\\cmrr_mbep2d_bold",
  "ReceiveCoilActiveElements": "HEA;HEP",
  "ReceiveCoilName": "Head_32",
  "ReconMatrixPE": 106,
  "RepetitionTime": 1.5,
  "SAR": 0.0663498,
  "ScanOptions": "FS\\EXT",
  "ScanningSequence": "EP",
  "SequenceName": "epfid2d1_106",
  "SequenceVariant": "SK\\SS",
  "SeriesDescription": "task-backtothefuture_run-3",
  "SeriesNumber": 11,
  "ShimSetting": [-1583, 635, 7424, 350, -42, 216, -4, 6],
  "SliceThickness": 2,
  "SliceTiming": [0, 1.07, 0.66, 0.2475, 1.3175, 0.905, 0.495, 0.0825, 1.1525, 0.74, 0.33, 1.4, 0.9875, 0.5775, 0.165, 1.235, 0.8225, 0.4125, 0, 1.07, 0.66, 0.2475, 1.3175, 0.905, 0.495, 0.0825, 1.1525, 0.74, 0.33, 1.4, 0.9875, 0.5775, 0.165, 1.235, 0.8225, 0.4125, 0, 1.07, 0.66, 0.2475, 1.3175, 0.905, 0.495, 0.0825, 1.1525, 0.74, 0.33, 1.4, 0.9875, 0.5775, 0.165, 1.235, 0.8225, 0.4125, 0, 1.07, 0.66, 0.2475, 1.3175, 0.905, 0.495, 0.0825, 1.1525, 0.74, 0.33, 1.4, 0.9875, 0.5775, 0.165, 1.235, 0.8225, 0.4125],
  "SoftwareVersions": "syngo MR E11",
  "SpacingBetweenSlices": 2,
  "StationName": "AWP166108",
  "TaskName": "backtothefuture",
  "TotalReadoutTime": 0.0588013,
  "TxRefAmp": 221.412,
  "WipMemBlock": "c53b2231-396c-44ab-b0a5-e232a8da8c17||Sequence: R016 ve11c/master r/e634e98; Dec 19 2017 11:00:25 by eja",
  "dcmmeta_affine": [
    [-2.0, 0.0, 0.0, 106.0],
    [0.0, 2.0, 0.0, -94.36144256591797],
    [0.0, 0.0, 2.0, -60.759037017822266],
    [0.0, 0.0, 0.0, 1.0]
],
  "dcmmeta_reorient_transform": [
    [0.0, -1.0, 0.0, 105.0],
    [1.0, 0.0, 0.0, 0.0],
    [0.0, 0.0, 1.0, 0.0],
    [0.0, 0.0, 0.0, 1.0]
],
  "dcmmeta_shape": [106, 106, 72, 1608],
  "dcmmeta_slice_dim": 2,
  "dcmmeta_version": 0.6,
  "global": {
    "const": {
      "AcquisitionMatrix": [106, 0, 0, 106],
      "AngioFlag": "N",
      "BitsAllocated": 16,
      "BitsStored": 16,
      "BodyPartExamined": "BRAIN",
      "CardiacNumberOfImages": 1,
      "Columns": 954,
      "EchoNumbers": 1,
      "EchoTime": 35.2,
      "EchoTrainLength": 106,
      "FlipAngle": 60.0,
      "HighBit": 15,
      "ImageOrientationPatient": [1.0, 0.0, 0.0, 0.0, 1.0, 0.0],
      "ImagePositionPatient": [-954.0, -963.63855457306, -60.759037017822],
      "ImageType": [
        "ORIGINAL",
        "PRIMARY",
        "M",
        "MB",
        "ND",
        "MOSAIC"
],
      "ImagedNucleus": "1H",
      "ImagingFrequency": 123.243723,
      "InPlanePhaseEncodingDirection": "COL",
      "MRAcquisitionType": "2D",
      "MagneticFieldStrength": 3.0,
      "Manufacturer": "SIEMENS",
      "ManufacturerModelName": "Prisma",
      "Modality": "MR",
      "NominalInterval": 0,
      "NumberOfAverages": 1.0,
      "NumberOfPhaseEncodingSteps": 106,
      "PercentPhaseFieldOfView": 100.0,
      "PercentSampling": 100.0,
      "PerformedProcedureStepStartTime": "175721.998000",
      "PhotometricInterpretation": "MONOCHROME2",
      "PixelBandwidth": 2620.0,
      "PixelRepresentation": 0,
      "PixelSpacing": [2.0, 2.0],
      "ProtocolName": "task-backtothefuture_run-3",
      "RepetitionTime": 1500.0,
      "Rows": 954,
      "SAR": 0.06634977819741,
      "SamplesPerPixel": 1,
      "ScanOptions": [
        "FS",
        "EXT"
],
      "ScanningSequence": "EP",
      "SequenceName": "epfid2d1_106",
      "SequenceVariant": [
        "SK",
        "SS"
],
      "SeriesDescription": "task-backtothefuture_run-3",
      "SeriesNumber": 11,
      "SeriesTime": "195609.294000",
      "SliceLocation": -60.759037017822,
      "SliceThickness": 2.0,
      "SmallestImagePixelValue": 0,
      "SoftwareVersions": "syngo MR E11",
      "SpacingBetweenSlices": 2.0000000537281,
      "SpecificCharacterSet": "ISO_IR 100",
      "StudyID": "1",
      "StudyTime": "175721.867000",
      "TransmitCoilName": "Body",
      "VariableFlipAngleFlag": "N",
      "WindowCenterWidthExplanation": "Algo1",
      "dBdt": 0.0},
    "slices": {}
  },
  "time": {
    "samples": {
      "AcquisitionNumber": [1, 2, 3, 4, 5, 6, 7, 8, 9, 10, 11, 12, 13, 14, 15, 16, 17, 18, 19, 20, 21, 22, 23, 24, 25, 26, 27, 28, 29, 30, 31, 32, 33, 34, 35, 36, 37, 38, 39, 40, 41, 42, 43, 44, 45, 46, 47, 48, 49, 50, 51, 52, 53, 54, 55, 56, 57, 58, 59, 60, 61, 62, 63, 64, 65, 66, 67, 68, 69, 70, 71, 72, 73, 74, 75, 76, 77, 78, 79, 80, 81, 82, 83, 84, 85, 86, 87, 88, 89, 90, 91, 92, 93, 94, 95, 96, 97, 98, 99, 100, 101, 102, 103, 104, 105, 106, 107, 108, 109, 110, 111, 112, 113, 114, 115, 116, 117, 118, 119, 120, 121, 122, 123, 124, 125, 126, 127, 128, 129, 130, 131, 132, 133, 134, 135, 136, 137, 138, 139, 140, 141, 142, 143, 144, 145, 146, 147, 148, 149, 150, 151, 152, 153, 154, 155, 156, 157, 158, 159, 160, 161, 162, 163, 164, 165, 166, 167, 168, 169, 170, 171, 172, 173, 174, 175, 176, 177, 178, 179, 180, 181, 182, 183, 184, 185, 186, 187, 188, 189, 190, 191, 192, 193, 194, 195, 196, 197, 198, 199, 200, 201, 202, 203, 204, 205, 206, 207, 208, 209, 210, 211, 212, 213, 214, 215, 216, 217, 218, 219, 220, 221, 222, 223, 224, 225, 226, 227, 228, 229, 230, 231, 232, 233, 234, 235, 236, 237, 238, 239, 240, 241, 242, 243, 244, 245, 246, 247, 248, 249, 250, 251, 252, 253, 254, 255, 256, 257, 258, 259, 260, 261, 262, 263, 264, 265, 266, 267, 268, 269, 270, 271, 272, 273, 274, 275, 276, 277, 278, 279, 280, 281, 282, 283, 284, 285, 286, 287, 288, 289, 290, 291, 292, 293, 294, 295, 296, 297, 298, 299, 300, 301, 302, 303, 304, 305, 306, 307, 308, 309, 310, 311, 312, 313, 314, 315, 316, 317, 318, 319, 320, 321, 322, 323, 324, 325, 326, 327, 328, 329, 330, 331, 332, 333, 334, 335, 336, 337, 338, 339, 340, 341, 342, 343, 344, 345, 346, 347, 348, 349, 350, 351, 352, 353, 354, 355, 356, 357, 358, 359, 360, 361, 362, 363, 364, 365, 366, 367, 368, 369, 370, 371, 372, 373, 374, 375, 376, 377, 378, 379, 380, 381, 382, 383, 384, 385, 386, 387, 388, 389, 390, 391, 392, 393, 394, 395, 396, 397, 398, 399, 400, 401, 402, 403, 404, 405, 406, 407, 408, 409, 410, 411, 412, 413, 414, 415, 416, 417, 418, 419, 420, 421, 422, 423, 424, 425, 426, 427, 428, 429, 430, 431, 432, 433, 434, 435, 436, 437, 438, 439, 440, 441, 442, 443, 444, 445, 446, 447, 448, 449, 450, 451, 452, 453, 454, 455, 456, 457, 458, 459, 460, 461, 462, 463, 464, 465, 466, 467, 468, 469, 470, 471, 472, 473, 474, 475, 476, 477, 478, 479, 480, 481, 482, 483, 484, 485, 486, 487, 488, 489, 490, 491, 492, 493, 494, 495, 496, 497, 498, 499, 500, 501, 502, 503, 504, 505, 506, 507, 508, 509, 510, 511, 512, 513, 514, 515, 516, 517, 518, 519, 520, 521, 522, 523, 524, 525, 526, 527, 528, 529, 530, 531, 532, 533, 534, 535, 536, 537, 538, 539, 540, 541, 542, 543, 544, 545, 546, 547, 548, 549, 550, 551, 552, 553, 554, 555, 556, 557, 558, 559, 560, 561, 562, 563, 564, 565, 566, 567, 568, 569, 570, 571, 572, 573, 574, 575, 576, 577, 578, 579, 580, 581, 582, 583, 584, 585, 586, 587, 588, 589, 590, 591, 592, 593, 594, 595, 596, 597, 598, 599, 600, 601, 602, 603, 604, 605, 606, 607, 608, 609, 610, 611, 612, 613, 614, 615, 616, 617, 618, 619, 620, 621, 622, 623, 624, 625, 626, 627, 628, 629, 630, 631, 632, 633, 634, 635, 636, 637, 638, 639, 640, 641, 642, 643, 644, 645, 646, 647, 648, 649, 650, 651, 652, 653, 654, 655, 656, 657, 658, 659, 660, 661, 662, 663, 664, 665, 666, 667, 668, 669, 670, 671, 672, 673, 674, 675, 676, 677, 678, 679, 680, 681, 682, 683, 684, 685, 686, 687, 688, 689, 690, 691, 692, 693, 694, 695, 696, 697, 698, 699, 700, 701, 702, 703, 704, 705, 706, 707, 708, 709, 710, 711, 712, 713, 714, 715, 716, 717, 718, 719, 720, 721, 722, 723, 724, 725, 726, 727, 728, 729, 730, 731, 732, 733, 734, 735, 736, 737, 738, 739, 740, 741, 742, 743, 744, 745, 746, 747, 748, 749, 750, 751, 752, 753, 754, 755, 756, 757, 758, 759, 760, 761, 762, 763, 764, 765, 766, 767, 768, 769, 770, 771, 772, 773, 774, 775, 776, 777, 778, 779, 780, 781, 782, 783, 784, 785, 786, 787, 788, 789, 790, 791, 792, 793, 794, 795, 796, 797, 798, 799, 800, 801, 802, 803, 804, 805, 806, 807, 808, 809, 810, 811, 812, 813, 814, 815, 816, 817, 818, 819, 820, 821, 822, 823, 824, 825, 826, 827, 828, 829, 830, 831, 832, 833, 834, 835, 836, 837, 838, 839, 840, 841, 842, 843, 844, 845, 846, 847, 848, 849, 850, 851, 852, 853, 854, 855, 856, 857, 858, 859, 860, 861, 862, 863, 864, 865, 866, 867, 868, 869, 870, 871, 872, 873, 874, 875, 876, 877, 878, 879, 880, 881, 882, 883, 884, 885, 886, 887, 888, 889, 890, 891, 892, 893, 894, 895, 896, 897, 898, 899, 900, 901, 902, 903, 904, 905, 906, 907, 908, 909, 910, 911, 912, 913, 914, 915, 916, 917, 918, 919, 920, 921, 922, 923, 924, 925, 926, 927, 928, 929, 930, 931, 932, 933, 934, 935, 936, 937, 938, 939, 940, 941, 942, 943, 944, 945, 946, 947, 948, 949, 950, 951, 952, 953, 954, 955, 956, 957, 958, 959, 960, 961, 962, 963, 964, 965, 966, 967, 968, 969, 970, 971, 972, 973, 974, 975, 976, 977, 978, 979, 980, 981, 982, 983, 984, 985, 986, 987, 988, 989, 990, 991, 992, 993, 994, 995, 996, 997, 998, 999, 1000, 1001, 1002, 1003, 1004, 1005, 1006, 1007, 1008, 1009, 1010, 1011, 1012, 1013, 1014, 1015, 1016, 1017, 1018, 1019, 1020, 1021, 1022, 1023, 1024, 1025, 1026, 1027, 1028, 1029, 1030, 1031, 1032, 1033, 1034, 1035, 1036, 1037, 1038, 1039, 1040, 1041, 1042, 1043, 1044, 1045, 1046, 1047, 1048, 1049, 1050, 1051, 1052, 1053, 1054, 1055, 1056, 1057, 1058, 1059, 1060, 1061, 1062, 1063, 1064, 1065, 1066, 1067, 1068, 1069, 1070, 1071, 1072, 1073, 1074, 1075, 1076, 1077, 1078, 1079, 1080, 1081, 1082, 1083, 1084, 1085, 1086, 1087, 1088, 1089, 1090, 1091, 1092, 1093, 1094, 1095, 1096, 1097, 1098, 1099, 1100, 1101, 1102, 1103, 1104, 1105, 1106, 1107, 1108, 1109, 1110, 1111, 1112, 1113, 1114, 1115, 1116, 1117, 1118, 1119, 1120, 1121, 1122, 1123, 1124, 1125, 1126, 1127, 1128, 1129, 1130, 1131, 1132, 1133, 1134, 1135, 1136, 1137, 1138, 1139, 1140, 1141, 1142, 1143, 1144, 1145, 1146, 1147, 1148, 1149, 1150, 1151, 1152, 1153, 1154, 1155, 1156, 1157, 1158, 1159, 1160, 1161, 1162, 1163, 1164, 1165, 1166, 1167, 1168, 1169, 1170, 1171, 1172, 1173, 1174, 1175, 1176, 1177, 1178, 1179, 1180, 1181, 1182, 1183, 1184, 1185, 1186, 1187, 1188, 1189, 1190, 1191, 1192, 1193, 1194, 1195, 1196, 1197, 1198, 1199, 1200, 1201, 1202, 1203, 1204, 1205, 1206, 1207, 1208, 1209, 1210, 1211, 1212, 1213, 1214, 1215, 1216, 1217, 1218, 1219, 1220, 1221, 1222, 1223, 1224, 1225, 1226, 1227, 1228, 1229, 1230, 1231, 1232, 1233, 1234, 1235, 1236, 1237, 1238, 1239, 1240, 1241, 1242, 1243, 1244, 1245, 1246, 1247, 1248, 1249, 1250, 1251, 1252, 1253, 1254, 1255, 1256, 1257, 1258, 1259, 1260, 1261, 1262, 1263, 1264, 1265, 1266, 1267, 1268, 1269, 1270, 1271, 1272, 1273, 1274, 1275, 1276, 1277, 1278, 1279, 1280, 1281, 1282, 1283, 1284, 1285, 1286, 1287, 1288, 1289, 1290, 1291, 1292, 1293, 1294, 1295, 1296, 1297, 1298, 1299, 1300, 1301, 1302, 1303, 1304, 1305, 1306, 1307, 1308, 1309, 1310, 1311, 1312, 1313, 1314, 1315, 1316, 1317, 1318, 1319, 1320, 1321, 1322, 1323, 1324, 1325, 1326, 1327, 1328, 1329, 1330, 1331, 1332, 1333, 1334, 1335, 1336, 1337, 1338, 1339, 1340, 1341, 1342, 1343, 1344, 1345, 1346, 1347, 1348, 1349, 1350, 1351, 1352, 1353, 1354, 1355, 1356, 1357, 1358, 1359, 1360, 1361, 1362, 1363, 1364, 1365, 1366, 1367, 1368, 1369, 1370, 1371, 1372, 1373, 1374, 1375, 1376, 1377, 1378, 1379, 1380, 1381, 1382, 1383, 1384, 1385, 1386, 1387, 1388, 1389, 1390, 1391, 1392, 1393, 1394, 1395, 1396, 1397, 1398, 1399, 1400, 1401, 1402, 1403, 1404, 1405, 1406, 1407, 1408, 1409, 1410, 1411, 1412, 1413, 1414, 1415, 1416, 1417, 1418, 1419, 1420, 1421, 1422, 1423, 1424, 1425, 1426, 1427, 1428, 1429, 1430, 1431, 1432, 1433, 1434, 1435, 1436, 1437, 1438, 1439, 1440, 1441, 1442, 1443, 1444, 1445, 1446, 1447, 1448, 1449, 1450, 1451, 1452, 1453, 1454, 1455, 1456, 1457, 1458, 1459, 1460, 1461, 1462, 1463, 1464, 1465, 1466, 1467, 1468, 1469, 1470, 1471, 1472, 1473, 1474, 1475, 1476, 1477, 1478, 1479, 1480, 1481, 1482, 1483, 1484, 1485, 1486, 1487, 1488, 1489, 1490, 1491, 1492, 1493, 1494, 1495, 1496, 1497, 1498, 1499, 1500, 1501, 1502, 1503, 1504, 1505, 1506, 1507, 1508, 1509, 1510, 1511, 1512, 1513, 1514, 1515, 1516, 1517, 1518, 1519, 1520, 1521, 1522, 1523, 1524, 1525, 1526, 1527, 1528, 1529, 1530, 1531, 1532, 1533, 1534, 1535, 1536, 1537, 1538, 1539, 1540, 1541, 1542, 1543, 1544, 1545, 1546, 1547, 1548, 1549, 1550, 1551, 1552, 1553, 1554, 1555, 1556, 1557, 1558, 1559, 1560, 1561, 1562, 1563, 1564, 1565, 1566, 1567, 1568, 1569, 1570, 1571, 1572, 1573, 1574, 1575, 1576, 1577, 1578, 1579, 1580, 1581, 1582, 1583, 1584, 1585, 1586, 1587, 1588, 1589, 1590, 1591, 1592, 1593, 1594, 1595, 1596, 1597, 1598, 1599, 1600, 1601, 1602, 1603, 1604, 1605, 1606, 1607, 1608],
      "AcquisitionTime": ["195521.410000", "195522.910000", "195524.410000", "195525.910000", "195527.410000", "195528.910000", "195530.410000", "195531.910000", "195533.410000", "195534.910000", "195536.410000", "195537.910000", "195539.410000", "195540.910000", "195542.410000", "195543.910000", "195545.410000", "195546.910000", "195548.410000", "195549.910000", "195551.410000", "195552.910000", "195554.410000", "195555.910000", "195557.410000", "195558.910000", "195600.410000", "195601.910000", "195603.410000", "195604.910000", "195606.410000", "195607.910000", "195609.410000", "195610.910000", "195612.410000", "195613.910000", "195615.410000", "195616.910000", "195618.410000", "195619.910000", "195621.410000", "195622.910000", "195624.410000", "195625.910000", "195627.410000", "195628.910000", "195630.410000", "195631.910000", "195633.410000", "195634.910000", "195636.410000", "195637.910000", "195639.410000", "195640.910000", "195642.410000", "195643.910000", "195645.410000", "195646.910000", "195648.410000", "195649.910000", "195651.410000", "195652.910000", "195654.410000", "195655.910000", "195657.410000", "195658.910000", "195700.410000", "195701.910000", "195703.410000", "195704.910000", "195706.410000", "195707.910000", "195709.410000", "195710.910000", "195712.410000", "195713.910000", "195715.410000", "195716.910000", "195718.410000", "195719.910000", "195721.410000", "195722.910000", "195724.410000", "195725.910000", "195727.410000", "195728.910000", "195730.410000", "195731.910000", "195733.410000", "195734.910000", "195736.410000", "195737.910000", "195739.410000", "195740.910000", "195742.410000", "195743.910000", "195745.410000", "195746.910000", "195748.410000", "195749.910000", "195751.410000", "195752.910000", "195754.410000", "195755.910000", "195757.410000", "195758.910000", "195800.410000", "195801.910000", "195803.410000", "195804.910000", "195806.410000", "195807.910000", "195809.410000", "195810.910000", "195812.410000", "195813.910000", "195815.410000", "195816.910000", "195818.410000", "195819.910000", "195821.410000", "195822.910000", "195824.410000", "195825.910000", "195827.410000", "195828.910000", "195830.410000", "195831.910000", "195833.410000", "195834.910000", "195836.410000", "195837.910000", "195839.410000", "195840.910000", "195842.410000", "195843.910000", "195845.410000", "195846.910000", "195848.410000", "195849.910000", "195851.410000", "195852.910000", "195854.410000", "195855.910000", "195857.410000", "195858.910000", "195900.410000", "195901.910000", "195903.410000", "195904.910000", "195906.410000", "195907.910000", "195909.410000", "195910.910000", "195912.410000", "195913.910000", "195915.410000", "195916.910000", "195918.410000", "195919.910000", "195921.410000", "195922.910000", "195924.410000", "195925.910000", "195927.410000", "195928.910000", "195930.410000", "195931.910000", "195933.410000", "195934.910000", "195936.410000", "195937.910000", "195939.410000", "195940.910000", "195942.410000", "195943.910000", "195945.410000", "195946.910000", "195948.410000", "195949.910000", "195951.410000", "195952.910000", "195954.410000", "195955.910000", "195957.410000", "195958.910000", "200000.410000", "200001.910000", "200003.410000", "200004.910000", "200006.410000", "200007.910000", "200009.410000", "200010.910000", "200012.410000", "200013.910000", "200015.410000", "200016.910000", "200018.410000", "200019.910000", "200021.410000", "200022.910000", "200024.410000", "200025.910000", "200027.410000", "200028.910000", "200030.410000", "200031.910000", "200033.410000", "200034.910000", "200036.410000", "200037.910000", "200039.410000", "200040.910000", "200042.410000", "200043.910000", "200045.410000", "200046.910000", "200048.410000", "200049.910000", "200051.410000", "200052.910000", "200054.410000", "200055.910000", "200057.410000", "200058.910000", "200100.410000", "200101.910000", "200103.410000", "200104.910000", "200106.410000", "200107.910000", "200109.410000", "200110.910000", "200112.410000", "200113.910000", "200115.410000", "200116.910000", "200118.410000", "200119.910000", "200121.410000", "200122.910000", "200124.410000", "200125.910000", "200127.410000", "200128.910000", "200130.410000", "200131.910000", "200133.410000", "200134.910000", "200136.410000", "200137.910000", "200139.410000", "200140.910000", "200142.410000", "200143.910000", "200145.410000", "200146.910000", "200148.410000", "200149.910000", "200151.410000", "200152.910000", "200154.410000", "200155.910000", "200157.410000", "200158.910000", "200200.410000", "200201.910000", "200203.410000", "200204.910000", "200206.410000", "200207.910000", "200209.410000", "200210.910000", "200212.410000", "200213.910000", "200215.410000", "200216.910000", "200218.410000", "200219.910000", "200221.410000", "200222.910000", "200224.410000", "200225.910000", "200227.410000", "200228.910000", "200230.410000", "200231.910000", "200233.410000", "200234.910000", "200236.410000", "200237.910000", "200239.410000", "200240.910000", "200242.410000", "200243.910000", "200245.410000", "200246.910000", "200248.410000", "200249.910000", "200251.410000", "200252.910000", "200254.410000", "200255.910000", "200257.410000", "200258.910000", "200300.410000", "200301.910000", "200303.410000", "200304.910000", "200306.410000", "200307.910000", "200309.410000", "200310.910000", "200312.410000", "200313.910000", "200315.410000", "200316.910000", "200318.410000", "200319.910000", "200321.410000", "200322.910000", "200324.410000", "200325.910000", "200327.410000", "200328.910000", "200330.410000", "200331.910000", "200333.410000", "200334.910000", "200336.410000", "200337.910000", "200339.410000", "200340.910000", "200342.410000", "200343.910000", "200345.410000", "200346.910000", "200348.410000", "200349.910000", "200351.410000", "200352.910000", "200354.410000", "200355.910000", "200357.410000", "200358.910000", "200400.410000", "200401.910000", "200403.410000", "200404.910000", "200406.410000", "200407.910000", "200409.410000", "200410.910000", "200412.410000", "200413.910000", "200415.410000", "200416.910000", "200418.410000", "200419.910000", "200421.410000", "200422.910000", "200424.410000", "200425.910000", "200427.410000", "200428.910000", "200430.410000", "200431.910000", "200433.410000", "200434.910000", "200436.410000", "200437.910000", "200439.410000", "200440.910000", "200442.410000", "200443.910000", "200445.410000", "200446.910000", "200448.410000", "200449.910000", "200451.410000", "200452.910000", "200454.410000", "200455.910000", "200457.410000", "200458.910000", "200500.410000", "200501.910000", "200503.410000", "200504.910000", "200506.410000", "200507.910000", "200509.410000", "200510.910000", "200512.410000", "200513.910000", "200515.410000", "200516.910000", "200518.410000", "200519.910000", "200521.410000", "200522.910000", "200524.410000", "200525.910000", "200527.410000", "200528.910000", "200530.410000", "200531.910000", "200533.410000", "200534.910000", "200536.410000", "200537.910000", "200539.410000", "200540.910000", "200542.410000", "200543.910000", "200545.410000", "200546.910000", "200548.410000", "200549.910000", "200551.410000", "200552.910000", "200554.410000", "200555.910000", "200557.410000", "200558.910000", "200600.410000", "200601.910000", "200603.410000", "200604.910000", "200606.410000", "200607.910000", "200609.410000", "200610.910000", "200612.410000", "200613.910000", "200615.410000", "200616.910000", "200618.410000", "200619.910000", "200621.410000", "200622.910000", "200624.410000", "200625.910000", "200627.410000", "200628.910000", "200630.410000", "200631.910000", "200633.410000", "200634.910000", "200636.410000", "200637.910000", "200639.410000", "200640.910000", "200642.410000", "200643.910000", "200645.410000", "200646.910000", "200648.410000", "200649.910000", "200651.410000", "200652.910000", "200654.410000", "200655.910000", "200657.410000", "200658.910000", "200700.410000", "200701.910000", "200703.410000", "200704.910000", "200706.410000", "200707.910000", "200709.410000", "200710.910000", "200712.410000", "200713.910000", "200715.410000", "200716.910000", "200718.410000", "200719.910000", "200721.410000", "200722.910000", "200724.410000", "200725.910000", "200727.410000", "200728.910000", "200730.410000", "200731.910000", "200733.410000", "200734.910000", "200736.410000", "200737.910000", "200739.410000", "200740.910000", "200742.410000", "200743.910000", "200745.410000", "200746.910000", "200748.410000", "200749.910000", "200751.410000", "200752.910000", "200754.410000", "200755.910000", "200757.410000", "200758.910000", "200800.410000", "200801.910000", "200803.410000", "200804.910000", "200806.410000", "200807.910000", "200809.410000", "200810.910000", "200812.410000", "200813.910000", "200815.410000", "200816.910000", "200818.410000", "200819.910000", "200821.410000", "200822.910000", "200824.410000", "200825.910000", "200827.410000", "200828.910000", "200830.410000", "200831.910000", "200833.410000", "200834.910000", "200836.410000", "200837.910000", "200839.410000", "200840.910000", "200842.410000", "200843.910000", "200845.410000", "200846.910000", "200848.410000", "200849.910000", "200851.410000", "200852.910000", "200854.410000", "200855.910000", "200857.410000", "200858.910000", "200900.410000", "200901.910000", "200903.410000", "200904.910000", "200906.410000", "200907.910000", "200909.410000", "200910.910000", "200912.410000", "200913.910000", "200915.410000", "200916.910000", "200918.410000", "200919.910000", "200921.410000", "200922.910000", "200924.410000", "200925.910000", "200927.410000", "200928.910000", "200930.410000", "200931.910000", "200933.410000", "200934.910000", "200936.410000", "200937.910000", "200939.410000", "200940.910000", "200942.410000", "200943.910000", "200945.410000", "200946.910000", "200948.410000", "200949.910000", "200951.410000", "200952.910000", "200954.410000", "200955.910000", "200957.410000", "200958.910000", "201000.410000", "201001.910000", "201003.410000", "201004.910000", "201006.410000", "201007.910000", "201009.410000", "201010.910000", "201012.410000", "201013.910000", "201015.410000", "201016.910000", "201018.410000", "201019.910000", "201021.410000", "201022.910000", "201024.410000", "201025.910000", "201027.410000", "201028.910000", "201030.410000", "201031.910000", "201033.410000", "201034.910000", "201036.410000", "201037.910000", "201039.410000", "201040.910000", "201042.410000", "201043.910000", "201045.410000", "201046.910000", "201048.410000", "201049.910000", "201051.410000", "201052.910000", "201054.410000", "201055.910000", "201057.410000", "201058.910000", "201100.410000", "201101.910000", "201103.410000", "201104.910000", "201106.410000", "201107.910000", "201109.410000", "201110.910000", "201112.410000", "201113.910000", "201115.410000", "201116.910000", "201118.410000", "201119.910000", "201121.410000", "201122.910000", "201124.410000", "201125.910000", "201127.410000", "201128.910000", "201130.410000", "201131.910000", "201133.410000", "201134.910000", "201136.410000", "201137.910000", "201139.410000", "201140.910000", "201142.410000", "201143.910000", "201145.410000", "201146.910000", "201148.410000", "201149.910000", "201151.410000", "201152.910000", "201154.410000", "201155.910000", "201157.410000", "201158.910000", "201200.410000", "201201.910000", "201203.410000", "201204.910000", "201206.410000", "201207.910000", "201209.410000", "201210.910000", "201212.410000", "201213.910000", "201215.410000", "201216.910000", "201218.410000", "201219.910000", "201221.410000", "201222.910000", "201224.410000", "201225.910000", "201227.410000", "201228.910000", "201230.410000", "201231.910000", "201233.410000", "201234.910000", "201236.410000", "201237.910000", "201239.410000", "201240.910000", "201242.410000", "201243.910000", "201245.410000", "201246.910000", "201248.410000", "201249.910000", "201251.410000", "201252.910000", "201254.410000", "201255.910000", "201257.410000", "201258.910000", "201300.410000", "201301.910000", "201303.410000", "201304.910000", "201306.410000", "201307.910000", "201309.410000", "201310.910000", "201312.410000", "201313.910000", "201315.410000", "201316.910000", "201318.410000", "201319.910000", "201321.410000", "201322.910000", "201324.410000", "201325.910000", "201327.410000", "201328.910000", "201330.410000", "201331.910000", "201333.410000", "201334.910000", "201336.410000", "201337.910000", "201339.410000", "201340.910000", "201342.410000", "201343.910000", "201345.410000", "201346.910000", "201348.410000", "201349.910000", "201351.410000", "201352.910000", "201354.410000", "201355.910000", "201357.410000", "201358.910000", "201400.410000", "201401.910000", "201403.410000", "201404.910000", "201406.410000", "201407.910000", "201409.410000", "201410.910000", "201412.410000", "201413.910000", "201415.410000", "201416.910000", "201418.410000", "201419.910000", "201421.410000", "201422.910000", "201424.410000", "201425.910000", "201427.410000", "201428.910000", "201430.410000", "201431.910000", "201433.410000", "201434.910000", "201436.410000", "201437.910000", "201439.410000", "201440.910000", "201442.410000", "201443.910000", "201445.410000", "201446.910000", "201448.410000", "201449.910000", "201451.410000", "201452.910000", "201454.410000", "201455.910000", "201457.410000", "201458.910000", "201500.410000", "201501.910000", "201503.410000", "201504.910000", "201506.410000", "201507.910000", "201509.410000", "201510.910000", "201512.410000", "201513.910000", "201515.410000", "201516.910000", "201518.410000", "201519.910000", "201521.410000", "201522.910000", "201524.410000", "201525.910000", "201527.410000", "201528.910000", "201530.410000", "201531.910000", "201533.410000", "201534.910000", "201536.410000", "201537.910000", "201539.410000", "201540.910000", "201542.410000", "201543.910000", "201545.410000", "201546.910000", "201548.410000", "201549.910000", "201551.410000", "201552.910000", "201554.410000", "201555.910000", "201557.410000", "201558.910000", "201600.410000", "201601.910000", "201603.410000", "201604.910000", "201606.410000", "201607.910000", "201609.410000", "201610.910000", "201612.410000", "201613.910000", "201615.410000", "201616.910000", "201618.410000", "201619.910000", "201621.410000", "201622.910000", "201624.410000", "201625.910000", "201627.410000", "201628.910000", "201630.410000", "201631.910000", "201633.410000", "201634.910000", "201636.410000", "201637.910000", "201639.410000", "201640.910000", "201642.410000", "201643.910000", "201645.410000", "201646.910000", "201648.410000", "201649.910000", "201651.410000", "201652.910000", "201654.410000", "201655.910000", "201657.410000", "201658.910000", "201700.410000", "201701.910000", "201703.410000", "201704.910000", "201706.410000", "201707.910000", "201709.410000", "201710.910000", "201712.410000", "201713.910000", "201715.410000", "201716.910000", "201718.410000", "201719.910000", "201721.410000", "201722.910000", "201724.410000", "201725.910000", "201727.410000", "201728.910000", "201730.410000", "201731.910000", "201733.410000", "201734.910000", "201736.410000", "201737.910000", "201739.410000", "201740.910000", "201742.410000", "201743.910000", "201745.410000", "201746.910000", "201748.410000", "201749.910000", "201751.410000", "201752.910000", "201754.410000", "201755.910000", "201757.410000", "201758.910000", "201800.410000", "201801.910000", "201803.410000", "201804.910000", "201806.410000", "201807.910000", "201809.410000", "201810.910000", "201812.410000", "201813.910000", "201815.410000", "201816.910000", "201818.410000", "201819.910000", "201821.410000", "201822.910000", "201824.410000", "201825.910000", "201827.410000", "201828.910000", "201830.410000", "201831.910000", "201833.410000", "201834.910000", "201836.41